Time(s),Value(%)
1551.0083798,-5.73000001907349
1551.0240048,-5.69000005722046
1551.0396298,-5.90999984741211
1551.0552548,-6.57000017166138
1551.0708798,-7.63000011444092
1551.0865048,-8.97999954223633
1551.1021298,-10.5
1551.1177548,-12.1400003433228
1551.1333798,-13.8299999237061
1551.1490048,-15.3900003433228
1551.1646298,-16.5599994659424
1551.1802548,-17.1200008392334
1551.1958798,-17.1399993896484
1551.2115048,-16.8500003814697
1551.2271298,-16.4300003051758
1551.2427548,-15.9499998092651
1551.2583798,-15.3800001144409
1551.2740048,-14.6999998092651
1551.2896298,-13.8400001525879
1551.3052548,-12.5600004196167
1551.3208798,-10.289999961853
1551.3365048,-6.53000020980835
1551.3521298,-1.22000002861023
1551.3677548,5.1100001335144
1551.3833798,11.710000038147
1551.3990048,17.9300003051758
1551.4146298,23.4899997711182
1551.4302548,28.7099990844727
1551.4458798,34.4000015258789
1551.4615048,41.3300018310547
1551.4771298,49.7099990844727
1551.4927548,59.1100006103516
1551.5083798,68.8399963378906
1551.5240048,78.2799987792969
1551.5396298,86.9599990844727
1551.5552548,94.1699981689453
1551.5708798,98.8300018310547
1551.5865048,100.089996337891
1551.6021298,97.8199996948242
1551.6177548,92.9100036621094
1551.6333798,86.6900024414063
1551.6490048,80.2699966430664
1551.6646298,74.3099975585938
1551.6802548,69.0
1551.6958798,64.2300033569336
1551.7115048,59.75
1551.7271298,55.3699989318848
1551.7427548,50.9700012207031
1551.7583798,46.5499992370605
1551.7740048,42.0999984741211
1551.7896298,37.6399993896484
1551.8052548,33.189998626709
1551.8208798,28.7700004577637
1551.8365048,24.4400005340576
1551.8521298,20.25
1551.8677548,16.1800003051758
1551.8833798,12.1599998474121
1551.8990048,8.09000015258789
1551.9146298,3.95000004768372
1551.9302548,-0.25
1551.9458798,-4.53999996185303
1551.9615048,-8.90999984741211
1551.9771298,-13.3100004196167
1551.9927548,-17.5799999237061
1552.0083798,-21.4699993133545
1552.0240048,-24.7000007629395
1552.0396298,-27.0499992370605
1552.0552548,-28.4500007629395
1552.0708798,-28.9500007629395
1552.0865048,-28.7600002288818
1552.1021298,-28.1499996185303
1552.1177548,-27.3999996185303
1552.1333798,-26.6200008392334
1552.1490048,-25.4899997711182
1552.1646298,-23.1700000762939
1552.1802548,-18.8700008392334
1552.1958798,-12.4700002670288
1552.2115048,-4.57000017166138
1552.2271298,3.8199999332428
1552.2427548,11.8999996185303
1552.2583798,19.1000003814697
1552.2740048,24.8400001525879
1552.2896298,28.3099994659424
1552.3052548,28.7299995422363
1552.3208798,26.0300006866455
1552.3365048,20.8899993896484
1552.3521298,14.460000038147
1552.3677548,7.80999994277954
1552.3833798,1.63999998569489
1552.3990048,-3.79999995231628
1552.4146298,-8.64999961853027
1552.4302548,-13.1199998855591
1552.4458798,-17.4599990844727
1552.4615048,-21.7700004577637
1552.4771298,-26.0599994659424
1552.4927548,-30.3400001525879
1552.5083798,-34.6599998474121
1552.5240048,-39.0999984741211
1552.5396298,-43.6399993896484
1552.5552548,-48.0699996948242
1552.5708798,-52.0200004577637
1552.5865048,-55.1800003051758
1552.6021298,-57.439998626709
1552.6177548,-58.8699989318848
1552.6333798,-59.6199989318848
1552.6490048,-59.7999992370605
1552.6646298,-59.5400009155273
1552.6802548,-59.0200004577637
1552.6958798,-58.3800010681152
1552.7115048,-57.7400016784668
1552.7271298,-57.1100006103516
1552.7427548,-56.5400009155273
1552.7583798,-56.0800018310547
1552.7740048,-55.7799987792969
1552.7896298,-55.6399993896484
1552.8052548,-55.5699996948242
1552.8208798,-55.4599990844727
1552.8365048,-55.2400016784668
1552.8521298,-54.7599983215332
1552.8677548,-53.5400009155273
1552.8833798,-50.6100006103516
1552.8990048,-45.0800018310547
1552.9146298,-36.8699989318848
1552.9302548,-26.75
1552.9458798,-15.8100004196167
1552.9615048,-5.0
1552.9771298,5.05999994277954
1552.9927548,13.75
1553.0083798,20.2099990844727
1553.0240048,23.7299995422363
1553.0396298,24.2600002288818
1553.0552548,22.5100002288818
1553.0708798,19.4400005340576
1553.0865048,15.9099998474121
1553.1021298,12.460000038147
1553.1177548,9.3100004196167
1553.1333798,6.48000001907349
1553.1490048,4.01000022888184
1553.1646298,1.99000000953674
1553.1802548,0.550000011920929
1553.1958798,-0.280000001192093
1553.2115048,-0.620000004768372
1553.2271298,-0.660000026226044
1553.2427548,-0.550000011920929
1553.2583798,-0.400000005960464
1553.2740048,-0.340000003576279
1553.2896298,-0.550000011920929
1553.3052548,-1.22000002861023
1553.3208798,-2.49000000953674
1553.3365048,-4.40999984741211
1553.3521298,-6.84000015258789
1553.3677548,-9.55000019073486
1553.3833798,-12.289999961853
1553.3990048,-14.8599996566772
1553.4146298,-17.1599998474121
1553.4302548,-19.2299995422363
1553.4458798,-21.1900005340576
1553.4615048,-23.1499996185303
1553.4771298,-25.1700000762939
1553.4927548,-27.2099990844727
1553.5083798,-29.2000007629395
1553.5240048,-31.1000003814697
1553.5396298,-32.810001373291
1553.5552548,-34.2299995422363
1553.5708798,-35.0499992370605
1553.5865048,-34.7400016784668
1553.6021298,-32.6300010681152
1553.6177548,-28.2800006866455
1553.6333798,-21.8999996185303
1553.6490048,-14.2700004577637
1553.6646298,-6.38000011444092
1553.6802548,0.990000009536743
1553.6958798,7.5
1553.7115048,13.0500001907349
1553.7271298,17.6000003814697
1553.7427548,21.1700000762939
1553.7583798,23.8799991607666
1553.7740048,25.9799995422363
1553.7896298,27.7900009155273
1553.8052548,29.5699996948242
1553.8208798,31.3600006103516
1553.8365048,32.9500007629395
1553.8521298,33.810001373291
1553.8677548,33.4700012207031
1553.8833798,31.8199996948242
1553.8990048,29.1900005340576
1553.9146298,26.1000003814697
1553.9302548,23.0200004577637
1553.9458798,20.2199993133545
1553.9615048,17.75
1553.9771298,15.5100002288818
1553.9927548,13.2200002670288
1554.0083798,10.460000038147
1554.0240048,6.8899998664856
1554.0396298,2.47000002861023
1554.0552548,-2.65000009536743
1554.0708798,-8.36999988555908
1554.0865048,-14.6199998855591
1554.1021298,-21.2199993133545
1554.1177548,-27.7099990844727
1554.1333798,-33.4199981689453
1554.1490048,-37.9599990844727
1554.1646298,-41.4900016784668
1554.1802548,-44.4500007629395
1554.1958798,-47.0699996948242
1554.2115048,-49.2299995422363
1554.2271298,-50.7099990844727
1554.2427548,-51.4700012207031
1554.2583798,-51.6100006103516
1554.2740048,-51.2700004577637
1554.2896298,-50.4300003051758
1554.3052548,-48.9700012207031
1554.3208798,-46.810001373291
1554.3365048,-43.8499984741211
1554.3521298,-39.7599983215332
1554.3677548,-34.2900009155273
1554.3833798,-27.5100002288818
1554.3990048,-19.8600006103516
1554.4146298,-11.9200000762939
1554.4302548,-4.1100001335144
1554.4458798,3.29999995231628
1554.4615048,10.039999961853
1554.4771298,15.5900001525879
1554.4927548,19.4500007629395
1554.5083798,21.5400009155273
1554.5240048,22.3099994659424
1554.5396298,22.3999996185303
1554.5552548,22.2600002288818
1554.5708798,21.9099998474121
1554.5865048,21.1100006103516
1554.6021298,19.6599998474121
1554.6177548,17.5400009155273
1554.6333798,14.7799997329712
1554.6490048,11.5100002288818
1554.6646298,7.94000005722046
1554.6802548,4.42000007629395
1554.6958798,1.38999998569489
1554.7115048,-1.00999999046326
1554.7271298,-3.20000004768372
1554.7427548,-5.76000022888184
1554.7583798,-8.93000030517578
1554.7740048,-12.7399997711182
1554.7896298,-17.3299999237061
1554.8052548,-22.9599990844727
1554.8208798,-29.5499992370605
1554.8365048,-36.4700012207031
1554.8521298,-42.689998626709
1554.8677548,-47.5999984741211
1554.8833798,-51.5299987792969
1554.8990048,-55.2299995422363
1554.9146298,-58.9099998474121
1554.9302548,-62.0800018310547
1554.9458798,-64.0999984741211
1554.9615048,-64.7699966430664
1554.9771298,-64.3199996948242
1554.9927548,-63.189998626709
1555.0083798,-61.7099990844727
1555.0240048,-60.0
1555.0396298,-58.0099983215332
1555.0552548,-55.5200004577637
1555.0708798,-52.0800018310547
1555.0865048,-47.3600006103516
1555.1021298,-41.2999992370605
1555.1177548,-34.0299987792969
1555.1333798,-25.5699996948242
1555.1490048,-15.8199996948242
1555.1646298,-4.96999979019165
1555.1802548,6.25
1555.1958798,16.7800006866455
1555.2115048,25.5900001525879
1555.2271298,32.3499984741211
1555.2427548,37.3899993896484
1555.2583798,41.4300003051758
1555.2740048,45.0
1555.2896298,48.189998626709
1555.3052548,50.7900009155273
1555.3208798,52.6100006103516
1555.3365048,53.5900001525879
1555.3521298,53.7900009155273
1555.3677548,53.2999992370605
1555.3833798,52.3499984741211
1555.3990048,51.2999992370605
1555.4146298,50.5800018310547
1555.4302548,50.3899993896484
1555.4458798,50.5400009155273
1555.4615048,50.6399993896484
1555.4771298,50.5200004577637
1555.4927548,50.2799987792969
1555.5083798,50.1599998474121
1555.5240048,50.310001373291
1555.5396298,50.689998626709
1555.5552548,51.1100006103516
1555.5708798,51.2999992370605
1555.5865048,51.0400009155273
1555.6021298,50.2700004577637
1555.6177548,48.9300003051758
1555.6333798,46.8300018310547
1555.6490048,43.810001373291
1555.6646298,39.9599990844727
1555.6802548,35.8199996948242
1555.6958798,32.2200012207031
1555.7115048,29.8199996948242
1555.7271298,28.6599998474121
1555.7427548,28.3700008392334
1555.7583798,28.6900005340576
1555.7740048,29.5699996948242
1555.7896298,31.0400009155273
1555.8052548,32.9599990844727
1555.8208798,35.2099990844727
1555.8365048,37.9799995422363
1555.8521298,42.0299987792969
1555.8677548,48.1500015258789
1555.8833798,56.4599990844727
1555.8990048,66.2600021362305
1555.9146298,76.4800033569336
1555.9302548,86.1800003051758
1555.9458798,94.7699966430664
1555.9615048,101.830001831055
1555.9771298,106.819999694824
1555.9927548,109.309997558594
1556.0083798,109.290000915527
1556.0240048,107.290000915527
1556.0396298,104.150001525879
1556.0552548,100.610000610352
1556.0708798,97.1900024414063
1556.0865048,94.0500030517578
1556.1021298,91.129997253418
1556.1177548,88.2900009155273
1556.1333798,85.3399963378906
1556.1490048,82.2099990844727
1556.1646298,78.879997253418
1556.1802548,75.2900009155273
1556.1958798,71.2699966430664
1556.2115048,66.6600036621094
1556.2271298,61.4500007629395
1556.2427548,55.9500007629395
1556.2583798,50.6100006103516
1556.2740048,45.6800003051758
1556.2896298,41.0800018310547
1556.3052548,36.5499992370605
1556.3208798,32.0699996948242
1556.3365048,27.8799991607666
1556.3521298,24.2099990844727
1556.3677548,21.1299991607666
1556.3833798,18.4899997711182
1556.3990048,16.0200004577637
1556.4146298,13.3900003433228
1556.4302548,10.4099998474121
1556.4458798,7.07999992370605
1556.4615048,3.72000002861023
1556.4771298,0.839999973773956
1556.4927548,-1.13999998569489
1556.5083798,-2.08999991416931
1556.5240048,-2.04999995231628
1556.5396298,-0.970000028610229
1556.5552548,1.41999995708466
1556.5708798,5.55000019073486
1556.5865048,11.4399995803833
1556.6021298,18.4300003051758
1556.6177548,25.4300003051758
1556.6333798,31.5200004577637
1556.6490048,36.2900009155273
1556.6646298,39.8600006103516
1556.6802548,42.3699989318848
1556.6958798,43.7700004577637
1556.7115048,43.810001373291
1556.7271298,42.4799995422363
1556.7427548,40.060001373291
1556.7583798,36.9599990844727
1556.7740048,33.560001373291
1556.7896298,30.1299991607666
1556.8052548,26.7299995422363
1556.8208798,23.2999992370605
1556.8365048,19.6800003051758
1556.8521298,15.7799997329712
1556.8677548,11.6199998855591
1556.8833798,7.40999984741211
1556.8990048,3.44000005722046
1556.9146298,-0.129999995231628
1556.9302548,-3.30999994277954
1556.9458798,-6.21000003814697
1556.9615048,-9.03999996185303
1556.9771298,-12.0500001907349
1556.9927548,-15.3900003433228
1557.0083798,-19.0799999237061
1557.0240048,-23.0499992370605
1557.0396298,-27.25
1557.0552548,-31.6900005340576
1557.0708798,-36.2799987792969
1557.0865048,-40.7900009155273
1557.1021298,-44.8499984741211
1557.1177548,-48.3199996948242
1557.1333798,-51.4099998474121
1557.1490048,-54.5200004577637
1557.1646298,-57.8300018310547
1557.1802548,-61.189998626709
1557.1958798,-64.2900009155273
1557.2115048,-66.9400024414063
1557.2271298,-69.0199966430664
1557.2427548,-70.2300033569336
1557.2583798,-69.9100036621094
1557.2740048,-67.4000015258789
1557.2896298,-62.6500015258789
1557.3052548,-56.1699981689453
1557.3208798,-48.6399993896484
1557.3365048,-40.6199989318848
1557.3521298,-32.5800018310547
1557.3677548,-25.0599994659424
1557.3833798,-18.7700004577637
1557.3990048,-14.2700004577637
1557.4146298,-11.6999998092651
1557.4302548,-10.8000001907349
1557.4458798,-11.25
1557.4615048,-12.8500003814697
1557.4771298,-15.4799995422363
1557.4927548,-19.0
1557.5083798,-23.0900001525879
1557.5240048,-27.3600006103516
1557.5396298,-31.4400005340576
1557.5552548,-35.189998626709
1557.5708798,-38.7000007629395
1557.5865048,-42.0999984741211
1557.6021298,-45.3499984741211
1557.6177548,-48.2400016784668
1557.6333798,-50.560001373291
1557.6490048,-52.3199996948242
1557.6646298,-53.6800003051758
1557.6802548,-54.9000015258789
1557.6958798,-56.310001373291
1557.7115048,-58.1199989318848
1557.7271298,-60.3800010681152
1557.7427548,-63.0900001525879
1557.7583798,-66.370002746582
1557.7740048,-70.3600006103516
1557.7896298,-74.9700012207031
1557.8052548,-79.7200012207031
1557.8208798,-83.9000015258789
1557.8365048,-87.0400009155273
1557.8521298,-89.2799987792969
1557.8677548,-91.0400009155273
1557.8833798,-92.5199966430664
1557.8990048,-93.5400009155273
1557.9146298,-93.8499984741211
1557.9302548,-93.4000015258789
1557.9458798,-92.3099975585938
1557.9615048,-90.5400009155273
1557.9771298,-87.7399978637695
1557.9927548,-83.4700012207031
1558.0083798,-77.629997253418
1558.0240048,-70.4199981689453
1558.0396298,-62.0800018310547
1558.0552548,-52.7700004577637
1558.0708798,-42.810001373291
1558.0865048,-32.7700004577637
1558.1021298,-23.3500003814697
1558.1177548,-15.1099996566772
1558.1333798,-8.25
1558.1490048,-2.76999998092651
1558.1646298,1.26999998092651
1558.1802548,3.78999996185303
1558.1958798,4.92999982833862
1558.2115048,5.11999988555908
1558.2271298,4.86999988555908
1558.2427548,4.53999996185303
1558.2583798,4.19000005722046
1558.2740048,3.69000005722046
1558.2896298,2.89000010490417
1558.3052548,1.75
1558.3208798,0.28999999165535
1558.3365048,-1.44000005722046
1558.3521298,-3.32999992370605
1558.3677548,-5.15999984741211
1558.3833798,-6.69999980926514
1558.3990048,-7.84000015258789
1558.4146298,-8.77999973297119
1558.4302548,-9.81999969482422
1558.4458798,-11.0600004196167
1558.4615048,-12.4099998474121
1558.4771298,-13.6300001144409
1558.4927548,-14.5900001525879
1558.5083798,-15.3199996948242
1558.5240048,-16.2600002288818
1558.5396298,-18.2199993133545
1558.5552548,-21.9500007629395
1558.5708798,-27.6499996185303
1558.5865048,-35.1800003051758
1558.6021298,-44.6100006103516
1558.6177548,-56.0299987792969
1558.6333798,-69.0199966430664
1558.6490048,-82.25
1558.6646298,-93.7600021362305
1558.6802548,-102.160003662109
1558.6958798,-107.480003356934
1558.7115048,-110.629997253418
1558.7271298,-112.160003662109
1558.7427548,-111.959999084473
1558.7583798,-109.839996337891
1558.7740048,-106.059997558594
1558.7896298,-101.209999084473
1558.8052548,-95.9100036621094
1558.8208798,-90.4499969482422
1558.8365048,-84.7900009155273
1558.8521298,-78.9100036621094
1558.8677548,-73.0999984741211
1558.8833798,-68.0599975585938
1558.8990048,-64.4700012207031
1558.9146298,-62.4900016784668
1558.9302548,-61.4900016784668
1558.9458798,-60.4300003051758
1558.9615048,-58.6599998474121
1558.9771298,-56.4300003051758
1558.9927548,-54.439998626709
1559.0083798,-52.8499984741211
1559.0240048,-51.1800003051758
1559.0396298,-48.8199996948242
1559.0552548,-45.4799995422363
1559.0708798,-41.3800010681152
1559.0865048,-37.1199989318848
1559.1021298,-33.4599990844727
1559.1177548,-30.9500007629395
1559.1333798,-29.75
1559.1490048,-30.0300006866455
1559.1646298,-32.2700004577637
1559.1802548,-37.0099983215332
1559.1958798,-44.0200004577637
1559.2115048,-51.8400001525879
1559.2271298,-58.2799987792969
1559.2427548,-61.9199981689453
1559.2583798,-63.2000007629395
1559.2740048,-63.5800018310547
1559.2896298,-63.7599983215332
1559.3052548,-63.2799987792969
1559.3208798,-61.3300018310547
1559.3365048,-57.6199989318848
1559.3521298,-52.5200004577637
1559.3677548,-46.7900009155273
1559.3833798,-41.1599998474121
1559.3990048,-36.0200004577637
1559.4146298,-31.4200000762939
1559.4302548,-27.1800003051758
1559.4458798,-23.1399993896484
1559.4615048,-19.1900005340576
1559.4771298,-15.1700000762939
1559.4927548,-10.460000038147
1559.5083798,-3.85999989509583
1559.5240048,5.65000009536743
1559.5396298,18.0200004577637
1559.5552548,32.0900001525879
1559.5708798,46.3300018310547
1559.5865048,59.6300010681152
1559.6021298,71.5599975585938
1559.6177548,82.2600021362305
1559.6333798,92.0100021362305
1559.6490048,100.779998779297
1559.6646298,107.949996948242
1559.6802548,112.800003051758
1559.6958798,115.120002746582
1559.7115048,115.169998168945
1559.7271298,113.370002746582
1559.7427548,110.069999694824
1559.7583798,105.779998779297
1559.7740048,101.550003051758
1559.7896298,98.8000030517578
1559.8052548,98.4100036621094
1559.8208798,99.9599990844727
1559.8365048,102.180000305176
1559.8521298,104.220001220703
1559.8677548,106.01000213623
1559.8833798,107.949996948242
1559.8990048,110.339996337891
1559.9146298,113.139999389648
1559.9302548,115.910003662109
1559.9458798,118.0
1559.9615048,118.879997253418
1559.9771298,118.379997253418
1559.9927548,116.519996643066
1560.0083798,113.150001525879
1560.0240048,108.089996337891
1560.0396298,101.639999389648
1560.0552548,94.9100036621094
1560.0708798,89.6800003051758
1560.0865048,87.3000030517578
1560.1021298,87.7099990844727
1560.1177548,89.879997253418
1560.1333798,92.879997253418
1560.1490048,96.5
1560.1646298,100.910003662109
1560.1802548,106.209999084473
1560.1958798,112.23999786377
1560.2115048,118.75
1560.2271298,125.779998779297
1560.2427548,133.580001831055
1560.2583798,142.300003051758
1560.2740048,151.710006713867
1560.2896298,161.139999389648
1560.3052548,169.809997558594
1560.3208798,177.179992675781
1560.3365048,183.169998168945
1560.3521298,187.990005493164
1560.3677548,191.789993286133
1560.3833798,194.470001220703
1560.3990048,195.809997558594
1560.4146298,195.75
1560.4302548,194.449996948242
1560.4458798,192.190002441406
1560.4615048,189.210006713867
1560.4771298,185.759994506836
1560.4927548,182.080001831055
1560.5083798,178.470001220703
1560.5240048,174.979995727539
1560.5396298,171.389999389648
1560.5552548,167.389999389648
1560.5708798,162.880004882813
1560.5865048,158.059997558594
1560.6021298,153.240005493164
1560.6177548,148.589996337891
1560.6333798,144.110000610352
1560.6490048,139.529998779297
1560.6646298,134.449996948242
1560.6802548,128.490005493164
1560.6958798,121.589996337891
1560.7115048,113.769996643066
1560.7271298,105.019996643066
1560.7427548,95.2699966430664
1560.7583798,84.7300033569336
1560.7740048,74.0699996948242
1560.7896298,64.3300018310547
1560.8052548,56.2299995422363
1560.8208798,49.6699981689453
1560.8365048,44.0200004577637
1560.8521298,38.8400001525879
1560.8677548,34.1199989318848
1560.8833798,30.0300006866455
1560.8990048,26.5699996948242
1560.9146298,23.6900005340576
1560.9302548,21.7099990844727
1560.9458798,21.5599994659424
1560.9615048,24.1900005340576
1560.9771298,29.7399997711182
1560.9927548,37.4199981689453
1561.0083798,46.0499992370605
1561.0240048,54.6699981689453
1561.0396298,62.560001373291
1561.0552548,69.0999984741211
1561.0708798,73.4899978637695
1561.0865048,75.1399993896484
1561.1021298,74.0400009155273
1561.1177548,70.7799987792969
1561.1333798,66.120002746582
1561.1490048,60.6699981689453
1561.1646298,54.8400001525879
1561.1802548,48.9000015258789
1561.1958798,42.9599990844727
1561.2115048,37.0299987792969
1561.2271298,31.0
1561.2427548,24.75
1561.2583798,18.2299995422363
1561.2740048,11.4899997711182
1561.2896298,4.55000019073486
1561.3052548,-2.52999997138977
1561.3208798,-9.71000003814697
1561.3365048,-16.7999992370605
1561.3521298,-23.5699996948242
1561.3677548,-29.9200000762939
1561.3833798,-36.0
1561.3990048,-42.0699996948242
