Time(s),Value(%)
1044.0056241,3.67000007629395
1044.0212491,21.7099990844727
1044.0368741,39.0400009155273
1044.0524991,54.0299987792969
1044.0681241,65.8300018310547
1044.0837491,74.4700012207031
1044.0993741,80.2699966430664
1044.1149991,83.2300033569336
1044.1306241,83.1699981689453
1044.1462491,80.0299987792969
1044.1618741,74.0400009155273
1044.1774991,65.6600036621094
1044.1931241,55.5099983215332
1044.2087491,44.2400016784668
1044.2243741,32.4599990844727
1044.2399991,20.8500003814697
1044.2556241,10.1400003433228
1044.2712491,0.870000004768372
1044.2868741,-6.80000019073486
1044.3024991,-13.1300001144409
1044.3181241,-18.4400005340576
1044.3337491,-23.1399993896484
1044.3493741,-27.5400009155273
1044.3649991,-31.7600002288818
1044.3806241,-35.6800003051758
1044.3962491,-39.0900001525879
1044.4118741,-41.8400001525879
1044.4274991,-43.9799995422363
1044.4431241,-45.6699981689453
1044.4587491,-47.0900001525879
1044.4743741,-48.3199996948242
1044.4899991,-49.3899993896484
1044.5056241,-50.1599998474121
1044.5212491,-50.4599990844727
1044.5368741,-50.1800003051758
1044.5524991,-49.3199996948242
1044.5681241,-47.7700004577637
1044.5837491,-45.1100006103516
1044.5993741,-40.439998626709
1044.6149991,-32.6599998474121
1044.6306241,-20.9799995422363
1044.6462491,-5.53000020980835
1044.6618741,12.5299997329712
1044.6774991,31.3299999237061
1044.6931241,48.8699989318848
1044.7087491,63.6500015258789
1044.7243741,75.0999984741211
1044.7399991,83.2099990844727
1044.7556241,87.9499969482422
1044.7712491,89.1500015258789
1044.7868741,86.8399963378906
1044.8024991,81.3600006103516
1044.8181241,73.120002746582
1044.8337491,62.5200004577637
1044.8493741,50.1100006103516
1044.8649991,36.7900009155273
1044.8806241,23.6000003814697
1044.8962491,11.4099998474121
1044.9118741,0.819999992847443
1044.9274991,-7.88000011444092
1044.9431241,-14.6499996185303
1044.9587491,-19.7299995422363
1044.9743741,-23.7399997711182
1044.9899991,-27.4699993133545
1045.0056241,-31.4599990844727
1045.0212491,-35.8499984741211
1045.0368741,-40.3499984741211
1045.0524991,-44.4099998474121
1045.0681241,-47.5999984741211
1045.0837491,-49.8800010681152
1045.0993741,-51.439998626709
1045.1149991,-52.4500007629395
1045.1306241,-52.9500007629395
1045.1462491,-52.9500007629395
1045.1618741,-52.5
1045.1774991,-51.7400016784668
1045.1931241,-50.7299995422363
1045.2087491,-49.4099998474121
1045.2243741,-47.3199996948242
1045.2399991,-43.439998626709
1045.2556241,-36.4900016784668
1045.2712491,-25.5
1045.2868741,-10.460000038147
1045.3024991,7.46000003814697
1045.3181241,26.4799995422363
1045.3337491,44.9300003051758
1045.3493741,61.5099983215332
1045.3649991,75.0699996948242
1045.3806241,84.7900009155273
1045.3962491,90.5800018310547
1045.4118741,92.9700012207031
1045.4274991,92.5999984741211
1045.4431241,89.75
1045.4587491,84.1900024414063
1045.4743741,75.6399993896484
1045.4899991,64.4899978637695
1045.5056241,52.0400009155273
1045.5212491,39.9300003051758
1045.5368741,29.2399997711182
1045.5524991,20.2000007629395
1045.5681241,12.4300003051758
1045.5837491,5.40000009536743
1045.5993741,-1.35000002384186
1045.6149991,-8.22000026702881
1045.6306241,-15.4399995803833
1045.6462491,-23.0100002288818
1045.6618741,-30.6900005340576
1045.6774991,-38.2099990844727
1045.6931241,-45.310001373291
1045.7087491,-51.8800010681152
1045.7243741,-57.8199996948242
1045.7399991,-62.939998626709
1045.7556241,-66.9100036621094
1045.7712491,-69.5
1045.7868741,-70.8300018310547
1045.8024991,-71.25
1045.8181241,-71.1100006103516
1045.8337491,-70.5500030517578
1045.8493741,-69.2900009155273
1045.8649991,-66.2399978637695
1045.8806241,-59.8800010681152
1045.8962491,-49.0200004577637
1045.9118741,-33.7299995422363
1045.9274991,-15.4499998092651
1045.9431241,3.49000000953674
1045.9587491,21.0499992370605
1045.9743741,36.0299987792969
1045.9899991,48.0200004577637
1046.0056241,56.810001373291
1046.0212491,62.2299995422363
1046.0368741,64.1999969482422
1046.0524991,62.7000007629395
1046.0681241,57.7299995422363
1046.0837491,49.2599983215332
1046.0993741,37.6399993896484
1046.1149991,24.0
1046.1306241,10.1800003051758
1046.1462491,-1.75999999046326
1046.1618741,-10.0699996948242
1046.1774991,-13.8000001907349
1046.1931241,-12.9200000762939
1046.2087491,-8.17000007629395
1046.2243741,-0.790000021457672
1046.2399991,7.40999984741211
1046.2556241,14.1999998092651
1046.2712491,17.5400009155273
1046.2868741,16.6900005340576
1046.3024991,12.4700002670288
1046.3181241,6.71999979019165
1046.3337491,1.1599999666214
1046.3493741,-3.5
1046.3649991,-7.57999992370605
1046.3806241,-11.7299995422363
1046.3962491,-16.2900009155273
1046.4118741,-21.0799999237061
1046.4274991,-25.3899993896484
1046.4431241,-28.1000003814697
1046.4587491,-27.8999996185303
1046.4743741,-23.8799991607666
1046.4899991,-15.8999996185303
1046.5056241,-4.36999988555908
1046.5212491,9.92000007629395
1046.5368741,25.8999996185303
1046.5524991,42.3600006103516
1046.5681241,58.0900001525879
1046.5837491,71.8499984741211
1046.5993741,82.4700012207031
1046.6149991,88.9800033569336
1046.6306241,90.8300018310547
1046.6462491,88.3499984741211
1046.6618741,82.7200012207031
1046.6774991,75.0599975585938
1046.6931241,65.4800033569336
1046.7087491,53.0699996948242
1046.7243741,36.8400001525879
1046.7399991,16.6499996185303
1046.7556241,-6.15999984741211
1046.7712491,-28.9599990844727
1046.7868741,-48.7400016784668
1046.8024991,-63.5
1046.8181241,-72.9599990844727
1046.8337491,-78.4700012207031
1046.8493741,-82.2699966430664
1046.8649991,-86.25
1046.8806241,-91.0400009155273
1046.8962491,-96.2300033569336
1046.9118741,-101.150001525879
1046.9274991,-105.349998474121
1046.9431241,-108.51000213623
1046.9587491,-110.26000213623
1046.9743741,-110.080001831055
1046.9899991,-107.599998474121
1047.0056241,-103.339996337891
1047.0212491,-98.5599975585938
1047.0368741,-94.4100036621094
1047.0524991,-91.3300018310547
1047.0681241,-89.0199966430664
1047.0837491,-86.7300033569336
1047.0993741,-83.8399963378906
1047.1149991,-80.0100021362305
1047.1306241,-74.6500015258789
1047.1462491,-66.4800033569336
1047.1618741,-53.8199996948242
1047.1774991,-35.6300010681152
1047.1931241,-12.3699998855591
1047.2087491,13.9799995422363
1047.2243741,40.6800003051758
1047.2399991,65.2600021362305
1047.2556241,86.1399993896484
1047.2712491,102.360000610352
1047.2868741,113.129997253418
1047.3024991,118.059997558594
1047.3181241,117.480003356934
1047.3337491,112.459999084473
1047.3493741,104.25
1047.3649991,93.9499969482422
1047.3806241,82.5999984741211
1047.3962491,71.2799987792969
1047.4118741,60.9599990844727
1047.4274991,52.2000007629395
1047.4431241,45.0699996948242
1047.4587491,39.3199996948242
1047.4743741,34.5299987792969
1047.4899991,30.2399997711182
1047.5056241,26.0200004577637
1047.5212491,21.5799999237061
1047.5368741,16.9599990844727
1047.5524991,12.4099998474121
1047.5681241,8.21000003814697
1047.5837491,4.55999994277954
1047.5993741,1.57000005245209
1047.6149991,-0.620000004768372
1047.6306241,-1.92999994754791
1047.6462491,-2.28999996185303
1047.6618741,-1.79999995231628
1047.6774991,-0.870000004768372
1047.6931241,0.0
1047.7087491,0.449999988079071
1047.7243741,0.469999998807907
1047.7399991,0.409999996423721
1047.7556241,1.12000000476837
1047.7712491,3.96000003814697
1047.7868741,10.4700002670288
1047.8024991,21.5499992370605
1047.8181241,36.7700004577637
1047.8337491,54.3400001525879
1047.8493741,71.7900009155273
1047.8649991,86.9100036621094
1047.8806241,98.120002746582
1047.8962491,104.449996948242
1047.9118741,105.580001831055
1047.9274991,101.849998474121
1047.9431241,94.1900024414063
1047.9587491,83.7799987792969
1047.9743741,71.7300033569336
1047.9899991,58.8300018310547
1048.0056241,45.6300010681152
1048.0212491,32.6699981689453
1048.0368741,20.5499992370605
1048.0524991,9.69999980926514
1048.0681241,0.150000005960464
1048.0837491,-8.31999969482422
1048.0993741,-15.9899997711182
1048.1149991,-22.8799991607666
1048.1306241,-28.7600002288818
1048.1462491,-33.4599990844727
1048.1618741,-37.2999992370605
1048.1774991,-41.0699996948242
1048.1931241,-45.5200004577637
1048.2087491,-51.060001373291
1048.2243741,-57.7099990844727
1048.2399991,-64.9800033569336
1048.2556241,-71.9899978637695
1048.2712491,-77.7399978637695
1048.2868741,-81.3000030517578
1048.3024991,-82.1399993896484
1048.3181241,-80.4599990844727
1048.3337491,-77.0299987792969
1048.3493741,-72.7900009155273
1048.3649991,-68.3600006103516
1048.3806241,-63.7099990844727
1048.3962491,-57.9500007629395
1048.4118741,-49.8899993896484
1048.4274991,-38.7299995422363
1048.4431241,-24.6900005340576
1048.4587491,-8.90999984741211
1048.4743741,6.92000007629395
1048.4899991,21.1900005340576
1048.5056241,32.810001373291
1048.5212491,41.2999992370605
1048.5368741,46.4500007629395
1048.5524991,48.3199996948242
1048.5681241,47.189998626709
1048.5837491,43.5499992370605
1048.5993741,37.9000015258789
1048.6149991,30.4899997711182
1048.6306241,21.5200004577637
1048.6462491,11.4499998092651
1048.6618741,1.10000002384186
1048.6774991,-8.55000019073486
1048.6931241,-16.7000007629395
1048.7087491,-23.0799999237061
1048.7243741,-27.9099998474121
1048.7399991,-31.7399997711182
1048.7556241,-35.0800018310547
1048.7712491,-38.1500015258789
1048.7868741,-40.7799987792969
1048.8024991,-42.6399993896484
1048.8181241,-43.5499992370605
1048.8337491,-43.5499992370605
1048.8493741,-42.9099998474121
1048.8649991,-42.1500015258789
1048.8806241,-41.6699981689453
1048.8962491,-41.4300003051758
1048.9118741,-41.0200004577637
1048.9274991,-40.060001373291
1048.9431241,-38.5200004577637
1048.9587491,-36.7599983215332
1048.9743741,-35.1199989318848
1048.9899991,-33.7000007629395
1049.0056241,-32.1199989318848
1049.0212491,-29.3799991607666
1049.0368741,-24.0300006866455
1049.0524991,-14.9300003051758
1049.0681241,-2.04999995231628
1049.0837491,13.4300003051758
1049.0993741,29.7000007629395
1049.1149991,45.0099983215332
1049.1306241,58.0999984741211
1049.1462491,68.120002746582
1049.1618741,74.6399993896484
1049.1774991,77.6900024414063
1049.1931241,77.7399978637695
1049.2087491,75.4100036621094
1049.2243741,71.2099990844727
1049.2399991,65.4899978637695
1049.2556241,58.4000015258789
1049.2712491,50.0299987792969
1049.2868741,40.6300010681152
1049.3024991,30.75
1049.3181241,21.1499996185303
1049.3337491,12.4499998092651
1049.3493741,4.90000009536743
1049.3649991,-1.50999999046326
1049.3806241,-6.92000007629395
1049.3962491,-11.3900003433228
1049.4118741,-15.039999961853
1049.4274991,-18.0599994659424
1049.4431241,-20.6900005340576
1049.4587491,-23.1000003814697
1049.4743741,-25.4200000762939
1049.4899991,-27.7099990844727
1049.5056241,-30.0499992370605
1049.5212491,-32.4199981689453
1049.5368741,-34.560001373291
1049.5524991,-36.1199989318848
1049.5681241,-36.9199981689453
1049.5837491,-37.0200004577637
1049.5993741,-36.6399993896484
1049.6149991,-36.1199989318848
1049.6306241,-35.689998626709
1049.6462491,-35.2599983215332
1049.6618741,-34.4099998474121
1049.6774991,-32.5499992370605
1049.6931241,-29.0200004577637
1049.7087491,-23.0599994659424
1049.7243741,-14.0600004196167
1049.7399991,-2.05999994277954
1049.7556241,11.8299999237061
1049.7712491,25.7600002288818
1049.7868741,38.1599998474121
1049.8024991,48.439998626709
1049.8181241,56.7900009155273
1049.8337491,63.5
1049.8493741,68.5899963378906
1049.8649991,71.8099975585938
1049.8806241,72.9100036621094
1049.8962491,71.7799987792969
1049.9118741,68.3499984741211
1049.9274991,62.7099990844727
1049.9431241,55.1699981689453
1049.9587491,46.310001373291
1049.9743741,36.8600006103516
1049.9899991,27.6000003814697
1050.0056241,19.1000003814697
1050.0212491,11.5799999237061
1050.0368741,4.92000007629395
1050.0524991,-0.980000019073486
1050.0681241,-6.15000009536743
1050.0837491,-10.539999961853
1050.0993741,-14.2299995422363
1050.1149991,-17.4599990844727
1050.1306241,-20.5499992370605
1050.1462491,-23.8299999237061
1050.1618741,-27.4599990844727
1050.1774991,-31.2900009155273
1050.1931241,-34.939998626709
1050.2087491,-37.9900016784668
1050.2243741,-40.2700004577637
1050.2399991,-41.7200012207031
1050.2556241,-42.2299995422363
1050.2712491,-41.7599983215332
1050.2868741,-40.7000007629395
1050.3024991,-39.689998626709
1050.3181241,-39.0800018310547
1050.3337491,-38.810001373291
1050.3493741,-38.5499992370605
1050.3649991,-38.0200004577637
1050.3806241,-37.0
1050.3962491,-35.3199996948242
1050.4118741,-32.560001373291
1050.4274991,-27.8999996185303
1050.4431241,-20.4500007629395
1050.4587491,-9.89000034332275
1050.4743741,3.22000002861023
1050.4899991,17.5499992370605
1050.5056241,31.4099998474121
1050.5212491,43.4099998474121
1050.5368741,53.0
1050.5524991,60.2000007629395
1050.5681241,65.0
1050.5837491,67.3300018310547
1050.5993741,67.2300033569336
1050.6149991,64.9000015258789
1050.6306241,60.5200004577637
1050.6462491,54.1599998474121
1050.6618741,46.0800018310547
1050.6774991,36.8199996948242
1050.6931241,27.1000003814697
1050.7087491,17.6800003051758
1050.7243741,9.17000007629395
1050.7399991,1.87999999523163
1050.7556241,-4.28999996185303
1050.7712491,-9.71000003814697
1050.7868741,-14.6400003433228
1050.8024991,-19.1499996185303
1050.8181241,-23.1900005340576
1050.8337491,-26.7600002288818
1050.8493741,-29.9099998474121
1050.8649991,-32.7599983215332
1050.8806241,-35.3400001525879
1050.8962491,-37.7299995422363
1050.9118741,-40.0400009155273
1050.9274991,-42.2700004577637
1050.9431241,-44.2400016784668
1050.9587491,-45.7299995422363
1050.9743741,-46.5800018310547
1050.9899991,-46.7799987792969
1051.0056241,-46.4900016784668
1051.0212491,-45.8699989318848
1051.0368741,-45.0699996948242
1051.0524991,-44.1100006103516
1051.0681241,-42.8899993896484
1051.0837491,-41.25
1051.0993741,-38.9099998474121
1051.1149991,-35.3300018310547
1051.1306241,-29.5900001525879
1051.1462491,-20.6800003051758
1051.1618741,-8.26000022888184
1051.1774991,6.57000017166138
1051.1931241,21.8099994659424
1051.2087491,35.4900016784668
1051.2243741,46.4099998474121
1051.2399991,54.3499984741211
1051.2556241,59.689998626709
1051.2712491,62.8899993896484
1051.2868741,64.2600021362305
1051.3024991,63.8499984741211
1051.3181241,61.4799995422363
1051.3337491,56.8800010681152
1051.3493741,50.0999984741211
1051.3649991,41.7799987792969
1051.3806241,32.8899993896484
1051.3962491,24.2000007629395
1051.4118741,16.1200008392334
1051.4274991,8.84000015258789
1051.4431241,2.41000008583069
1051.4587491,-3.10999989509583
1051.4743741,-7.69000005722046
1051.4899991,-11.3699998855591
1051.5056241,-14.3599996566772
1051.5212491,-16.9300003051758
1051.5368741,-19.3999996185303
1051.5524991,-21.8999996185303
1051.5681241,-24.3400001525879
1051.5837491,-26.6200008392334
1051.5993741,-28.7099990844727
1051.6149991,-30.6599998474121
1051.6306241,-32.5299987792969
1051.6462491,-34.2999992370605
1051.6618741,-35.8400001525879
1051.6774991,-36.8899993896484
1051.6931241,-37.2599983215332
1051.7087491,-36.9300003051758
1051.7243741,-36.0
1051.7399991,-34.6300010681152
1051.7556241,-32.8499984741211
1051.7712491,-30.2800006866455
1051.7868741,-25.9699993133545
1051.8024991,-18.7999992370605
1051.8181241,-8.27000045776367
1051.8337491,5.01000022888184
1051.8493741,19.6000003814697
1051.8649991,33.75
1051.8806241,46.1599998474121
1051.8962491,56.2799987792969
1051.9118741,64.0100021362305
1051.9274991,69.25
1051.9431241,71.7399978637695
1051.9587491,71.3000030517578
1051.9743741,68.0
1051.9899991,62.189998626709
1052.0056241,54.3699989318848
1052.0212491,45.1300010681152
1052.0368741,35.0200004577637
1052.0524991,24.6800003051758
1052.0681241,14.8100004196167
1052.0837491,6.0
1052.0993741,-1.45000004768372
1052.1149991,-7.55000019073486
1052.1306241,-12.4399995803833
1052.1462491,-16.4599990844727
1052.1618741,-20.0200004577637
1052.1774991,-23.4200000762939
1052.1931241,-26.6800003051758
1052.2087491,-29.6499996185303
1052.2243741,-32.2700004577637
1052.2399991,-34.6199989318848
1052.2556241,-36.8199996948242
1052.2712491,-38.8800010681152
1052.2868741,-40.75
1052.3024991,-42.3400001525879
1052.3181241,-43.5699996948242
1052.3337491,-44.3499984741211
1052.3493741,-44.6500015258789
1052.3649991,-44.4599990844727
1052.3806241,-43.8499984741211
1052.3962491,-42.9300003051758
1052.4118741,-41.5099983215332
1052.4274991,-38.8899993896484
1052.4431241,-33.939998626709
1052.4587491,-25.6700000762939
1052.4743741,-13.8299999237061
1052.4899991,0.829999983310699
1052.5056241,16.7600002288818
1052.5212491,32.2299995422363
1052.5368741,46.0
1052.5524991,57.3499984741211
1052.5681241,65.8000030517578
1052.5837491,71.1100006103516
1052.5993741,73.3499984741211
1052.6149991,72.8000030517578
1052.6306241,69.7300033569336
1052.6462491,64.3000030517578
1052.6618741,56.6699981689453
1052.6774991,47.2000007629395
1052.6931241,36.4599990844727
1052.7087491,25.25
1052.7243741,14.4899997711182
1052.7399991,4.96999979019165
1052.7556241,-2.85999989509583
1052.7712491,-9.02000045776367
1052.7868741,-13.8999996185303
1052.8024991,-18.0599994659424
1052.8181241,-21.8700008392334
1052.8337491,-25.4200000762939
1052.8493741,-28.6700000762939
1052.8649991,-31.6299991607666
1052.8806241,-34.3899993896484
1052.8962491,-37.0900001525879
1052.9118741,-39.7400016784668
1052.9274991,-42.1599998474121
1052.9431241,-44.1300010681152
1052.9587491,-45.5
1052.9743741,-46.2599983215332
1052.9899991,-46.4099998474121
1053.0056241,-45.9799995422363
1053.0212491,-45.0999984741211
1053.0368741,-43.9199981689453
1053.0524991,-42.3899993896484
1053.0681241,-40.2400016784668
1053.0837491,-36.9799995422363
1053.0993741,-31.7999992370605
1053.1149991,-23.75
1053.1306241,-12.2399997711182
1053.1462491,2.40000009536743
1053.1618741,19.0900001525879
1053.1774991,36.0800018310547
1053.1931241,51.3300018310547
1053.2087491,63.2200012207031
1053.2243741,71.0999984741211
1053.2399991,75.1699981689453
1053.2556241,76.0199966430664
1053.2712491,74.2300033569336
1053.2868741,70.2600021362305
1053.3024991,64.3899993896484
1053.3181241,56.7799987792969
1053.3337491,47.5900001525879
1053.3493741,37.2299995422363
1053.3649991,26.3500003814697
1053.3806241,15.710000038147
1053.3962491,6.05000019073486
1053.4118741,-2.20000004768372
1053.4274991,-9.01000022888184
1053.4431241,-14.5600004196167
1053.4587491,-19.1299991607666
1053.4743741,-23.0300006866455
1053.4899991,-26.5699996948242
1053.5056241,-29.8500003814697
1053.5212491,-32.7599983215332
1053.5368741,-34.9799995422363
1053.5524991,-36.3899993896484
1053.5681241,-37.310001373291
1053.5837491,-38.310001373291
1053.5993741,-39.6800003051758
1053.6149991,-41.2900009155273
1053.6306241,-42.75
1053.6462491,-43.6699981689453
1053.6618741,-43.8800010681152
1053.6774991,-43.560001373291
1053.6931241,-43.0299987792969
1053.7087491,-42.4000015258789
1053.7243741,-41.4000015258789
1053.7399991,-39.3600006103516
1053.7556241,-35.310001373291
1053.7712491,-28.2299995422363
1053.7868741,-17.5699996948242
1053.8024991,-3.50999999046326
1053.8181241,13.1499996185303
1053.8337491,30.8899993896484
1053.8493741,47.5999984741211
1053.8649991,61.3400001525879
1053.8806241,71.0699996948242
1053.8962491,76.6800003051758
1053.9118741,78.6900024414063
1053.9274991,77.9100036621094
1053.9431241,75.0400009155273
1053.9587491,70.3399963378906
1053.9743741,63.7999992370605
1053.9899991,55.4500007629395
1054.0056241,45.5900001525879
1054.0212491,34.7999992370605
1054.0368741,23.8500003814697
1054.0524991,13.460000038147
1054.0681241,4.19000005722046
1054.0837491,-3.73000001907349
1054.0993741,-10.3299999237061
1054.1149991,-15.8199996948242
1054.1306241,-20.5100002288818
1054.1462491,-24.6700000762939
1054.1618741,-28.4599990844727
1054.1774991,-32.0200004577637
1054.1931241,-35.4199981689453
1054.2087491,-38.5299987792969
1054.2243741,-41.1399993896484
1054.2399991,-42.9500007629395
1054.2556241,-43.7799987792969
1054.2712491,-43.6599998474121
1054.2868741,-42.8800010681152
1054.3024991,-41.8199996948242
1054.3181241,-40.8199996948242
1054.3337491,-40.0099983215332
1054.3493741,-39.2200012207031
1054.3649991,-38.1199989318848
1054.3806241,-36.3300018310547
