Time(s),Value(%)
843.0066418,127.029998779297
843.0222668,127.589996337891
843.0378918,126.870002746582
843.0535168,123.98999786377
843.0691418,118.730003356934
843.0847668,111.540000915527
843.1003918,103.190002441406
843.1160168,94.379997253418
843.1316418,85.5800018310547
843.1472668,77.0500030517578
843.1628918,68.8199996948242
843.1785168,60.75
843.1941418,52.5200004577637
843.2097668,43.8699989318848
843.2253918,34.7999992370605
843.2410168,25.8400001525879
843.2566418,17.8600006103516
843.2722668,11.6899995803833
843.2878918,7.53000020980835
843.3035168,5.05000019073486
843.3191418,3.79999995231628
843.3347668,3.83999991416931
843.3503918,5.65000009536743
843.3660168,9.48999977111816
843.3816418,14.6800003051758
843.3972668,19.8600006103516
843.4128918,23.8099994659424
843.4285168,26.0699996948242
843.4441418,26.8899993896484
843.4597668,26.8700008392334
843.4753918,26.4899997711182
843.4910168,26.0100002288818
843.5066418,25.4799995422363
843.5222668,24.9200000762939
843.5378918,24.4699993133545
843.5535168,24.2700004577637
843.5691418,24.3099994659424
843.5847668,24.0599994659424
843.6003918,22.5799999237061
843.6160168,19.0
843.6316418,13.1300001144409
843.6472668,5.53000020980835
843.6628918,-2.97000002861023
843.6785168,-11.6300001144409
843.6941418,-20.0
843.7097668,-27.8700008392334
843.7253918,-35.2799987792969
843.7410168,-42.4099998474121
843.7566418,-49.6500015258789
843.7722668,-57.2999992370605
843.7878918,-65.3899993896484
843.8035168,-73.6699981689453
843.8191418,-81.7600021362305
843.8347668,-89.379997253418
843.8503918,-96.3300018310547
843.8660168,-102.459999084473
843.8816418,-107.5
843.8972668,-110.910003662109
843.9128918,-112.050003051758
843.9285168,-110.559997558594
843.9441418,-106.690002441406
843.9597668,-101.0
843.9753918,-93.8899993896484
843.9910168,-85.5400009155273
844.0066418,-76.2799987792969
844.0222668,-66.9800033569336
844.0378918,-58.8600006103516
844.0535168,-52.8499984741211
844.0691418,-48.9000015258789
844.0847668,-46.4099998474121
844.1003918,-44.9500007629395
844.1160168,-44.5400009155273
844.1316418,-45.25
844.1472668,-46.9099998474121
844.1628918,-49.1399993896484
844.1785168,-51.6199989318848
844.1941418,-54.2999992370605
844.2097668,-57.3199996948242
844.2253918,-60.7599983215332
844.2410168,-64.6100006103516
844.2566418,-68.8000030517578
844.2722668,-73.2200012207031
844.2878918,-77.75
844.3035168,-82.2699966430664
844.3191418,-85.5199966430664
844.3347668,-88.870002746582
844.3503918,-92.620002746582
844.3660168,-96.9000015258789
844.3816418,-101.480003356934
844.3972668,-105.839996337891
844.4128918,-109.540000915527
844.4285168,-112.379997253418
844.4441418,-114.389999389648
844.4597668,-115.540000915527
844.4753918,-115.529998779297
844.4910168,-114.050003051758
844.5066418,-111.050003051758
844.5222668,-106.690002441406
844.5378918,-101.080001831055
844.5535168,-94.2600021362305
844.5691418,-86.5199966430664
844.5847668,-78.4300003051758
844.6003918,-70.6900024414063
844.6160168,-63.75
844.6316418,-57.5400009155273
844.6472668,-51.8499984741211
844.6628918,-46.7700004577637
844.6785168,-42.6500015258789
844.6941418,-39.7400016784668
844.7097668,-37.8800010681152
844.7253918,-36.689998626709
844.7410168,-35.8300018310547
844.7566418,-35.2099990844727
844.7722668,-34.9500007629395
844.7878918,-35.1399993896484
844.8035168,-35.7799987792969
844.8191418,-36.810001373291
844.8347668,-38.1599998474121
844.8503918,-39.689998626709
844.8660168,-41.2799987792969
844.8816418,-42.8600006103516
844.8972668,-44.5299987792969
844.9128918,-46.5
844.9285168,-48.9099998474121
844.9441418,-51.5999984741211
844.9597668,-54.2000007629395
844.9753918,-56.3499984741211
844.9910168,-57.8699989318848
845.0066418,-58.8199996948242
845.0222668,-59.2599983215332
845.0378918,-59.1699981689453
845.0535168,-58.4500007629395
845.0691418,-57.0499992370605
845.0847668,-54.8699989318848
845.1003918,-51.6399993896484
845.1160168,-47.0999984741211
845.1316418,-41.310001373291
845.1472668,-34.7000007629395
845.1628918,-27.7800006866455
845.1785168,-20.8099994659424
845.1941418,-13.6999998092651
845.2097668,-6.3899998664856
845.2253918,0.709999978542328
845.2410168,6.94999980926514
845.2566418,11.8500003814697
845.2722668,15.4300003051758
845.2878918,18.1000003814697
845.3035168,20.2600002288818
845.3191418,22.1000003814697
845.3347668,23.5200004577637
845.3503918,24.4200000762939
845.3660168,24.8099994659424
845.3816418,24.7999992370605
845.3972668,24.5200004577637
845.4128918,24.0900001525879
845.4285168,23.5499992370605
845.4441418,22.7999992370605
845.4597668,21.6200008392334
845.4753918,19.7900009155273
845.4910168,17.2700004577637
845.5066418,14.289999961853
845.5222668,11.25
845.5378918,8.51000022888184
845.5535168,6.26000022888184
845.5691418,4.44000005722046
845.5847668,2.86999988555908
845.6003918,1.29999995231628
845.6160168,-0.479999989271164
845.6316418,-2.45000004768372
845.6472668,-4.28000020980835
845.6628918,-5.36999988555908
845.6785168,-5.19000005722046
845.6941418,-3.59999990463257
845.7097668,-0.800000011920929
845.7253918,2.99000000953674
845.7410168,7.78999996185303
845.7566418,13.7700004577637
845.7722668,20.8299999237061
845.7878918,28.2999992370605
845.8035168,35.2099990844727
845.8191418,40.8699989318848
845.8347668,45.1399993896484
845.8503918,48.3699989318848
845.8660168,50.9799995422363
845.8816418,53.1599998474121
845.8972668,54.9000015258789
845.9128918,56.1399993896484
845.9285168,56.9099998474121
845.9441418,57.3499984741211
845.9597668,57.6100006103516
845.9753918,57.7999992370605
845.9910168,57.8400001525879
846.0066418,57.4799995422363
846.0222668,56.3800010681152
846.0378918,54.3400001525879
846.0535168,51.4000015258789
846.0691418,47.8800010681152
846.0847668,44.189998626709
846.1003918,40.6800003051758
846.1160168,37.5400009155273
846.1316418,34.7400016784668
846.1472668,32.1100006103516
846.1628918,29.3400001525879
846.1785168,26.2000007629395
846.1941418,22.6800003051758
846.2097668,19.1599998474121
846.2253918,16.2399997711182
846.2410168,14.4700002670288
846.2566418,14.0200004577637
846.2722668,14.75
846.2878918,16.5300006866455
846.3035168,19.4200000762939
846.3191418,23.8600006103516
846.3347668,29.6299991607666
846.3503918,36.1300010681152
846.3660168,42.4900016784668
846.3816418,48.1699981689453
846.3972668,53.1599998474121
846.4128918,57.689998626709
846.4285168,61.8199996948242
846.4441418,65.1699981689453
846.4597668,67.2099990844727
846.4753918,67.7300033569336
846.4910168,66.9000015258789
846.5066418,65.0699996948242
846.5222668,62.5699996948242
846.5378918,59.6800003051758
846.5535168,56.6399993896484
846.5691418,53.5999984741211
846.5847668,50.5299987792969
846.6003918,47.1800003051758
846.6160168,43.2799987792969
846.6316418,38.7599983215332
846.6472668,33.6300010681152
846.6628918,27.9300003051758
846.6785168,21.6399993896484
846.6941418,14.9399995803833
846.7097668,8.21000003814697
846.7253918,2.04999995231628
846.7410168,-3.02999997138977
846.7566418,-6.82000017166138
846.7722668,-9.34000015258789
846.7878918,-10.6700000762939
846.8035168,-10.9099998474121
846.8191418,-10.3000001907349
846.8347668,-9.17000007629395
846.8503918,-7.78000020980835
846.8660168,-5.96999979019165
846.8816418,-2.95000004768372
846.8972668,2.05999994277954
846.9128918,9.28999996185303
846.9285168,18.2399997711182
846.9441418,28.1599998474121
846.9597668,38.4099998474121
846.9753918,48.4199981689453
846.9910168,57.4000015258789
847.0066418,64.25
847.0222668,68.1100006103516
847.0378918,68.9700012207031
847.0535168,67.5599975585938
847.0691418,64.8000030517578
847.0847668,61.3699989318848
847.1003918,57.6300010681152
847.1160168,53.810001373291
847.1316418,49.9900016784668
847.1472668,46.0900001525879
847.1628918,41.9000015258789
847.1785168,37.1699981689453
847.1941418,31.8400001525879
847.2097668,25.9699993133545
847.2253918,19.5699996948242
847.2410168,12.6700000762939
847.2566418,5.3899998664856
847.2722668,-1.89999997615814
847.2878918,-8.72000026702881
847.3035168,-14.5500001907349
847.3191418,-19.2999992370605
847.3347668,-22.6700000762939
847.3503918,-24.5799999237061
847.3660168,-25.1100006103516
847.3816418,-24.5900001525879
847.3972668,-23.4899997711182
847.4128918,-22.1599998474121
847.4285168,-20.4400005340576
847.4441418,-17.4799995422363
847.4597668,-12.3500003814697
847.4753918,-4.78000020980835
847.4910168,4.76000022888184
847.5066418,15.5299997329712
847.5222668,26.8400001525879
847.5378918,38.0499992370605
847.5535168,48.1699981689453
847.5691418,55.7999992370605
847.5847668,59.7999992370605
847.6003918,60.0900001525879
847.6160168,57.5999984741211
847.6316418,53.4900016784668
847.6472668,48.5900001525879
847.6628918,43.3899993896484
847.6785168,38.1399993896484
847.6941418,32.9199981689453
847.7097668,27.6200008392334
847.7253918,21.8999996185303
847.7410168,15.4099998474121
847.7566418,8.07999992370605
847.7722668,0.0
847.7878918,-8.73999977111816
847.8035168,-18.1399993896484
847.8191418,-27.9799995422363
847.8347668,-37.7799987792969
847.8503918,-46.8699989318848
847.8660168,-54.5900001525879
847.8816418,-60.5800018310547
847.8972668,-64.6900024414063
847.9128918,-66.9199981689453
847.9285168,-67.4400024414063
847.9441418,-66.6399993896484
847.9597668,-65.0899963378906
847.9753918,-63.2299995422363
847.9910168,-60.8499984741211
848.0066418,-56.9900016784668
848.0222668,-50.5699996948242
848.0378918,-41.3300018310547
848.0535168,-29.8199996948242
848.0691418,-16.8899993896484
848.0847668,-3.29999995231628
848.1003918,10.2200002670288
848.1160168,22.5699996948242
848.1316418,32.1199989318848
848.1472668,37.5999984741211
848.1628918,38.9599990844727
848.1785168,37.2200012207031
848.1941418,33.6199989318848
848.2097668,29.0599994659424
848.2253918,24.0400009155273
848.2410168,18.8700008392334
848.2566418,13.7299995422363
848.2722668,8.60000038146973
848.2878918,3.24000000953674
848.3035168,-2.60999989509583
848.3191418,-9.14000034332275
848.3347668,-16.3199996948242
848.3503918,-24.1599998474121
848.3660168,-32.6699981689453
848.3816418,-41.689998626709
848.3972668,-50.810001373291
848.4128918,-59.4500007629395
848.4285168,-67.0899963378906
848.4441418,-73.4499969482422
848.4597668,-78.4000015258789
848.4753918,-81.7699966430664
848.4910168,-83.0599975585938
848.5066418,-81.5699996948242
848.5222668,-76.879997253418
848.5378918,-69.370002746582
848.5535168,-60.2200012207031
848.5691418,-50.7599983215332
848.5847668,-41.689998626709
848.6003918,-32.810001373291
848.6160168,-23.7399997711182
848.6316418,-14.9300003051758
848.6472668,-7.46999979019165
848.6628918,-2.1800000667572
848.6785168,0.899999976158142
848.6941418,2.44000005722046
848.7097668,3.07999992370605
848.7253918,3.04999995231628
848.7410168,2.17000007629395
848.7566418,0.300000011920929
848.7722668,-2.47000002861023
848.7878918,-5.94000005722046
848.8035168,-9.8100004196167
848.8191418,-13.8500003814697
848.8347668,-17.9799995422363
848.8503918,-22.3600006103516
848.8660168,-27.3799991607666
848.8816418,-33.439998626709
848.8972668,-40.5999984741211
848.9128918,-48.439998626709
848.9285168,-56.189998626709
848.9441418,-63.1800003051758
848.9597668,-69.129997253418
848.9753918,-74.1100006103516
848.9910168,-78.379997253418
849.0066418,-82.1900024414063
849.0222668,-85.6800003051758
849.0378918,-88.7900009155273
849.0535168,-90.9899978637695
849.0691418,-91.3199996948242
849.0847668,-88.8899993896484
849.1003918,-83.5899963378906
849.1160168,-76.0899963378906
849.1316418,-67.1699981689453
849.1472668,-57.0999984741211
849.1628918,-45.560001373291
849.1785168,-32.5099983215332
849.1941418,-18.9799995422363
849.2097668,-6.71999979019165
849.2253918,2.97000002861023
849.2410168,9.94999980926514
849.2566418,14.9200000762939
849.2722668,18.7099990844727
849.2878918,21.7099990844727
849.3035168,23.8400001525879
849.3191418,25.0799999237061
849.3347668,25.3899993896484
849.3503918,25.0499992370605
849.3660168,24.3799991607666
849.3816418,23.5900001525879
849.3972668,22.5900001525879
849.4128918,20.8700008392334
849.4285168,17.7800006866455
849.4441418,12.8900003433228
849.4597668,6.30000019073486
849.4753918,-1.35000002384186
849.4910168,-9.17000007629395
849.5066418,-16.4300003051758
849.5222668,-22.7900009155273
849.5378918,-28.2999992370605
849.5535168,-33.310001373291
849.5691418,-38.3400001525879
849.5847668,-43.7599983215332
849.6003918,-49.5400009155273
849.6160168,-54.9500007629395
849.6316418,-58.7299995422363
849.6472668,-59.7400016784668
849.6628918,-57.6800003051758
849.6785168,-53.0499992370605
849.6941418,-46.4000015258789
849.7097668,-37.7900009155273
849.7253918,-26.8099994659424
849.7410168,-13.5100002288818
849.7566418,0.829999983310699
849.7722668,14.1999998092651
849.7878918,25.0699996948242
849.8035168,33.1100006103516
849.8191418,38.9900016784668
849.8347668,43.5400009155273
849.8503918,47.1699981689453
849.8660168,49.8400001525879
849.8816418,51.4300003051758
849.8972668,52.0
849.9128918,51.7799987792969
849.9285168,51.060001373291
849.9441418,50.0499992370605
849.9597668,48.6399993896484
849.9753918,46.3400001525879
849.9910168,42.4500007629395
850.0066418,36.4900016784668
850.0222668,28.5799999237061
850.0378918,19.4899997711182
850.0535168,10.2799997329712
850.0691418,1.79999995231628
850.0847668,-5.55999994277954
850.1003918,-11.9399995803833
850.1160168,-17.8899993896484
850.1316418,-24.2099990844727
850.1472668,-31.5300006866455
850.1628918,-39.8600006103516
850.1785168,-48.3899993896484
850.1941418,-55.7599983215332
850.2097668,-60.7999992370605
850.2253918,-63.0800018310547
850.2410168,-62.7299995422363
850.2566418,-59.7400016784668
850.2722668,-53.689998626709
850.2878918,-44.0200004577637
850.3035168,-30.9400005340576
850.3191418,-15.9700002670288
850.3347668,-1.20000004768372
850.3503918,11.6099996566772
850.3660168,21.9099998474121
850.3816418,30.0900001525879
850.3972668,36.9099998474121
850.4128918,42.8400001525879
850.4285168,47.9500007629395
850.4441418,52.1800003051758
850.4597668,55.5900001525879
850.4753918,58.3300018310547
850.4910168,60.6399993896484
850.5066418,62.6199989318848
850.5222668,64.0299987792969
850.5378918,64.1399993896484
850.5535168,62.0999984741211
850.5691418,57.4199981689453
850.5847668,50.3699989318848
850.6003918,41.8499984741211
850.6160168,32.9900016784668
850.6316418,24.7000007629395
850.6472668,17.3799991607666
850.6628918,10.960000038147
850.6785168,4.8600001335144
850.6941418,-1.75
850.7097668,-9.5600004196167
850.7253918,-18.6299991607666
850.7410168,-28.2800006866455
850.7566418,-37.4099998474121
850.7722668,-45.1100006103516
850.7878918,-50.9300003051758
850.8035168,-54.6699981689453
850.8191418,-55.8499984741211
850.8347668,-53.6599998474121
850.8503918,-47.3600006103516
850.8660168,-37.0400009155273
850.8816418,-23.9300003051758
850.8972668,-9.73999977111816
850.9128918,4.36999988555908
850.9285168,18.1000003814697
850.9441418,31.4400005340576
850.9597668,43.9799995422363
850.9753918,54.6300010681152
850.9910168,62.2799987792969
851.0066418,66.6100006103516
851.0222668,68.120002746582
851.0378918,67.5100021362305
851.0535168,65.370002746582
851.0691418,62.2099990844727
851.0847668,58.5099983215332
851.1003918,54.6500015258789
851.1160168,50.6500015258789
851.1316418,46.0900001525879
851.1472668,40.4500007629395
851.1628918,33.5200004577637
851.1785168,25.3199996948242
851.1941418,15.789999961853
851.2097668,4.8600001335144
851.2253918,-7.15000009536743
851.2410168,-19.3999996185303
851.2566418,-30.6800003051758
851.2722668,-40.2999992370605
851.2878918,-48.5299987792969
851.3035168,-56.0299987792969
851.3191418,-62.9799995422363
851.3347668,-68.870002746582
851.3503918,-73.1600036621094
851.3660168,-75.7900009155273
851.3816418,-76.9899978637695
851.3972668,-76.4899978637695
851.4128918,-73.0800018310547
851.4285168,-65.4300003051758
851.4441418,-53.2700004577637
851.4597668,-37.5200004577637
851.4753918,-19.4400005340576
851.4910168,-0.0900000035762787
851.5066418,19.5100002288818
851.5222668,38.1199989318848
851.5378918,54.1100006103516
851.5535168,66.3000030517578
851.5691418,74.6100006103516
851.5847668,79.8000030517578
851.6003918,82.6100006103516
851.6160168,83.4100036621094
851.6316418,82.5299987792969
851.6472668,80.4800033569336
851.6628918,77.8099975585938
851.6785168,74.8099975585938
851.6941418,71.2600021362305
851.7097668,66.7600021362305
851.7253918,61.1100006103516
851.7410168,54.310001373291
851.7566418,46.3600006103516
851.7722668,37.2900009155273
851.7878918,27.3600006103516
851.8035168,17.25
851.8191418,7.78000020980835
851.8347668,-0.730000019073486
851.8503918,-8.72999954223633
851.8660168,-16.9300003051758
851.8816418,-25.3700008392334
851.8972668,-33.4000015258789
851.9128918,-40.2599983215332
851.9285168,-45.6500015258789
851.9441418,-49.5900001525879
851.9597668,-51.7900009155273
851.9753918,-51.2099990844727
851.9910168,-46.7299995422363
852.0066418,-38.1800003051758
852.0222668,-26.2700004577637
852.0378918,-11.9399995803833
852.0535168,4.05999994277954
852.0691418,20.9099998474121
852.0847668,37.4099998474121
852.1003918,52.060001373291
852.1160168,63.810001373291
852.1316418,72.620002746582
852.1472668,79.0599975585938
852.1628918,83.4100036621094
852.1785168,85.629997253418
852.1941418,85.7600021362305
852.2097668,84.2600021362305
852.2253918,81.8300018310547
852.2410168,78.9100036621094
852.2566418,75.4199981689453
852.2722668,70.9800033569336
852.2878918,65.370002746582
852.3035168,58.6199989318848
852.3191418,50.8499984741211
852.3347668,42.1199989318848
852.3503918,32.7299995422363
852.3660168,23.2299995422363
852.3816418,14.2299995422363
852.3972668,5.88000011444092
852.4128918,-2.33999991416931
852.4285168,-11.1400003433228
852.4441418,-20.5
852.4597668,-29.7199993133545
852.4753918,-37.9900016784668
852.4910168,-44.8800010681152
852.5066418,-50.3600006103516
852.5222668,-54.2799987792969
852.5378918,-55.9599990844727
852.5535168,-54.6399993896484
852.5691418,-50.2000007629395
852.5847668,-43.060001373291
852.6003918,-33.7000007629395
852.6160168,-22.4699993133545
852.6316418,-9.93000030517578
852.6472668,2.94000005722046
852.6628918,15.0
852.6785168,25.4899997711182
852.6941418,34.3800010681152
852.7097668,41.9300003051758
852.7253918,47.9799995422363
852.7410168,52.0400009155273
852.7566418,53.8800010681152
852.7722668,53.8800010681152
852.7878918,52.7700004577637
852.8035168,51.0699996948242
852.8191418,48.7200012207031
852.8347668,45.3499984741211
852.8503918,40.7299995422363
852.8660168,34.8600006103516
852.8816418,27.7700004577637
852.8972668,19.5599994659424
852.9128918,10.539999961853
852.9285168,1.28999996185303
852.9441418,-7.51000022888184
852.9597668,-15.6999998092651
852.9753918,-23.8199996948242
852.9910168,-32.5
853.0066418,-41.7099990844727
853.0222668,-50.7400016784668
853.0378918,-58.9000015258789
853.0535168,-65.9300003051758
853.0691418,-71.9300003051758
853.0847668,-76.8399963378906
853.1003918,-80.0800018310547
853.1160168,-80.6500015258789
853.1316418,-77.620002746582
853.1472668,-70.7099990844727
853.1628918,-60.6199989318848
853.1785168,-48.7200012207031
853.1941418,-36.439998626709
853.2097668,-24.5300006866455
853.2253918,-12.8900003433228
853.2410168,-1.27999997138977
853.2566418,9.86999988555908
853.2722668,19.6299991607666
853.2878918,27.3400001525879
853.3035168,33.0499992370605
853.3191418,37.2700004577637
853.3347668,40.4000015258789
853.3503918,42.2900009155273
853.3660168,42.5499992370605
853.3816418,41.0299987792969
853.3972668,37.9000015258789
853.4128918,33.4199981689453
853.4285168,27.8500003814697
853.4441418,21.5900001525879
853.4597668,15.1300001144409
853.4753918,8.92000007629395
853.4910168,3.22000002861023
853.5066418,-1.98000001907349
853.5222668,-7.15000009536743
853.5378918,-13.1199998855591
853.5535168,-20.6299991607666
853.5691418,-29.8199996948242
853.5847668,-40.2200012207031
853.6003918,-51.1199989318848
853.6160168,-61.9900016784668
853.6316418,-72.3199996948242
853.6472668,-81.3499984741211
853.6628918,-87.8099975585938
853.6785168,-90.2799987792969
853.6941418,-87.879997253418
853.7097668,-80.7099990844727
