Time(s),Value(%)
674.0046269,-2.59999990463257
674.0202519,-0.270000010728836
674.0358769,2.46000003814697
674.0515019,5.21999979019165
674.0671269,7.36999988555908
674.0827519,8.47000026702881
674.0983769,8.53999996185303
674.1140019,7.96999979019165
674.1296269,7.05999994277954
674.1452519,5.88000011444092
674.1608769,4.40999984741211
674.1765019,2.64000010490417
674.1921269,0.660000026226044
674.2077519,-1.46000003814697
674.2233769,-3.8199999332428
674.2390019,-6.51000022888184
674.2546269,-9.55000019073486
674.2702519,-12.7399997711182
674.2858769,-15.789999961853
674.3015019,-18.3899993896484
674.3171269,-20.4400005340576
674.3327519,-22.0400009155273
674.3483769,-23.3799991607666
674.3640019,-24.5699996948242
674.3796269,-25.5200004577637
674.3952519,-26.0900001525879
674.4108769,-26.3099994659424
674.4265019,-26.3799991607666
674.4421269,-26.5499992370605
674.4577519,-26.9300003051758
674.4733769,-27.4699993133545
674.4890019,-27.8700008392334
674.5046269,-27.6800003051758
674.5202519,-26.4799995422363
674.5358769,-24.1599998474121
674.5515019,-20.6900005340576
674.5671269,-15.8599996566772
674.5827519,-9.43000030517578
674.5983769,-1.5900000333786
674.6140019,6.71999979019165
674.6296269,14.289999961853
674.6452519,20.5499992370605
674.6608769,26.2900009155273
674.6765019,32.810001373291
674.6921269,40.4199981689453
674.7077519,48.2700004577637
674.7233769,55.1199989318848
674.7390019,60.2599983215332
674.7546269,63.689998626709
674.7702519,65.7699966430664
674.7858769,66.8099975585938
674.8015019,66.9199981689453
674.8171269,66.2099990844727
674.8327519,64.9100036621094
674.8483769,63.4199981689453
674.8640019,62.0999984741211
674.8796269,61.0
674.8952519,59.5999984741211
674.9108769,56.7900009155273
674.9265019,51.5400009155273
674.9421269,43.689998626709
674.9577519,33.9700012207031
674.9733769,23.5
674.9890019,13.2299995422363
675.0046269,3.65000009536743
675.0202519,-5.11999988555908
675.0358769,-13.2299995422363
675.0515019,-20.8199996948242
675.0671269,-27.9500007629395
675.0827519,-34.5699996948242
675.0983769,-40.6399993896484
675.1140019,-46.2000007629395
675.1296269,-51.2999992370605
675.1452519,-56.0400009155273
675.1608769,-60.4700012207031
675.1765019,-64.4199981689453
675.1921269,-67.5699996948242
675.2077519,-69.5999984741211
675.2233769,-70.4100036621094
675.2390019,-70.1100006103516
675.2546269,-68.7300033569336
675.2702519,-66.2200012207031
675.2858769,-62.6399993896484
675.3015019,-58.4300003051758
675.3171269,-54.439998626709
675.3327519,-51.5499992370605
675.3483769,-50.1500015258789
675.3640019,-50.0900001525879
675.3796269,-50.9599990844727
675.3952519,-52.3699989318848
675.4108769,-54.1399993896484
675.4265019,-56.189998626709
675.4421269,-58.4500007629395
675.4577519,-60.7999992370605
675.4733769,-63.0699996948242
675.4890019,-65.1399993896484
675.5046269,-66.9300003051758
675.5202519,-68.4300003051758
675.5358769,-69.6800003051758
675.5515019,-70.629997253418
675.5671269,-71.1699981689453
675.5827519,-71.1500015258789
675.5983769,-70.5899963378906
675.6140019,-69.7300033569336
675.6296269,-69.0400009155273
675.6452519,-68.8899993896484
675.6608769,-69.4100036621094
675.6765019,-70.4400024414063
675.6921269,-71.8099975585938
675.7077519,-73.370002746582
675.7233769,-74.9899978637695
675.7390019,-76.5699996948242
675.7546269,-77.9499969482422
675.7702519,-78.879997253418
675.7858769,-79.0100021362305
675.8015019,-78.0500030517578
675.8171269,-75.9599990844727
675.8327519,-72.9300003051758
675.8483769,-69.120002746582
675.8640019,-64.6399993896484
675.8796269,-59.689998626709
675.8952519,-54.689998626709
675.9108769,-50.2400016784668
675.9265019,-46.75
675.9421269,-44.1599998474121
675.9577519,-42.0999984741211
675.9733769,-40.3300018310547
675.9890019,-38.8199996948242
676.0046269,-37.6599998474121
676.0202519,-36.8300018310547
676.0358769,-36.2000007629395
676.0515019,-35.5499992370605
676.0671269,-34.7000007629395
676.0827519,-33.5200004577637
676.0983769,-32.0
676.1140019,-30.2600002288818
676.1296269,-28.4400005340576
676.1452519,-26.6299991607666
676.1608769,-24.8799991607666
676.1765019,-23.1800003051758
676.1921269,-21.5200004577637
676.2077519,-19.8600006103516
676.2233769,-18.1800003051758
676.2390019,-16.3899993896484
676.2546269,-14.3299999237061
676.2702519,-11.8500003814697
676.2858769,-8.97000026702881
676.3015019,-5.98000001907349
676.3171269,-3.33999991416931
676.3327519,-1.4099999666214
676.3483769,-0.140000000596046
676.3640019,0.779999971389771
676.3796269,1.6599999666214
676.3952519,2.69000005722046
676.4108769,4.11999988555908
676.4265019,6.15000009536743
676.4421269,8.81999969482422
676.4577519,11.8599996566772
676.4733769,14.789999961853
676.4890019,17.3199996948242
676.5046269,19.5200004577637
676.5202519,21.6000003814697
676.5358769,23.5900001525879
676.5515019,25.2800006866455
676.5671269,26.4599990844727
676.5827519,27.1000003814697
676.5983769,27.3799991607666
676.6140019,27.5100002288818
676.6296269,27.6399993896484
676.6452519,27.8400001525879
676.6608769,28.0900001525879
676.6765019,28.3500003814697
676.6921269,28.6299991607666
676.7077519,28.9500007629395
676.7233769,29.2999992370605
676.7390019,29.5599994659424
676.7546269,29.4599990844727
676.7702519,28.75
676.7858769,27.2800006866455
676.8015019,25.1700000762939
676.8171269,22.6900005340576
676.8327519,20.1599998474121
676.8483769,17.8099994659424
676.8640019,15.75
676.8796269,13.9700002670288
676.8952519,12.3199996948242
676.9108769,10.5500001907349
676.9265019,8.44999980926514
676.9421269,5.98999977111816
676.9577519,3.22000002861023
676.9733769,0.180000007152557
676.9890019,-3.07999992370605
677.0046269,-6.48999977111816
677.0202519,-9.75
677.0358769,-12.4099998474121
677.0515019,-14.1599998474121
677.0671269,-15.0
677.0827519,-15.1400003433228
677.0983769,-14.789999961853
677.1140019,-14.0299997329712
677.1296269,-12.8999996185303
677.1452519,-11.4499998092651
677.1608769,-9.81999969482422
677.1765019,-8.10000038146973
677.1921269,-6.36999988555908
677.2077519,-4.65000009536743
677.2233769,-2.91000008583069
677.2390019,-1.1599999666214
677.2546269,0.560000002384186
677.2702519,2.25
677.2858769,3.88000011444092
677.3015019,5.5
677.3171269,7.19999980926514
677.3327519,9.0
677.3483769,10.7299995422363
677.3640019,12.1700000762939
677.3796269,13.1999998092651
677.3952519,13.7700004577637
677.4108769,13.8500003814697
677.4265019,13.4200000762939
677.4421269,12.5799999237061
677.4577519,11.6000003814697
677.4733769,10.8900003433228
677.4890019,10.6400003433228
677.5046269,10.75
677.5202519,10.9200000762939
677.5358769,11.0699996948242
677.5515019,11.3400001525879
677.5671269,11.9300003051758
677.5827519,12.9099998474121
677.5983769,14.1899995803833
677.6140019,15.5500001907349
677.6296269,16.7600002288818
677.6452519,17.6499996185303
677.6608769,18.1800003051758
677.6765019,18.3899993896484
677.6921269,18.2399997711182
677.7077519,17.7000007629395
677.7233769,16.8600006103516
677.7390019,16.0200004577637
677.7546269,15.6999998092651
677.7702519,16.2999992370605
677.7858769,17.8199996948242
677.8015019,19.9500007629395
677.8171269,22.3600006103516
677.8327519,24.9200000762939
677.8483769,27.5799999237061
677.8640019,30.2999992370605
677.8796269,33.0299987792969
677.8952519,35.6699981689453
677.9108769,38.1500015258789
677.9265019,40.4000015258789
677.9421269,42.4300003051758
677.9577519,44.2000007629395
677.9733769,45.6599998474121
677.9890019,46.7299995422363
678.0046269,47.4300003051758
678.0202519,47.9500007629395
678.0358769,48.560001373291
678.0515019,49.4500007629395
678.0671269,50.5200004577637
678.0827519,51.5900001525879
678.0983769,52.5200004577637
678.1140019,53.3499984741211
678.1296269,54.2000007629395
678.1452519,55.1300010681152
678.1608769,56.0999984741211
678.1765019,56.9300003051758
678.1921269,57.3199996948242
678.2077519,57.0099983215332
678.2233769,55.9500007629395
678.2390019,54.2099990844727
678.2546269,51.8899993896484
678.2702519,49.0
678.2858769,45.7200012207031
678.3015019,42.4500007629395
678.3171269,39.7999992370605
678.3327519,38.1699981689453
678.3483769,37.4300003051758
678.3640019,37.0999984741211
678.3796269,36.8300018310547
678.3952519,36.6199989318848
678.4108769,36.5900001525879
678.4265019,36.8499984741211
678.4421269,37.3300018310547
678.4577519,37.9199981689453
678.4733769,38.4599990844727
678.4890019,38.8600006103516
678.5046269,39.0800018310547
678.5202519,39.060001373291
678.5358769,38.6800003051758
678.5515019,37.8199996948242
678.5671269,36.5099983215332
678.5827519,35.060001373291
678.5983769,33.9599990844727
678.6140019,33.560001373291
678.6296269,33.7700004577637
678.6452519,34.2400016784668
678.6608769,34.6800003051758
678.6765019,35.060001373291
678.6921269,35.4799995422363
678.7077519,36.0400009155273
678.7233769,36.689998626709
678.7390019,37.2700004577637
678.7546269,37.5
678.7702519,37.1399993896484
678.7858769,36.1500015258789
678.8015019,34.5999984741211
678.8171269,32.5400009155273
678.8327519,30.0100002288818
678.8483769,27.1599998474121
678.8640019,24.3500003814697
678.8796269,22.1700000762939
678.8952519,21.0300006866455
678.9108769,20.7700004577637
678.9265019,20.9099998474121
678.9421269,21.0400009155273
678.9577519,21.0900001525879
678.9733769,21.1700000762939
678.9890019,21.3999996185303
679.0046269,21.7800006866455
679.0202519,22.1900005340576
679.0358769,22.4599990844727
679.0515019,22.4200000762939
679.0671269,22.0200004577637
679.0827519,21.2099990844727
679.0983769,19.8799991607666
679.1140019,17.9099998474121
679.1296269,15.3900003433228
679.1452519,12.6999998092651
679.1608769,10.4799995422363
679.1765019,9.1899995803833
679.1921269,8.84000015258789
679.2077519,9.0600004196167
679.2233769,9.5600004196167
679.2390019,10.2700004577637
679.2546269,11.2200002670288
679.2702519,12.3800001144409
679.2858769,13.6400003433228
679.3015019,14.8100004196167
679.3171269,15.6700000762939
679.3327519,16.0599994659424
679.3483769,15.960000038147
679.3640019,15.4099998474121
679.3796269,14.4300003051758
679.3952519,13.0100002288818
679.4108769,11.2299995422363
679.4265019,9.39000034332275
679.4421269,7.96000003814697
679.4577519,7.26000022888184
679.4733769,7.21000003814697
679.4890019,7.42999982833862
679.5046269,7.6399998664856
679.5202519,7.71999979019165
679.5358769,7.61999988555908
679.5515019,7.26000022888184
679.5671269,6.65999984741211
679.5827519,5.96000003814697
679.5983769,5.46000003814697
679.6140019,5.3899998664856
679.6296269,5.71999979019165
679.6452519,6.21999979019165
679.6608769,6.76000022888184
679.6765019,7.32999992370605
679.6921269,7.96999979019165
679.7077519,8.69999980926514
679.7233769,9.46000003814697
679.7390019,10.1099996566772
679.7546269,10.4300003051758
679.7702519,10.2799997329712
679.7858769,9.63000011444092
679.8015019,8.5600004196167
679.8171269,7.13000011444092
679.8327519,5.38000011444092
679.8483769,3.40000009536743
679.8640019,1.45000004768372
679.8796269,-0.0900000035762787
679.8952519,-1.00999999046326
679.9108769,-1.45000004768372
679.9265019,-1.75999999046326
679.9421269,-2.21000003814697
679.9577519,-2.8199999332428
679.9733769,-3.44000005722046
679.9890019,-3.96000003814697
680.0046269,-4.34000015258789
680.0202519,-4.69000005722046
680.0358769,-5.17000007629395
680.0515019,-5.94000005722046
680.0671269,-7.05999994277954
680.0827519,-8.53999996185303
680.0983769,-10.4200000762939
680.1140019,-12.7200002670288
680.1296269,-15.3699998855591
680.1452519,-18.0499992370605
680.1608769,-20.2199993133545
680.1765019,-21.5499992370605
680.1921269,-22.1100006103516
680.2077519,-22.2800006866455
680.2233769,-22.3700008392334
680.2390019,-22.4099998474121
680.2546269,-22.3400001525879
680.2702519,-22.0799999237061
680.2858769,-21.6700000762939
680.3015019,-21.2399997711182
680.3171269,-21.0
680.3327519,-21.0900001525879
680.3483769,-21.5599994659424
680.3640019,-22.4200000762939
680.3796269,-23.7099990844727
680.3952519,-25.5
680.4108769,-27.7099990844727
680.4265019,-29.9899997711182
680.4421269,-31.8199996948242
680.4577519,-32.7999992370605
680.4733769,-33.0
680.4890019,-32.7999992370605
680.5046269,-32.4700012207031
680.5202519,-32.0299987792969
680.5358769,-31.3999996185303
680.5515019,-30.5400009155273
680.5671269,-29.5100002288818
680.5827519,-28.4599990844727
680.5983769,-27.5799999237061
680.6140019,-27.0
680.6296269,-26.7600002288818
680.6452519,-26.8199996948242
680.6608769,-27.1700000762939
680.6765019,-27.8099994659424
680.6921269,-28.6800003051758
680.7077519,-29.5100002288818
680.7233769,-29.8999996185303
680.7390019,-29.4899997711182
680.7546269,-28.2700004577637
680.7702519,-26.5100002288818
680.7858769,-24.5100002288818
680.8015019,-22.4300003051758
680.8171269,-20.3600006103516
680.8327519,-18.3199996948242
680.8483769,-16.3299999237061
680.8640019,-14.3999996185303
680.8796269,-12.460000038147
680.8952519,-10.460000038147
680.9108769,-8.39000034332275
680.9265019,-6.17999982833862
680.9421269,-3.70000004768372
680.9577519,-0.819999992847443
680.9733769,2.4300000667572
680.9890019,5.8899998664856
681.0046269,9.31999969482422
681.0202519,12.5799999237061
681.0358769,15.6599998474121
681.0515019,18.5400009155273
681.0671269,21.0900001525879
681.0827519,23.0799999237061
681.0983769,24.3799991607666
681.1140019,25.0900001525879
681.1296269,25.3899993896484
681.1452519,25.4899997711182
681.1608769,25.5300006866455
681.1765019,25.5
681.1921269,25.3799991607666
681.2077519,25.1100006103516
681.2233769,24.6700000762939
681.2390019,24.0400009155273
681.2546269,23.2399997711182
681.2702519,22.2800006866455
681.2858769,21.0900001525879
681.3015019,19.4699993133545
681.3171269,17.1200008392334
681.3327519,13.8100004196167
681.3483769,9.64000034332275
681.3640019,5.01999998092651
681.3796269,0.400000005960464
681.3952519,-3.88000011444092
681.4108769,-7.71999979019165
681.4265019,-11.3199996948242
681.4421269,-15.0200004577637
681.4577519,-19.1599998474121
681.4733769,-23.8500003814697
681.4890019,-28.9699993133545
681.5046269,-34.4099998474121
681.5202519,-40.0699996948242
681.5358769,-45.75
681.5515019,-51.0099983215332
681.5671269,-55.0900001525879
681.5827519,-57.4199981689453
681.5983769,-57.9700012207031
681.6140019,-57.2099990844727
681.6296269,-55.75
681.6452519,-54.0200004577637
681.6608769,-52.3300018310547
681.6765019,-50.8600006103516
681.6921269,-49.6599998474121
681.7077519,-48.6100006103516
681.7233769,-47.5099983215332
681.7390019,-46.2000007629395
681.7546269,-44.7099990844727
681.7702519,-43.1300010681152
681.7858769,-41.5200004577637
681.8015019,-39.8499984741211
681.8171269,-38.0699996948242
681.8327519,-36.189998626709
681.8483769,-34.25
681.8640019,-32.2900009155273
681.8796269,-30.3099994659424
681.8952519,-28.2700004577637
681.9108769,-26.1700000762939
681.9265019,-24.0499992370605
681.9421269,-22.0100002288818
681.9577519,-20.1599998474121
681.9733769,-18.5200004577637
681.9890019,-17.0499992370605
682.0046269,-15.6700000762939
682.0202519,-14.2799997329712
682.0358769,-12.8400001525879
682.0515019,-11.3100004196167
682.0671269,-9.71000003814697
682.0827519,-8.05000019073486
682.0983769,-6.3899998664856
682.1140019,-4.75
682.1296269,-3.20000004768372
682.1452519,-1.75999999046326
682.1608769,-0.419999986886978
682.1765019,0.819999992847443
682.1921269,1.99000000953674
682.2077519,3.11999988555908
682.2233769,4.28000020980835
682.2390019,5.5
682.2546269,6.78999996185303
682.2702519,8.10000038146973
682.2858769,9.35000038146973
682.3015019,10.5500001907349
682.3171269,11.789999961853
682.3327519,13.210000038147
682.3483769,14.8000001907349
682.3640019,16.4300003051758
682.3796269,17.9400005340576
682.3952519,19.2199993133545
682.4108769,20.2700004577637
682.4265019,21.2099990844727
682.4421269,22.25
682.4577519,23.5799999237061
682.4733769,25.2399997711182
682.4890019,27.1700000762939
682.5046269,29.2800006866455
682.5202519,31.5
682.5358769,33.7400016784668
682.5515019,35.7599983215332
682.5671269,37.1599998474121
682.5827519,37.6100006103516
682.5983769,37.0499992370605
682.6140019,35.6599998474121
682.6296269,33.75
682.6452519,31.5400009155273
682.6608769,29.2000007629395
682.6765019,26.8600006103516
682.6921269,24.5699996948242
682.7077519,22.3999996185303
682.7233769,20.4099998474121
682.7390019,18.6499996185303
682.7546269,17.1100006103516
682.7702519,15.7399997711182
682.7858769,14.460000038147
682.8015019,13.2200002670288
682.8171269,11.9799995422363
682.8327519,10.6999998092651
682.8483769,9.32999992370605
682.8640019,7.78000020980835
682.8796269,5.92999982833862
682.8952519,3.75999999046326
682.9108769,1.32000005245209
682.9265019,-1.24000000953674
682.9421269,-3.77999997138977
682.9577519,-6.17000007629395
682.9733769,-8.35000038146973
682.9890019,-10.2299995422363
683.0046269,-11.6400003433228
683.0202519,-12.4399995803833
683.0358769,-12.6099996566772
683.0515019,-12.1599998474121
683.0671269,-11.0299997329712
683.0827519,-9.17000007629395
683.0983769,-6.65000009536743
683.1140019,-3.78999996185303
683.1296269,-1.0
683.1452519,1.57000005245209
683.1608769,4.17999982833862
683.1765019,7.11999988555908
683.1921269,10.3400001525879
683.2077519,13.3999996185303
683.2233769,15.8500003814697
683.2390019,17.5100002288818
683.2546269,18.5799999237061
683.2702519,19.6499996185303
683.2858769,21.6100006103516
683.3015019,25.1800003051758
683.3171269,30.5
683.3327519,37.3400001525879
683.3483769,45.5299987792969
683.3640019,54.9900016784668
683.3796269,65.3300018310547
683.3952519,75.4100036621094
683.4108769,83.5400009155273
683.4265019,88.4400024414063
683.4421269,90.1399993896484
683.4577519,89.6100006103516
683.4733769,87.7099990844727
683.4890019,84.7099990844727
683.5046269,80.6900024414063
683.5202519,75.8000030517578
683.5358769,70.3899993896484
683.5515019,64.879997253418
683.5671269,59.5699996948242
683.5827519,54.5900001525879
683.5983769,49.9199981689453
683.6140019,45.5499992370605
683.6296269,41.5299987792969
683.6452519,37.939998626709
683.6608769,34.7400016784668
683.6765019,31.6100006103516
683.6921269,27.9200000762939
683.7077519,23.2600002288818
683.7233769,17.7199993133545
683.7390019,11.8500003814697
683.7546269,6.19000005722046
683.7702519,1.12000000476837
683.7858769,-3.01999998092651
683.8015019,-6.05000019073486
683.8171269,-8.02999973297119
683.8327519,-9.43000030517578
683.8483769,-10.8999996185303
683.8640019,-12.9099998474121
683.8796269,-15.4700002670288
683.8952519,-18.3299999237061
683.9108769,-21.4200000762939
683.9265019,-24.8899993896484
683.9421269,-28.8700008392334
683.9577519,-33.2900009155273
683.9733769,-37.9000015258789
683.9890019,-42.5099983215332
684.0046269,-47.0900001525879
684.0202519,-51.7400016784668
684.0358769,-56.5200004577637
684.0515019,-61.2999992370605
684.0671269,-65.8399963378906
684.0827519,-69.8899993896484
684.0983769,-73.3399963378906
684.1140019,-76.2699966430664
684.1296269,-78.8399963378906
684.1452519,-81.1500015258789
684.1608769,-83.0500030517578
684.1765019,-84.3600006103516
684.1921269,-85.0500030517578
684.2077519,-85.3199996948242
684.2233769,-85.4400024414063
684.2390019,-85.5999984741211
684.2546269,-85.8300018310547
684.2702519,-86.0299987792969
684.2858769,-86.0100021362305
684.3015019,-85.6100006103516
684.3171269,-84.75
684.3327519,-83.3300018310547
684.3483769,-81.0899963378906
684.3640019,-77.7799987792969
684.3796269,-73.4800033569336
684.3952519,-68.6900024414063
684.4108769,-64.2099990844727
684.4265019,-60.5099983215332
684.4421269,-57.3899993896484
684.4577519,-54.3300018310547
684.4733769,-51.1300010681152
684.4890019,-48.1100006103516
684.5046269,-45.6500015258789
684.5202519,-43.9199981689453
684.5358769,-42.7299995422363
684.5515019,-41.5299987792969
684.5671269,-39.5499992370605
684.5827519,-36.2200012207031
684.5983769,-31.3700008392334
684.6140019,-25.0699996948242
684.6296269,-17.1800003051758
684.6452519,-7.51000022888184
684.6608769,3.60999989509583
684.6765019,15.0
684.6921269,24.8899993896484
684.7077519,32.2299995422363
684.7233769,37.6300010681152
684.7390019,42.5699996948242
684.7546269,47.7900009155273
684.7702519,52.8300018310547
684.7858769,56.8300018310547
