Time(s),Value(%)
148.0066116,-111.5
148.0222366,-116.519996643066
148.0378616,-120.529998779297
148.0534866,-122.98999786377
148.0691116,-123.389999389648
148.0847366,-121.76000213623
148.1003616,-118.709999084473
148.1159866,-114.769996643066
148.1316116,-110.040000915527
148.1472366,-104.269996643066
148.1628616,-97.3099975585938
148.1784866,-89.2099990844727
148.1941116,-80.0199966430664
148.2097366,-69.8600006103516
148.2253616,-58.9599990844727
148.2409866,-47.6300010681152
148.2566116,-35.9900016784668
148.2722366,-23.8400001525879
148.2878616,-10.8299999237061
148.3034866,3.03999996185303
148.3191116,17.1299991607666
148.3347366,30.3500003814697
148.3503616,41.9000015258789
148.3659866,51.5900001525879
148.3816116,59.810001373291
148.3972366,67.1399993896484
148.4128616,74.0400009155273
148.4284866,80.7300033569336
148.4441116,87.2099990844727
148.4597366,93.4199981689453
148.4753616,99.4199981689453
148.4909866,105.300003051758
148.5066116,111.040000915527
148.5222366,116.290000915527
148.5378616,120.360000610352
148.5534866,122.650001525879
148.5691116,123.059997558594
148.5847366,121.980003356934
148.6003616,119.959999084473
148.6159866,117.440002441406
148.6316116,114.680000305176
148.6472366,111.800003051758
148.6628616,108.860000610352
148.6784866,105.860000610352
148.6941116,102.730003356934
148.7097366,99.4199981689453
148.7253616,95.9199981689453
148.7409866,92.2600021362305
148.7566116,88.4599990844727
148.7722366,84.5299987792969
148.7878616,80.5100021362305
148.8034866,76.4599990844727
148.8191116,72.4599990844727
148.8347366,68.5500030517578
148.8503616,64.8000030517578
148.8659866,61.2299995422363
148.8816116,57.8800010681152
148.8972366,54.7599983215332
148.9128616,51.8400001525879
148.9284866,49.0699996948242
148.9441116,46.4000015258789
148.9597366,43.939998626709
148.9753616,42.0200004577637
148.9909866,40.9700012207031
149.0066116,40.8499984741211
149.0222366,41.4599990844727
149.0378616,42.5
149.0534866,43.7400016784668
149.0691116,44.939998626709
149.0847366,45.7999992370605
149.1003616,45.8600006103516
149.1159866,44.7099990844727
149.1316116,42.2200012207031
149.1472366,38.5900001525879
149.1628616,34.1500015258789
149.1784866,29.2600002288818
149.1941116,24.2000007629395
149.2097366,19.2099990844727
149.2253616,14.4099998474121
149.2409866,9.85000038146973
149.2566116,5.51999998092651
149.2722366,1.39999997615814
149.2878616,-2.52999997138977
149.3034866,-6.38000011444092
149.3191116,-10.2399997711182
149.3347366,-14.2200002670288
149.3503616,-18.3099994659424
149.3659866,-22.3999996185303
149.3816116,-26.3099994659424
149.3972366,-29.9699993133545
149.4128616,-33.4599990844727
149.4284866,-36.9300003051758
149.4441116,-40.4199981689453
149.4597366,-43.7999992370605
149.4753616,-46.9300003051758
149.4909866,-49.7200012207031
149.5066116,-52.189998626709
149.5222366,-54.4300003051758
149.5378616,-56.5499992370605
149.5534866,-58.6100006103516
149.5691116,-60.6500015258789
149.5847366,-62.6800003051758
149.6003616,-64.7300033569336
149.6159866,-66.8300018310547
149.6316116,-68.9599990844727
149.6472366,-70.9700012207031
149.6628616,-72.5800018310547
149.6784866,-73.3000030517578
149.6941116,-73.2200012207031
149.7097366,-72.4100036621094
149.7253616,-71.0199966430664
149.7409866,-69.2799987792969
149.7566116,-67.370002746582
149.7722366,-65.4599990844727
149.7878616,-63.5999984741211
149.8034866,-61.6399993896484
149.8191116,-59.2200012207031
149.8347366,-55.9900016784668
149.8503616,-51.8800010681152
149.8659866,-47.0400009155273
149.8816116,-41.7099990844727
149.8972366,-36.0400009155273
149.9128616,-30.2600002288818
149.9284866,-24.7900009155273
149.9441116,-20.2199993133545
149.9597366,-17.0100002288818
149.9753616,-15.1800003051758
149.9909866,-14.3699998855591
150.0066116,-14.210000038147
150.0222366,-14.5
150.0378616,-15.1300001144409
150.0534866,-15.9899997711182
150.0691116,-16.9699993133545
150.0847366,-18.0
150.1003616,-19.1000003814697
150.1159866,-20.3400001525879
150.1316116,-21.7399997711182
150.1472366,-23.2800006866455
150.1628616,-24.9200000762939
150.1784866,-26.6100006103516
150.1941116,-28.3199996948242
150.2097366,-29.9799995422363
150.2253616,-31.5599994659424
150.2409866,-33.0999984741211
150.2566116,-34.689998626709
150.2722366,-36.3800010681152
150.2878616,-38.1599998474121
150.3034866,-39.9000015258789
150.3191116,-41.5200004577637
150.3347366,-42.9900016784668
150.3503616,-44.310001373291
150.3659866,-45.4599990844727
150.3816116,-46.3400001525879
150.3972366,-46.8699989318848
150.4128616,-47.0299987792969
150.4284866,-46.9000015258789
150.4441116,-46.5800018310547
150.4597366,-46.1199989318848
150.4753616,-45.5699996948242
150.4909866,-44.939998626709
150.5066116,-44.25
150.5222366,-43.439998626709
150.5378616,-42.4199981689453
150.5534866,-41.0800018310547
150.5691116,-39.3800010681152
150.5847366,-37.2900009155273
150.6003616,-34.7299995422363
150.6159866,-31.5900001525879
150.6316116,-27.9300003051758
150.6472366,-24.0100002288818
150.6628616,-20.2000007629395
150.6784866,-16.6700000762939
150.6941116,-13.4399995803833
150.7097366,-10.3599996566772
150.7253616,-7.46000003814697
150.7409866,-4.96999979019165
150.7566116,-3.03999996185303
150.7722366,-1.66999995708466
150.7878616,-0.709999978542328
150.8034866,0.0099999997764825
150.8191116,0.540000021457672
150.8347366,0.829999983310699
150.8503616,0.839999973773956
150.8659866,0.639999985694885
150.8816116,0.330000013113022
150.8972366,0.0099999997764825
150.9128616,-0.239999994635582
150.9284866,-0.469999998807907
150.9441116,-0.769999980926514
150.9597366,-1.25
150.9753616,-1.95000004768372
150.9909866,-2.8199999332428
151.0066116,-3.75999999046326
151.0222366,-4.69000005722046
151.0378616,-5.57000017166138
151.0534866,-6.34999990463257
151.0691116,-7.03000020980835
151.0847366,-7.59999990463257
151.1003616,-8.11999988555908
151.1159866,-8.61999988555908
151.1316116,-9.10000038146973
151.1472366,-9.52000045776367
151.1628616,-9.88000011444092
151.1784866,-10.1599998474121
151.1941116,-10.3699998855591
151.2097366,-10.5100002288818
151.2253616,-10.5600004196167
151.2409866,-10.5200004577637
151.2566116,-10.3900003433228
151.2722366,-10.25
151.2878616,-10.1199998855591
151.3034866,-10.0
151.3191116,-9.85999965667725
151.3347366,-9.68000030517578
151.3503616,-9.42000007629395
151.3659866,-8.98999977111816
151.3816116,-8.22999954223633
151.3972366,-6.96999979019165
151.4128616,-5.17999982833862
151.4284866,-2.9300000667572
151.4441116,-0.219999998807907
151.4597366,2.91000008583069
151.4753616,6.40000009536743
151.4909866,9.96000003814697
151.5066116,13.2600002288818
151.5222366,16.0699996948242
151.5378616,18.4300003051758
151.5534866,20.5300006866455
151.5691116,22.4200000762939
151.5847366,23.9799995422363
151.6003616,25.0799999237061
151.6159866,25.7399997711182
151.6316116,26.0900001525879
151.6472366,26.2999992370605
151.6628616,26.4899997711182
151.6784866,26.7299995422363
151.6941116,27.0
151.7097366,27.2900009155273
151.7253616,27.5799999237061
151.7409866,27.8899993896484
151.7566116,28.2199993133545
151.7722366,28.4599990844727
151.7878616,28.3999996185303
151.8034866,27.8400001525879
151.8191116,26.6800003051758
151.8347366,24.9699993133545
151.8503616,22.8899993896484
151.8659866,20.6800003051758
151.8816116,18.5
151.8972366,16.4699993133545
151.9128616,14.5900001525879
151.9284866,12.8100004196167
151.9441116,10.9899997711182
151.9597366,8.98999977111816
151.9753616,6.76999998092651
151.9909866,4.34000015258789
152.0066116,1.64999997615814
152.0222366,-1.3400000333786
152.0378616,-4.57999992370605
152.0534866,-7.84000015258789
152.0691116,-10.7700004577637
152.0847366,-13.1400003433228
152.1003616,-15.039999961853
152.1159866,-16.6900005340576
152.1316116,-18.1900005340576
152.1472366,-19.4500007629395
152.1628616,-20.3600006103516
152.1784866,-20.8700008392334
152.1941116,-21.0499992370605
152.2097366,-20.9799995422363
152.2253616,-20.6499996185303
152.2409866,-20.0300006866455
152.2566116,-19.1100006103516
152.2722366,-17.9799995422363
152.2878616,-16.8099994659424
152.3034866,-15.7399997711182
152.3191116,-14.8400001525879
152.3347366,-14.0500001907349
152.3503616,-13.2299995422363
152.3659866,-12.289999961853
152.3816116,-11.289999961853
152.3972366,-10.3400001525879
152.4128616,-9.52000045776367
152.4284866,-8.80000019073486
152.4441116,-8.10000038146973
152.4597366,-7.3600001335144
152.4753616,-6.53999996185303
152.4909866,-5.73000001907349
152.5066116,-5.01999998092651
152.5222366,-4.55000019073486
152.5378616,-4.34999990463257
152.5534866,-4.44000005722046
152.5691116,-4.86999988555908
152.5847366,-5.69999980926514
152.6003616,-6.88000011444092
152.6159866,-8.14999961853027
152.6316116,-9.13000011444092
152.6472366,-9.59000015258789
152.6628616,-9.5600004196167
152.6784866,-9.30000019073486
152.6941116,-8.92000007629395
152.7097366,-8.38000011444092
152.7253616,-7.57999992370605
152.7409866,-6.5
152.7566116,-5.23999977111816
152.7722366,-3.95000004768372
152.7878616,-2.8199999332428
152.8034866,-1.99000000953674
152.8191116,-1.49000000953674
152.8347366,-1.30999994277954
152.8503616,-1.51999998092651
152.8659866,-2.17000007629395
152.8816116,-3.21000003814697
152.8972366,-4.3600001335144
152.9128616,-5.13000011444092
152.9284866,-5.1399998664856
152.9441116,-4.34000015258789
152.9597366,-2.89000010490417
152.9753616,-1.0
152.9909866,1.25
153.0066116,3.80999994277954
153.0222366,6.59999990463257
153.0378616,9.5
153.0534866,12.3999996185303
153.0691116,15.2600002288818
153.0847366,18.1000003814697
153.1003616,20.9400005340576
153.1159866,23.7299995422363
153.1316116,26.3999996185303
153.1472366,28.8600006103516
153.1628616,31.0699996948242
153.1784866,33.0400009155273
153.1941116,34.8199996948242
153.2097366,36.3800010681152
153.2253616,37.6599998474121
153.2409866,38.5400009155273
153.2566116,39.0
153.2722366,39.1500015258789
153.2878616,39.1100006103516
153.3034866,39.0200004577637
153.3191116,38.9500007629395
153.3347366,38.9799995422363
153.3503616,39.2000007629395
153.3659866,39.6500015258789
153.3816116,40.2400016784668
153.3972366,40.7900009155273
153.4128616,41.1599998474121
153.4284866,41.2999992370605
153.4441116,41.2599983215332
153.4597366,41.1199989318848
153.4753616,40.9500007629395
153.4909866,40.7900009155273
153.5066116,40.6199989318848
153.5222366,40.439998626709
153.5378616,40.2099990844727
153.5534866,39.8699989318848
153.5691116,39.3600006103516
153.5847366,38.6199989318848
153.6003616,37.6500015258789
153.6159866,36.560001373291
153.6316116,35.5400009155273
153.6472366,34.7099990844727
153.6628616,34.0900001525879
153.6784866,33.7200012207031
153.6941116,33.439998626709
153.7097366,33.2400016784668
153.7253616,33.1300010681152
153.7409866,33.0699996948242
153.7566116,33.0400009155273
153.7722366,33.0999984741211
153.7878616,33.4199981689453
153.8034866,34.1800003051758
153.8191116,35.4199981689453
153.8347366,37.0800018310547
153.8503616,39.0499992370605
153.8659866,41.2900009155273
153.8816116,43.6599998474121
153.8972366,45.9500007629395
153.9128616,47.8400001525879
153.9284866,49.1100006103516
153.9441116,49.810001373291
153.9597366,50.0900001525879
153.9753616,50.0499992370605
153.9909866,49.689998626709
154.0066116,48.9599990844727
154.0222366,47.9000015258789
154.0378616,46.6199989318848
154.0534866,45.189998626709
154.0691116,43.6699981689453
154.0847366,42.0299987792969
154.1003616,40.2599983215332
154.1159866,38.3499984741211
154.1316116,36.2900009155273
154.1472366,34.0999984741211
154.1628616,31.7900009155273
154.1784866,29.3899993896484
154.1941116,26.9099998474121
154.2097366,24.2900009155273
154.2253616,21.4899997711182
154.2409866,18.4799995422363
154.2566116,15.3699998855591
154.2722366,12.3299999237061
154.2878616,9.47000026702881
154.3034866,6.84999990463257
154.3191116,4.42000007629395
154.3347366,2.05999994277954
154.3503616,-0.409999996423721
154.3659866,-3.15000009536743
154.3816116,-6.1399998664856
154.3972366,-9.27000045776367
154.4128616,-12.3900003433228
154.4284866,-15.3400001525879
154.4441116,-18.0499992370605
154.4597366,-20.5200004577637
154.4753616,-22.7099990844727
154.4909866,-24.6399993896484
154.5066116,-26.3099994659424
154.5222366,-27.7700004577637
154.5378616,-29.0100002288818
154.5534866,-30.0599994659424
154.5691116,-30.9099998474121
154.5847366,-31.5300006866455
154.6003616,-31.8400001525879
154.6159866,-31.6900005340576
154.6316116,-31.0300006866455
154.6472366,-29.9400005340576
154.6628616,-28.6299991607666
154.6784866,-27.3199996948242
154.6941116,-26.1499996185303
154.7097366,-25.1100006103516
154.7253616,-24.1499996185303
154.7409866,-23.2399997711182
154.7566116,-22.4599990844727
154.7722366,-21.9200000762939
154.7878616,-21.7199993133545
154.8034866,-21.8999996185303
154.8191116,-22.4200000762939
154.8347366,-23.2000007629395
154.8503616,-24.0900001525879
154.8659866,-25.0
154.8816116,-25.8299999237061
154.8972366,-26.5699996948242
154.9128616,-27.2199993133545
154.9284866,-27.7999992370605
154.9441116,-28.3500003814697
154.9597366,-28.9200000762939
154.9753616,-29.6100006103516
154.9909866,-30.4799995422363
155.0066116,-31.5400009155273
155.0222366,-32.6699981689453
155.0378616,-33.7099990844727
155.0534866,-34.560001373291
155.0691116,-35.2099990844727
155.0847366,-35.7599983215332
155.1003616,-36.2299995422363
155.1159866,-36.7000007629395
155.1316116,-37.3499984741211
155.1472366,-38.3899993896484
155.1628616,-39.8899993896484
155.1784866,-41.6800003051758
155.1941116,-43.4599990844727
155.2097366,-45.060001373291
155.2253616,-46.5499992370605
155.2409866,-48.0499992370605
155.2566116,-49.5099983215332
155.2722366,-50.6800003051758
155.2878616,-51.3300018310547
155.3034866,-51.4300003051758
155.3191116,-51.0800018310547
155.3347366,-50.3600006103516
155.3503616,-49.1500015258789
155.3659866,-47.25
155.3816116,-44.6399993896484
155.3972366,-41.5
155.4128616,-38.1699981689453
155.4284866,-34.939998626709
155.4441116,-31.9500007629395
155.4597366,-29.1200008392334
155.4753616,-26.1700000762939
155.4909866,-22.8299999237061
155.5066116,-19.0200004577637
155.5222366,-14.8900003433228
155.5378616,-10.6599998474121
155.5534866,-6.57000017166138
155.5691116,-2.76999998092651
155.5847366,0.560000002384186
155.6003616,3.21000003814697
155.6159866,5.03000020980835
155.6316116,6.07999992370605
155.6472366,6.65999984741211
155.6628616,7.09000015258789
155.6784866,7.57999992370605
155.6941116,8.17000007629395
155.7097366,8.84000015258789
155.7253616,9.47999954223633
155.7409866,10.0299997329712
155.7566116,10.3599996566772
155.7722366,10.3999996185303
155.7878616,10.1300001144409
155.8034866,9.60000038146973
155.8191116,8.88000011444092
155.8347366,8.10000038146973
155.8503616,7.32000017166138
155.8659866,6.6100001335144
155.8816116,5.94999980926514
155.8972366,5.32999992370605
155.9128616,4.69999980926514
155.9284866,4.01000022888184
155.9441116,3.25999999046326
155.9597366,2.42000007629395
155.9753616,1.46000003814697
155.9909866,0.330000013113022
156.0066116,-0.939999997615814
156.0222366,-2.25999999046326
156.0378616,-3.46000003814697
156.0534866,-4.44999980926514
156.0691116,-5.21999979019165
156.0847366,-5.8600001335144
156.1003616,-6.3899998664856
156.1159866,-6.78000020980835
156.1316116,-7.0
156.1472366,-7.05000019073486
156.1628616,-6.96999979019165
156.1784866,-6.71999979019165
156.1941116,-6.15999984741211
156.2097366,-5.13000011444092
156.2253616,-3.60999989509583
156.2409866,-1.72000002861023
156.2566116,0.349999994039536
156.2722366,2.46000003814697
156.2878616,4.48999977111816
156.3034866,6.30999994277954
156.3191116,7.80000019073486
156.3347366,8.84000015258789
156.3503616,9.46000003814697
156.3659866,9.75
156.3816116,9.85000038146973
156.3972366,9.84000015258789
156.4128616,9.75
156.4284866,9.60999965667725
156.4441116,9.4399995803833
156.4597366,9.23999977111816
156.4753616,8.94999980926514
156.4909866,8.55000019073486
156.5066116,8.02999973297119
156.5222366,7.40999984741211
156.5378616,6.75
156.5534866,6.07999992370605
156.5691116,5.42999982833862
156.5847366,4.82999992370605
156.6003616,4.30999994277954
156.6159866,3.85999989509583
156.6316116,3.40000009536743
156.6472366,2.86999988555908
156.6628616,2.22000002861023
156.6784866,1.49000000953674
156.6941116,0.75
156.7097366,0.0799999982118607
156.7253616,-0.490000009536743
156.7409866,-0.980000019073486
156.7566116,-1.37999999523163
156.7722366,-1.69000005722046
156.7878616,-1.92999994754791
156.8034866,-2.15000009536743
156.8191116,-2.4300000667572
156.8347366,-2.83999991416931
156.8503616,-3.39000010490417
156.8659866,-4.01000022888184
156.8816116,-4.55999994277954
156.8972366,-4.8899998664856
156.9128616,-4.8600001335144
156.9284866,-4.42000007629395
156.9441116,-3.58999991416931
156.9597366,-2.45000004768372
156.9753616,-1.13999998569489
156.9909866,0.170000001788139
157.0066116,1.41999995708466
157.0222366,2.52999997138977
157.0378616,3.52999997138977
157.0534866,4.42999982833862
157.0691116,5.25
157.0847366,5.98000001907349
157.1003616,6.51999998092651
157.1159866,6.78000020980835
157.1316116,6.75
157.1472366,6.46000003814697
157.1628616,5.94000005722046
157.1784866,5.21999979019165
157.1941116,4.32000017166138
157.2097366,3.33999991416931
157.2253616,2.4300000667572
157.2409866,1.75999999046326
157.2566116,1.39999997615814
157.2722366,1.29999995231628
157.2878616,1.32000005245209
157.3034866,1.25999999046326
157.3191116,0.870000004768372
157.3347366,-0.0099999997764825
157.3503616,-1.38999998569489
157.3659866,-3.10999989509583
157.3816116,-4.96999979019165
157.3972366,-6.80000019073486
157.4128616,-8.51000022888184
157.4284866,-9.96000003814697
157.4441116,-10.960000038147
157.4597366,-11.3599996566772
157.4753616,-11.25
157.4909866,-10.8299999237061
157.5066116,-10.3500003814697
157.5222366,-9.89999961853027
157.5378616,-9.51000022888184
157.5534866,-9.13000011444092
157.5691116,-8.72999954223633
157.5847366,-8.3100004196167
157.6003616,-7.92999982833862
157.6159866,-7.65000009536743
157.6316116,-7.5
157.6472366,-7.40000009536743
157.6628616,-7.23000001907349
157.6784866,-6.92999982833862
157.6941116,-6.40000009536743
157.7097366,-5.6100001335144
157.7253616,-4.53000020980835
157.7409866,-3.05999994277954
157.7566116,-1.12999999523163
157.7722366,1.24000000953674
157.7878616,3.86999988555908
157.8034866,6.51999998092651
157.8191116,9.07999992370605
157.8347366,11.539999961853
157.8503616,13.960000038147
157.8659866,16.2900009155273
157.8816116,18.3799991607666
157.8972366,20.0799999237061
157.9128616,21.3700008392334
157.9284866,22.3299999237061
157.9441116,23.0100002288818
157.9597366,23.4599990844727
157.9753616,23.6800003051758
157.9909866,23.7099990844727
158.0066116,23.6100006103516
158.0222366,23.4500007629395
158.0378616,23.2199993133545
158.0534866,22.9200000762939
158.0691116,22.5300006866455
158.0847366,22.0599994659424
158.1003616,21.5499992370605
158.1159866,21.0400009155273
158.1316116,20.5499992370605
158.1472366,20.0499992370605
158.1628616,19.5300006866455
158.1784866,18.9400005340576
158.1941116,18.2299995422363
158.2097366,17.4099998474121
158.2253616,16.4799995422363
158.2409866,15.5100002288818
158.2566116,14.539999961853
158.2722366,13.6000003814697
158.2878616,12.6999998092651
158.3034866,11.8000001907349
158.3191116,10.8199996948242
158.3347366,9.68000030517578
158.3503616,8.35999965667725
158.3659866,6.90000009536743
158.3816116,5.34000015258789
158.3972366,3.70000004768372
158.4128616,2.02999997138977
158.4284866,0.439999997615814
158.4441116,-0.920000016689301
158.4597366,-1.85000002384186
158.4753616,-2.1800000667572
158.4909866,-1.83000004291534
158.5066116,-0.860000014305115
158.5222366,0.519999980926514
158.5378616,2.07999992370605
158.5534866,3.59999990463257
158.5691116,4.96000003814697
158.5847366,6.23000001907349
158.6003616,7.57000017166138
158.6159866,9.1899995803833
158.6316116,11.1599998474121
158.6472366,13.4300003051758
158.6628616,15.9499998092651
158.6784866,18.9500007629395
158.6941116,22.1100006103516
158.7097366,25.1100006103516
158.7253616,27.5100002288818
158.7409866,28.8899993896484
