Time(s),Value(%)
148.0066116,-11.1999998092651
148.0222366,-6.53999996185303
148.0378616,-1.36000001430511
148.0534866,3.53999996185303
148.0691116,7.44999980926514
148.0847366,10.0799999237061
148.1003616,11.8000001907349
148.1159866,13.3699998855591
148.1316116,15.4899997711182
148.1472366,18.3099994659424
148.1628616,21.2000007629395
148.1784866,23.1200008392334
148.1941116,23.3299999237061
148.2097366,21.9099998474121
148.2253616,19.5799999237061
148.2409866,17.1700000762939
148.2566116,15.2399997711182
148.2722366,13.9499998092651
148.2878616,13.0699996948242
148.3034866,12.2200002670288
148.3191116,11.1300001144409
148.3347366,9.8100004196167
148.3503616,8.46000003814697
148.3659866,7.17999982833862
148.3816116,5.94000005722046
148.3972366,4.63000011444092
148.4128616,3.1800000667572
148.4284866,1.60000002384186
148.4441116,0.0299999993294477
148.4597366,-1.35000002384186
148.4753616,-2.36999988555908
148.4909866,-3.0
148.5066116,-3.38000011444092
148.5222366,-3.79999995231628
148.5378616,-4.59999990463257
148.5534866,-5.8600001335144
148.5691116,-7.34999990463257
148.5847366,-8.69999980926514
148.6003616,-9.71000003814697
148.6159866,-10.3400001525879
148.6316116,-10.6499996185303
148.6472366,-10.7200002670288
148.6628616,-10.6099996566772
148.6784866,-10.4200000762939
148.6941116,-10.2399997711182
148.7097366,-10.0100002288818
148.7253616,-9.5600004196167
148.7409866,-8.71000003814697
148.7566116,-7.28000020980835
148.7722366,-5.09999990463257
148.7878616,-1.96000003814697
148.8034866,2.22000002861023
148.8191116,7.17000007629395
148.8347366,12.2700004577637
148.8503616,16.9200000762939
148.8659866,20.7999992370605
148.8816116,23.8700008392334
148.8972366,26.2000007629395
148.9128616,27.8999996185303
148.9284866,29.0900001525879
148.9441116,29.7900009155273
148.9597366,29.9400005340576
148.9753616,29.3500003814697
148.9909866,27.9400005340576
149.0066116,25.7700004577637
149.0222366,23.1000003814697
149.0378616,20.2299995422363
149.0534866,17.4099998474121
149.0691116,14.6999998092651
149.0847366,12.0799999237061
149.1003616,9.52999973297119
149.1159866,7.05000019073486
149.1316116,4.59000015258789
149.1472366,2.02999997138977
149.1628616,-0.689999997615814
149.1784866,-3.59999990463257
149.1941116,-6.63000011444092
149.2097366,-9.60000038146973
149.2253616,-12.3100004196167
149.2409866,-14.6999998092651
149.2566116,-16.8799991607666
149.2722366,-18.9200000762939
149.2878616,-20.8400001525879
149.3034866,-22.6100006103516
149.3191116,-24.2600002288818
149.3347366,-25.7999992370605
149.3503616,-27.1800003051758
149.3659866,-28.2600002288818
149.3816116,-28.9099998474121
149.3972366,-29.1700000762939
149.4128616,-29.1900005340576
149.4284866,-28.9799995422363
149.4441116,-28.4500007629395
149.4597366,-27.6700000762939
149.4753616,-26.8500003814697
149.4909866,-26.1700000762939
149.5066116,-25.6100006103516
149.5222366,-25.0599994659424
149.5378616,-24.4099998474121
149.5534866,-23.4799995422363
149.5691116,-21.9300003051758
149.5847366,-19.2900009155273
149.6003616,-15.1999998092651
149.6159866,-9.65999984741211
149.6316116,-3.15000009536743
149.6472366,3.61999988555908
149.6628616,9.96000003814697
149.6784866,15.3900003433228
149.6941116,19.7199993133545
149.7097366,23.0400009155273
149.7253616,25.5900001525879
149.7409866,27.6000003814697
149.7566116,29.1399993896484
149.7722366,30.1399993896484
149.7878616,30.4500007629395
149.8034866,29.8999996185303
149.8191116,28.4200000762939
149.8347366,26.0699996948242
149.8503616,23.1100006103516
149.8659866,19.8199996948242
149.8816116,16.4599990844727
149.8972366,13.2399997711182
149.9128616,10.3299999237061
149.9284866,7.80999994277954
149.9441116,5.53000020980835
149.9597366,3.20000004768372
149.9753616,0.589999973773956
149.9909866,-2.28999996185303
150.0066116,-5.28999996185303
150.0222366,-8.1899995803833
150.0378616,-10.9399995803833
150.0534866,-13.5100002288818
150.0691116,-15.710000038147
150.0847366,-17.3600006103516
150.1003616,-18.5300006866455
150.1159866,-19.5499992370605
150.1316116,-20.7199993133545
150.1472366,-22.1000003814697
150.1628616,-23.5200004577637
150.1784866,-24.7199993133545
150.1941116,-25.4400005340576
150.2097366,-25.5799999237061
150.2253616,-25.2800006866455
150.2409866,-24.8500003814697
150.2566116,-24.4300003051758
150.2722366,-24.0100002288818
150.2878616,-23.4899997711182
150.3034866,-22.8600006103516
150.3191116,-22.2199993133545
150.3347366,-21.6399993896484
150.3503616,-20.9599990844727
150.3659866,-19.8999996185303
150.3816116,-18.0699996948242
150.3972366,-14.9700002670288
150.4128616,-10.2299995422363
150.4284866,-3.84999990463257
150.4441116,3.59999990463257
150.4597366,11.2399997711182
150.4753616,18.1299991607666
150.4909866,23.7199993133545
150.5066116,27.9799995422363
150.5222366,31.2600002288818
150.5378616,34.0400009155273
150.5534866,36.6199989318848
150.5691116,38.939998626709
150.5847366,40.560001373291
150.6003616,40.9500007629395
150.6159866,39.810001373291
150.6316116,37.25
150.6472366,33.7799987792969
150.6628616,29.9899997711182
150.6784866,26.3899993896484
150.6941116,23.2299995422363
150.7097366,20.5
150.7253616,17.9799995422363
150.7409866,15.3400001525879
150.7566116,12.3500003814697
150.7722366,9.01000022888184
150.7878616,5.63000011444092
150.8034866,2.53999996185303
150.8191116,-0.0799999982118607
150.8347366,-2.34999990463257
150.8503616,-4.48999977111816
150.8659866,-6.61999988555908
150.8816116,-8.68000030517578
150.8972366,-10.6800003051758
150.9128616,-12.75
150.9284866,-14.9899997711182
150.9441116,-17.1900005340576
150.9597366,-18.9799995422363
150.9753616,-20.1100006103516
150.9909866,-20.6700000762939
151.0066116,-20.9799995422363
151.0222366,-21.3600006103516
151.0378616,-21.8899993896484
151.0534866,-22.4300003051758
151.0691116,-22.7700004577637
151.0847366,-22.7399997711182
151.1003616,-22.3099994659424
151.1159866,-21.6499996185303
151.1316116,-21.0100002288818
151.1472366,-20.5599994659424
151.1628616,-20.2700004577637
151.1784866,-19.9599990844727
151.1941116,-19.3099994659424
151.2097366,-17.9400005340576
151.2253616,-15.4099998474121
151.2409866,-11.25
151.2566116,-5.40000009536743
151.2722366,1.53999996185303
151.2878616,8.47000026702881
151.3034866,14.3299999237061
151.3191116,18.7999992370605
151.3347366,22.2399997711182
151.3503616,25.1700000762939
151.3659866,27.8099994659424
151.3816116,30.0499992370605
151.3972366,31.7099990844727
151.4128616,32.7599983215332
151.4284866,33.3300018310547
151.4441116,33.4000015258789
151.4597366,32.7599983215332
151.4753616,31.1700000762939
151.4909866,28.6100006103516
151.5066116,25.3999996185303
151.5222366,22.0300006866455
151.5378616,18.8999996185303
151.5534866,16.1800003051758
151.5691116,13.7299995422363
151.5847366,11.25
151.6003616,8.48999977111816
151.6159866,5.53000020980835
151.6316116,2.59999990463257
151.6472366,-0.0799999982118607
151.6628616,-2.54999995231628
151.6784866,-5.01000022888184
151.6941116,-7.65000009536743
151.7097366,-10.5100002288818
151.7253616,-13.4399995803833
151.7409866,-16.1499996185303
151.7566116,-18.3099994659424
151.7722366,-19.7299995422363
151.7878616,-20.4699993133545
151.8034866,-20.8400001525879
151.8191116,-21.2999992370605
151.8347366,-22.1700000762939
151.8503616,-23.4799995422363
151.8659866,-24.9500007629395
151.8816116,-26.0400009155273
151.8972366,-26.1800003051758
151.9128616,-25.2000007629395
151.9284866,-23.4500007629395
151.9441116,-21.5900001525879
151.9597366,-20.1599998474121
151.9753616,-19.3500003814697
151.9909866,-18.8999996185303
152.0066116,-18.1100006103516
152.0222366,-16.1100006103516
152.0378616,-12.2799997329712
152.0534866,-6.57999992370605
152.0691116,0.319999992847443
152.0847366,7.40999984741211
152.1003616,13.6000003814697
152.1159866,18.2999992370605
152.1316116,21.4300003051758
152.1472366,23.3799991607666
152.1628616,24.75
152.1784866,26.0799999237061
152.1941116,27.4899997711182
152.2097366,28.6700000762939
152.2253616,29.1499996185303
152.2409866,28.6499996185303
152.2566116,27.2700004577637
152.2722366,25.3500003814697
152.2878616,23.25
152.3034866,21.2600002288818
152.3191116,19.5
152.3347366,17.8600006103516
152.3503616,16.0799999237061
152.3659866,13.960000038147
152.3816116,11.539999961853
152.3972366,9.19999980926514
152.4128616,7.26999998092651
152.4284866,5.73999977111816
152.4441116,4.21999979019165
152.4597366,2.30999994277954
152.4753616,-0.150000005960464
152.4909866,-3.01999998092651
152.5066116,-5.94000005722046
152.5222366,-8.5
152.5378616,-10.3900003433228
152.5534866,-11.5500001907349
152.5691116,-12.1800003051758
152.5847366,-12.6199998855591
152.6003616,-13.1300001144409
152.6159866,-13.75
152.6316116,-14.3699998855591
152.6472366,-14.8400001525879
152.6628616,-15.1000003814697
152.6784866,-15.1400003433228
152.6941116,-14.9899997711182
152.7097366,-14.7299995422363
152.7253616,-14.4899997711182
152.7409866,-14.3299999237061
152.7566116,-14.1499996185303
152.7722366,-13.789999961853
152.7878616,-13.1000003814697
152.8034866,-11.7600002288818
152.8191116,-9.32999992370605
152.8347366,-5.55000019073486
152.8503616,-0.660000026226044
152.8659866,4.69000005722046
152.8816116,9.6899995803833
152.8972366,13.7299995422363
152.9128616,16.6900005340576
152.9284866,18.9099998474121
152.9441116,20.7999992370605
152.9597366,22.5
152.9753616,23.8600006103516
152.9909866,24.6599998474121
153.0066116,24.6900005340576
153.0222366,23.8700008392334
153.0378616,22.2299995422363
153.0534866,19.9400005340576
153.0691116,17.2800006866455
153.0847366,14.4899997711182
153.1003616,11.75
153.1159866,9.26000022888184
153.1316116,7.17000007629395
153.1472366,5.44000005722046
153.1628616,3.92000007629395
153.1784866,2.41000008583069
153.1941116,0.769999980926514
153.2097366,-1.02999997138977
153.2253616,-2.94000005722046
153.2409866,-4.84999990463257
153.2566116,-6.73000001907349
153.2722366,-8.5600004196167
153.2878616,-10.3100004196167
153.3034866,-11.960000038147
153.3191116,-13.5200004577637
153.3347366,-15.0100002288818
153.3503616,-16.3799991607666
153.3659866,-17.5599994659424
153.3816116,-18.5699996948242
153.3972366,-19.4699993133545
153.4128616,-20.3199996948242
153.4284866,-21.0900001525879
153.4441116,-21.6800003051758
153.4597366,-22.0
153.4753616,-22.0799999237061
153.4909866,-22.0100002288818
153.5066116,-21.9200000762939
153.5222366,-21.8400001525879
153.5378616,-21.7199993133545
153.5534866,-21.4300003051758
153.5691116,-20.7700004577637
153.5847366,-19.4699993133545
153.6003616,-17.1200008392334
153.6159866,-13.3800001144409
153.6316116,-8.34000015258789
153.6472366,-2.51999998092651
153.6628616,3.38000011444092
153.6784866,8.77999973297119
153.6941116,13.3100004196167
153.7097366,16.8099994659424
153.7253616,19.2800006866455
153.7409866,20.9300003051758
153.7566116,22.0499992370605
153.7722366,22.8799991607666
153.7878616,23.5200004577637
153.8034866,23.8999996185303
153.8191116,23.7399997711182
153.8347366,22.8099994659424
153.8503616,21.0400009155273
153.8659866,18.6200008392334
153.8816116,15.8699998855591
153.8972366,13.0900001525879
153.9128616,10.5600004196167
153.9284866,8.38000011444092
153.9441116,6.53999996185303
153.9597366,4.90999984741211
153.9753616,3.25999999046326
153.9909866,1.36000001430511
154.0066116,-0.879999995231628
154.0222366,-3.39000010490417
154.0378616,-5.96000003814697
154.0534866,-8.31999969482422
154.0691116,-10.25
154.0847366,-11.710000038147
154.1003616,-12.8299999237061
154.1159866,-13.8500003814697
154.1316116,-15.0
154.1472366,-16.3500003814697
154.1628616,-17.7099990844727
154.1784866,-18.8400001525879
154.1941116,-19.6000003814697
154.2097366,-19.9400005340576
154.2253616,-19.9300003051758
154.2409866,-19.7399997711182
154.2566116,-19.5499992370605
154.2722366,-19.4799995422363
154.2878616,-19.5599994659424
154.3034866,-19.5799999237061
154.3191116,-19.2299995422363
154.3347366,-18.2999992370605
154.3503616,-16.9699993133545
154.3659866,-15.6199998855591
154.3816116,-14.460000038147
154.3972366,-13.1999998092651
154.4128616,-11.2600002288818
154.4284866,-7.92000007629395
154.4441116,-2.72000002861023
154.4597366,4.1399998664856
154.4753616,11.6199998855591
154.4909866,18.3299999237061
154.5066116,23.2900009155273
154.5222366,26.2600002288818
154.5378616,27.6900005340576
154.5534866,28.3299999237061
154.5691116,28.9099998474121
154.5847366,29.7800006866455
154.6003616,30.7399997711182
154.6159866,31.1100006103516
154.6316116,30.3199996948242
154.6472366,28.25
154.6628616,25.2199993133545
154.6784866,21.8099994659424
154.6941116,18.6599998474121
154.7097366,16.25
154.7253616,14.6000003814697
154.7409866,13.2700004577637
154.7566116,11.6700000762939
154.7722366,9.4399995803833
154.7878616,6.55999994277954
154.8034866,3.32999992370605
154.8191116,0.280000001192093
154.8347366,-2.09999990463257
154.8503616,-3.70000004768372
154.8659866,-4.8600001335144
154.8816116,-6.07999992370605
154.8972366,-7.67999982833862
154.9128616,-9.60000038146973
154.9284866,-11.5799999237061
154.9441116,-13.3299999237061
154.9597366,-14.6700000762939
154.9753616,-15.6300001144409
154.9909866,-16.3299999237061
155.0066116,-16.9200000762939
155.0222366,-17.3999996185303
155.0378616,-17.7000007629395
155.0534866,-17.7999992370605
155.0691116,-17.7800006866455
155.0847366,-17.8400001525879
155.1003616,-18.1000003814697
155.1159866,-18.5400009155273
155.1316116,-19.0499992370605
155.1472366,-19.3799991607666
155.1628616,-19.0799999237061
155.1784866,-17.4799995422363
155.1941116,-14.0600004196167
155.2097366,-8.73999977111816
155.2253616,-2.01999998092651
155.2409866,5.21000003814697
155.2566116,11.9799995422363
155.2722366,17.5900001525879
155.2878616,21.8099994659424
155.3034866,24.8299999237061
155.3191116,27.0200004577637
155.3347366,28.7299995422363
155.3503616,30.2099990844727
155.3659866,31.3700008392334
155.3816116,31.8299999237061
155.3972366,31.1700000762939
155.4128616,29.2099990844727
155.4284866,26.0599994659424
155.4441116,22.1800003051758
155.4597366,18.2900009155273
155.4753616,14.9300003051758
155.4909866,12.1499996185303
155.5066116,9.63000011444092
155.5222366,7.01999998092651
155.5378616,4.23000001907349
155.5534866,1.27999997138977
155.5691116,-1.75999999046326
155.5847366,-4.82000017166138
155.6003616,-7.67999982833862
155.6159866,-10.1599998474121
155.6316116,-12.3100004196167
155.6472366,-14.3000001907349
155.6628616,-16.2900009155273
155.6784866,-18.2600002288818
155.6941116,-20.0599994659424
155.7097366,-21.5300006866455
155.7253616,-22.6299991607666
155.7409866,-23.4400005340576
155.7566116,-24.0799999237061
155.7722366,-24.6599998474121
155.7878616,-25.1299991607666
155.8034866,-25.3500003814697
155.8191116,-25.2399997711182
155.8347366,-24.8700008392334
155.8503616,-24.4400005340576
155.8659866,-24.1000003814697
155.8816116,-23.9300003051758
155.8972366,-23.8899993896484
155.9128616,-23.7900009155273
155.9284866,-23.3999996185303
155.9441116,-22.5100002288818
155.9597366,-20.9200000762939
155.9753616,-18.2399997711182
155.9909866,-13.9099998474121
156.0066116,-7.67999982833862
156.0222366,0.0
156.0378616,8.14999961853027
156.0534866,15.6899995803833
156.0691116,21.7700004577637
156.0847366,26.0799999237061
156.1003616,28.8500003814697
156.1159866,30.6800003051758
156.1316116,32.1100006103516
156.1472366,33.3600006103516
156.1628616,34.2900009155273
156.1784866,34.560001373291
156.1941116,33.8899993896484
156.2097366,32.1199989318848
156.2253616,29.2900009155273
156.2409866,25.7299995422363
156.2566116,21.9899997711182
156.2722366,18.6000003814697
156.2878616,15.8000001907349
156.3034866,13.4700002670288
156.3191116,11.3199996948242
156.3347366,9.07999992370605
156.3503616,6.6100001335144
156.3659866,3.92000007629395
156.3816116,1.10000002384186
156.3972366,-1.63999998569489
156.4128616,-4.23999977111816
156.4284866,-6.69999980926514
156.4441116,-9.0600004196167
156.4597366,-11.3100004196167
156.4753616,-13.3299999237061
156.4909866,-15.0200004577637
156.5066116,-16.4300003051758
156.5222366,-17.6599998474121
156.5378616,-18.7600002288818
156.5534866,-19.6900005340576
156.5691116,-20.4500007629395
156.5847366,-21.1599998474121
156.6003616,-21.8700008392334
156.6159866,-22.4699993133545
156.6316116,-22.7999992370605
156.6472366,-22.8099994659424
156.6628616,-22.6299991607666
156.6784866,-22.3799991607666
156.6941116,-22.0900001525879
156.7097366,-21.6000003814697
156.7253616,-20.5799999237061
156.7409866,-18.4799995422363
156.7566116,-14.6800003051758
156.7722366,-9.01000022888184
156.7878616,-1.97000002861023
156.8034866,5.38000011444092
156.8191116,11.9700002670288
156.8347366,17.1399993896484
156.8503616,20.8899993896484
156.8659866,23.6200008392334
156.8816116,25.75
156.8972366,27.4899997711182
156.9128616,28.8400001525879
156.9284866,29.6299991607666
156.9441116,29.5699996948242
156.9597366,28.4500007629395
156.9753616,26.25
156.9909866,23.2099990844727
157.0066116,19.75
157.0222366,16.4400005340576
157.0378616,13.8000001907349
157.0534866,11.9499998092651
157.0691116,10.5299997329712
157.0847366,8.94999980926514
157.1003616,6.84000015258789
157.1159866,4.17000007629395
157.1316116,1.19000005722046
157.1472366,-1.70000004768372
157.1628616,-4.26000022888184
157.1784866,-6.34999990463257
157.1941116,-8.02999973297119
157.2097366,-9.5600004196167
157.2253616,-11.0900001525879
157.2409866,-12.5900001525879
157.2566116,-13.8900003433228
157.2722366,-14.9099998474121
157.2878616,-15.6999998092651
157.3034866,-16.3299999237061
157.3191116,-16.8099994659424
157.3347366,-17.1000003814697
157.3503616,-17.2000007629395
157.3659866,-17.1599998474121
157.3816116,-17.0599994659424
157.3972366,-16.9500007629395
157.4128616,-16.8600006103516
157.4284866,-16.7199993133545
157.4441116,-16.4400005340576
157.4597366,-16.0300006866455
157.4753616,-15.6000003814697
157.4909866,-14.9899997711182
157.5066116,-13.7700004577637
157.5222366,-11.4200000762939
157.5378616,-7.57000017166138
157.5534866,-2.22000002861023
157.5691116,4.15000009536743
157.5847366,10.75
157.6003616,16.6399993896484
157.6159866,21.1499996185303
157.6316116,24.1700000762939
157.6472366,26.0699996948242
157.6628616,27.3700008392334
157.6784866,28.4699993133545
157.6941116,29.6000003814697
157.7097366,30.6900005340576
157.7253616,31.4099998474121
157.7409866,31.3500003814697
157.7566116,30.25
157.7722366,28.0699996948242
157.7878616,25.0900001525879
157.8034866,21.7700004577637
157.8191116,18.5100002288818
157.8347366,15.4799995422363
157.8503616,12.7200002670288
157.8659866,10.25
157.8816116,7.98000001907349
157.8972366,5.75
157.9128616,3.44000005722046
157.9284866,1.02999997138977
157.9441116,-1.41999995708466
157.9597366,-3.94000005722046
157.9753616,-6.51000022888184
157.9909866,-9.03999996185303
158.0066116,-11.3599996566772
158.0222366,-13.4099998474121
158.0378616,-15.2299995422363
158.0534866,-16.8400001525879
158.0691116,-18.2900009155273
158.0847366,-19.5799999237061
158.1003616,-20.6200008392334
158.1159866,-21.2399997711182
158.1316116,-21.4500007629395
158.1472366,-21.4799995422363
158.1628616,-21.6499996185303
158.1784866,-22.1100006103516
158.1941116,-22.7299995422363
158.2097366,-23.2700004577637
158.2253616,-23.5
158.2409866,-23.3899993896484
158.2566116,-23.0400009155273
158.2722366,-22.6000003814697
158.2878616,-22.1299991607666
158.3034866,-21.6000003814697
158.3191116,-20.75
158.3347366,-19.2199993133545
158.3503616,-16.6599998474121
158.3659866,-12.8800001144409
158.3816116,-7.88000011444092
158.3972366,-1.96000003814697
158.4128616,4.28000020980835
158.4284866,10.210000038147
158.4441116,15.3299999237061
158.4597366,19.3799991607666
158.4753616,22.3099994659424
158.4909866,24.2900009155273
158.5066116,25.5400009155273
158.5222366,26.2999992370605
158.5378616,26.7199993133545
158.5534866,26.8500003814697
158.5691116,26.5699996948242
158.5847366,25.7000007629395
158.6003616,24.0599994659424
158.6159866,21.6800003051758
158.6316116,18.8199996948242
158.6472366,15.9499998092651
158.6628616,13.4799995422363
158.6784866,11.539999961853
158.6941116,9.92000007629395
158.7097366,8.28999996185303
158.7253616,6.36999988555908
158.7409866,4.11999988555908
