Time(s),Value(%)
939.0099683,-18.8400001525879
939.0255933,-23.7999992370605
939.0412183,-29.0799999237061
939.0568433,-35.0900001525879
939.0724683,-41.9599990844727
939.0880933,-49.5499992370605
939.1037183,-57.7099990844727
939.1193433,-66.3499984741211
939.1349683,-75.2300033569336
939.1505933,-83.7300033569336
939.1662183,-90.9400024414063
939.1818433,-96.1600036621094
939.1974683,-99.3199996948242
939.2130933,-100.870002746582
939.2287183,-101.279998779297
939.2443433,-100.75
939.2599683,-99.4400024414063
939.2755933,-97.5500030517578
939.2912183,-95.1900024414063
939.3068433,-92.0
939.3224683,-86.9300003051758
939.3380933,-78.9199981689453
939.3537183,-67.8199996948242
939.3693433,-54.3800010681152
939.3849683,-39.7200012207031
939.4005933,-24.7900009155273
939.4162183,-10.3400001525879
939.4318433,2.75
939.4474683,13.3100004196167
939.4630933,20.4099998474121
939.4787183,24.0300006866455
939.4943433,24.9699993133545
939.5099683,24.2700004577637
939.5255933,22.6700000762939
939.5412183,20.6599998474121
939.5568433,18.5200004577637
939.5724683,16.3999996185303
939.5880933,14.3999996185303
939.6037183,12.5299997329712
939.6193433,10.8100004196167
939.6349683,9.23999977111816
939.6505933,7.98999977111816
939.6662183,7.38000011444092
939.6818433,7.73999977111816
939.6974683,9.10000038146973
939.7130933,11.1000003814697
939.7287183,13.289999961853
939.7443433,15.4700002670288
939.7599683,17.8899993896484
939.7755933,20.8999996185303
939.7912183,24.3799991607666
939.8068433,27.75
939.8224683,30.4599990844727
939.8380933,32.2700004577637
939.8537183,33.2700004577637
939.8693433,33.5900001525879
939.8849683,33.1699981689453
939.9005933,31.8099994659424
939.9162183,29.4899997711182
939.9318433,26.3299999237061
939.9474683,22.5499992370605
939.9630933,18.3099994659424
939.9787183,13.8000001907349
939.9943433,9.15999984741211
940.0099683,4.53999996185303
940.0255933,0.209999993443489
940.0412183,-3.27999997138977
940.0568433,-5.28999996185303
940.0724683,-5.48000001907349
940.0880933,-3.97000002861023
940.1037183,-1.3400000333786
940.1193433,1.64999997615814
940.1349683,4.51000022888184
940.1505933,7.23000001907349
940.1662183,10.4300003051758
940.1818433,14.8000001907349
940.1974683,20.5599994659424
940.2130933,27.3099994659424
940.2287183,34.310001373291
940.2443433,40.8699989318848
940.2599683,46.5299987792969
940.2755933,50.7999992370605
940.2912183,53.0
940.3068433,52.5499992370605
940.3224683,49.5
940.3380933,44.4900016784668
940.3537183,38.3300018310547
940.3693433,31.6299991607666
940.3849683,24.8099994659424
940.4005933,18.0100002288818
940.4162183,11.1000003814697
940.4318433,3.50999999046326
940.4474683,-5.53000020980835
940.4630933,-16.4899997711182
940.4787183,-29.0400009155273
940.4943433,-42.689998626709
940.5099683,-57.6399993896484
940.5255933,-74.5299987792969
940.5412183,-93.4100036621094
940.5568433,-113.069999694824
940.5724683,-131.5
940.5880933,-147.470001220703
940.6037183,-161.550003051758
940.6193433,-175.0
940.6349683,-187.919998168945
940.6505933,-199.100006103516
940.6662183,-207.259994506836
940.6818433,-212.070007324219
940.6974683,-214.279998779297
940.7130933,-215.059997558594
940.7287183,-215.460006713867
940.7443433,-215.979995727539
940.7599683,-216.660003662109
940.7755933,-217.380004882813
940.7912183,-218.139999389648
940.8068433,-219.059997558594
940.8224683,-220.0
940.8380933,-220.020004272461
940.8537183,-217.279998779297
940.8693433,-209.929992675781
940.8849683,-197.259994506836
940.9005933,-180.020004272461
940.9162183,-159.850006103516
940.9318433,-138.399993896484
940.9474683,-116.769996643066
940.9630933,-95.4400024414063
940.9787183,-74.629997253418
940.9943433,-54.6500015258789
941.0099683,-36.0800018310547
941.0255933,-19.6100006103516
941.0412183,-5.76000022888184
941.0568433,5.28999996185303
941.0724683,13.7799997329712
941.0880933,20.2299995422363
941.1037183,25.3400001525879
941.1193433,29.8400001525879
941.1349683,34.1800003051758
941.1505933,38.3899993896484
941.1662183,41.8499984741211
941.1818433,44.2700004577637
941.1974683,45.4799995422363
941.2130933,45.7599983215332
941.2287183,45.6399993896484
941.2443433,45.5800018310547
941.2599683,45.8300018310547
941.2755933,46.3699989318848
941.2912183,47.0
941.3068433,47.5
941.3224683,47.689998626709
941.3380933,47.3199996948242
941.3537183,45.9099998474121
941.3693433,43.0200004577637
941.3849683,38.7700004577637
941.4005933,34.1100006103516
941.4162183,30.5300006866455
941.4318433,29.0200004577637
941.4474683,29.3600006103516
941.4630933,30.5400009155273
941.4787183,31.8099994659424
941.4943433,32.8499984741211
941.5099683,33.3199996948242
941.5255933,32.75
941.5412183,31.0200004577637
941.5568433,28.7199993133545
941.5724683,27.0499992370605
941.5880933,27.0300006866455
941.6037183,28.7700004577637
941.6193433,31.8299999237061
941.6349683,35.9000015258789
941.6505933,41.0099983215332
941.6662183,47.1500015258789
941.6818433,54.060001373291
941.6974683,61.2599983215332
941.7130933,68.379997253418
941.7287183,75.379997253418
941.7443433,82.379997253418
941.7599683,89.4899978637695
941.7755933,96.5100021362305
941.7912183,103.019996643066
941.8068433,108.580001831055
941.8224683,113.050003051758
941.8380933,116.610000610352
941.8537183,119.669998168945
941.8693433,122.5
941.8849683,125.059997558594
941.9005933,127.190002441406
941.9162183,128.889999389648
941.9318433,130.399993896484
941.9474683,131.960006713867
941.9630933,133.669998168945
941.9787183,135.410003662109
941.9943433,136.839996337891
942.0099683,137.490005493164
942.0255933,136.990005493164
942.0412183,135.259994506836
942.0568433,132.399993896484
942.0724683,128.369995117188
942.0880933,123.120002746582
942.1037183,116.849998474121
942.1193433,110.290000915527
942.1349683,104.48999786377
942.1505933,100.150001525879
942.1662183,96.5800018310547
942.1818433,93.5299987792969
942.1974683,90.5699996948242
942.2130933,87.8399963378906
942.2287183,85.6600036621094
942.2443433,84.1699981689453
942.2599683,83.1800003051758
942.2755933,82.2300033569336
942.2912183,80.6900024414063
942.3068433,78.1100006103516
942.3224683,74.4000015258789
942.3380933,69.6900024414063
942.3537183,64.0
942.3693433,57.3400001525879
942.3849683,49.9500007629395
942.4005933,42.6500015258789
942.4162183,36.7799987792969
942.4318433,33.5
942.4474683,33.1199989318848
942.4630933,35.1800003051758
942.4787183,38.939998626709
942.4943433,43.75
942.5099683,49.0699996948242
942.5255933,54.4300003051758
942.5412183,59.4900016784668
942.5568433,64.0199966430664
942.5724683,67.9800033569336
942.5880933,71.370002746582
942.6037183,74.2799987792969
942.6193433,76.6900024414063
942.6349683,78.4700012207031
942.6505933,79.4800033569336
942.6662183,79.6900024414063
942.6818433,79.2699966430664
942.6974683,78.4400024414063
942.7130933,77.3499984741211
942.7287183,75.9800033569336
942.7443433,74.3399963378906
942.7599683,72.5599975585938
942.7755933,70.9100036621094
942.7912183,69.5500030517578
942.8068433,68.4800033569336
942.8224683,67.5299987792969
942.8380933,66.4000015258789
942.8537183,64.75
942.8693433,62.3499984741211
942.8849683,59.1800003051758
942.9005933,55.2700004577637
942.9162183,50.560001373291
942.9318433,44.939998626709
942.9474683,38.5400009155273
942.9630933,31.8500003814697
942.9787183,25.6100006103516
942.9943433,20.2999992370605
943.0099683,15.7600002288818
943.0255933,11.539999961853
943.0412183,7.44000005722046
943.0568433,3.66000008583069
943.0724683,0.469999998807907
943.0880933,-2.02999997138977
943.1037183,-4.05000019073486
943.1193433,-5.98000001907349
943.1349683,-8.34000015258789
943.1505933,-11.4700002670288
943.1662183,-15.3699998855591
943.1818433,-20.0100002288818
943.1974683,-25.3999996185303
943.2130933,-31.6000003814697
943.2287183,-38.4199981689453
943.2443433,-45.189998626709
943.2599683,-50.8499984741211
943.2755933,-54.5299987792969
943.2912183,-56.1199989318848
943.3068433,-56.0999984741211
943.3224683,-55.0200004577637
943.3380933,-53.2599983215332
943.3537183,-51.2000007629395
943.3693433,-49.2099990844727
943.3849683,-47.5499992370605
943.4005933,-46.2299995422363
943.4162183,-45.0499992370605
943.4318433,-43.810001373291
943.4474683,-42.5499992370605
943.4630933,-41.4000015258789
943.4787183,-40.4000015258789
943.4943433,-39.4500007629395
943.5099683,-38.3899993896484
943.5255933,-37.1699981689453
943.5412183,-35.8699989318848
943.5568433,-34.6699981689453
943.5724683,-33.810001373291
943.5880933,-33.4700012207031
943.6037183,-33.6699981689453
943.6193433,-34.3800010681152
943.6349683,-35.6199989318848
943.6505933,-37.4300003051758
943.6662183,-39.7000007629395
943.6818433,-42.0699996948242
943.6974683,-43.9900016784668
943.7130933,-45.1100006103516
943.7287183,-45.5999984741211
943.7443433,-45.9099998474121
943.7599683,-46.2999992370605
943.7755933,-46.7200012207031
943.7912183,-46.9599990844727
943.8068433,-46.8899993896484
943.8224683,-46.5499992370605
943.8380933,-46.1599998474121
943.8537183,-46.0499992370605
943.8693433,-46.5
943.8849683,-47.5699996948242
943.9005933,-49.2599983215332
943.9162183,-51.5999984741211
943.9318433,-54.6800003051758
943.9474683,-58.3600006103516
943.9630933,-62.0699996948242
943.9787183,-64.9700012207031
943.9943433,-66.3399963378906
944.0099683,-66.0500030517578
944.0255933,-64.4400024414063
944.0412183,-61.939998626709
944.0568433,-58.7999992370605
944.0724683,-55.2099990844727
944.0880933,-51.3800010681152
944.1037183,-47.5400009155273
944.1193433,-43.8800010681152
944.1349683,-40.5099983215332
944.1505933,-37.4599990844727
944.1662183,-34.9199981689453
944.1818433,-32.6599998474121
944.1974683,-30.7999992370605
944.2130933,-29.4699993133545
944.2287183,-28.7000007629395
944.2443433,-28.2700004577637
944.2599683,-27.8700008392334
944.2755933,-27.2999992370605
944.2912183,-26.6299991607666
944.3068433,-26.0300006866455
944.3224683,-25.5400009155273
944.3380933,-25.0100002288818
944.3537183,-24.25
944.3693433,-23.2199993133545
944.3849683,-22.0
944.4005933,-20.7900009155273
944.4162183,-19.8600006103516
944.4318433,-19.3500003814697
944.4474683,-19.3299999237061
944.4630933,-19.8099994659424
944.4787183,-20.9099998474121
944.4943433,-22.7700004577637
944.5099683,-25.3199996948242
944.5255933,-28.1100006103516
944.5412183,-30.5
944.5568433,-32.0400009155273
944.5724683,-32.7999992370605
944.5880933,-33.189998626709
944.6037183,-33.4199981689453
944.6193433,-33.4099998474121
944.6349683,-32.9599990844727
944.6505933,-32.0299987792969
944.6662183,-30.7600002288818
944.6818433,-29.3899993896484
944.6974683,-28.1399993896484
944.7130933,-27.1399993896484
944.7287183,-26.3999996185303
944.7443433,-25.7800006866455
944.7599683,-25.0599994659424
944.7755933,-24.1000003814697
944.7912183,-22.7999992370605
944.8068433,-21.0900001525879
944.8224683,-18.75
944.8380933,-15.6199998855591
944.8537183,-11.7799997329712
944.8693433,-7.63000011444092
944.8849683,-3.6800000667572
944.9005933,-0.319999992847443
944.9162183,2.33999991416931
944.9318433,4.44000005722046
944.9474683,6.19999980926514
944.9630933,7.78999996185303
944.9787183,9.1899995803833
944.9943433,10.3199996948242
945.0099683,11.0900001525879
945.0255933,11.4799995422363
945.0412183,11.4700002670288
945.0568433,11.0699996948242
945.0724683,10.3800001144409
945.0880933,9.59000015258789
945.1037183,8.98999977111816
945.1193433,8.72999954223633
945.1349683,8.71000003814697
945.1505933,8.68000030517578
945.1662183,8.55000019073486
945.1818433,8.31999969482422
945.1974683,8.14000034332275
945.2130933,8.09000015258789
945.2287183,8.15999984741211
945.2443433,8.19999980926514
945.2599683,7.92999982833862
945.2755933,7.11999988555908
945.2912183,5.71000003814697
945.3068433,3.75
945.3224683,1.25
945.3380933,-1.79999995231628
945.3537183,-5.28000020980835
945.3693433,-8.77999973297119
945.3849683,-11.6599998474121
945.4005933,-13.4399995803833
945.4162183,-14.1000003814697
945.4318433,-13.960000038147
945.4474683,-13.3199996948242
945.4630933,-12.2200002670288
945.4787183,-10.5699996948242
945.4943433,-8.3100004196167
945.5099683,-5.53999996185303
945.5255933,-2.45000004768372
945.5412183,0.819999992847443
945.5568433,4.28000020980835
945.5724683,7.90999984741211
945.5880933,11.6099996566772
945.6037183,15.1400003433228
945.6193433,18.2099990844727
945.6349683,20.6700000762939
945.6505933,22.5599994659424
945.6662183,24.0400009155273
945.6818433,25.2099990844727
945.6974683,26.0200004577637
945.7130933,26.3299999237061
945.7287183,26.1100006103516
945.7443433,25.4400005340576
945.7599683,24.5200004577637
945.7755933,23.5100002288818
945.7912183,22.5300006866455
945.8068433,21.6800003051758
945.8224683,21.0499992370605
945.8380933,20.6499996185303
945.8537183,20.3600006103516
945.8693433,19.9599990844727
945.8849683,19.3400001525879
945.9005933,18.4799995422363
945.9162183,17.5
945.9318433,16.5
945.9474683,15.539999961853
945.9630933,14.5900001525879
945.9787183,13.5
945.9943433,12.1099996566772
946.0099683,10.3699998855591
946.0255933,8.27999973297119
946.0412183,5.78000020980835
946.0568433,2.8199999332428
946.0724683,-0.5
946.0880933,-3.89000010490417
946.1037183,-6.8899998664856
946.1193433,-9.15999984741211
946.1349683,-10.7299995422363
946.1505933,-11.8500003814697
946.1662183,-12.7299995422363
946.1818433,-13.3199996948242
946.1974683,-13.5699996948242
946.2130933,-13.5100002288818
946.2287183,-13.1700000762939
946.2443433,-12.4799995422363
946.2599683,-11.039999961853
946.2755933,-8.47999954223633
946.2912183,-4.71000003814697
946.3068433,-0.0099999997764825
946.3224683,5.17999982833862
946.3380933,10.5299997329712
946.3537183,15.75
946.3693433,20.5
946.3849683,24.3899993896484
946.4005933,27.1100006103516
946.4162183,28.6599998474121
946.4318433,29.2900009155273
946.4474683,29.2700004577637
946.4630933,28.7900009155273
946.4787183,27.9899997711182
946.4943433,26.9799995422363
946.5099683,25.8600006103516
946.5255933,24.7199993133545
946.5412183,23.6200008392334
946.5568433,22.5699996948242
946.5724683,21.5499992370605
946.5880933,20.5
946.6037183,19.3299999237061
946.6193433,17.9599990844727
946.6349683,16.3799991607666
946.6505933,14.6400003433228
946.6662183,12.7700004577637
946.6818433,10.8100004196167
946.6974683,8.75
946.7130933,6.59999990463257
946.7287183,4.48999977111816
946.7443433,2.52999997138977
946.7599683,0.819999992847443
946.7755933,-0.660000026226044
946.7912183,-1.99000000953674
946.8068433,-3.33999991416931
946.8224683,-4.90999984741211
946.8380933,-6.8600001335144
946.8537183,-9.18000030517578
946.8693433,-11.6300001144409
946.8849683,-13.8599996566772
946.9005933,-15.5500001907349
946.9162183,-16.5900001525879
946.9318433,-17.0100002288818
946.9474683,-16.7999992370605
946.9630933,-15.7700004577637
946.9787183,-13.5500001907349
946.9943433,-9.9399995803833
947.0099683,-5.26000022888184
947.0255933,-0.209999993443489
947.0412183,4.48000001907349
947.0568433,8.4399995803833
947.0724683,11.6199998855591
947.0880933,14.25
947.1037183,16.6000003814697
947.1193433,18.8899993896484
947.1349683,21.1800003051758
947.1505933,23.5799999237061
947.1662183,26.3199996948242
947.1818433,29.6000003814697
947.1974683,33.3699989318848
947.2130933,37.1399993896484
947.2287183,40.060001373291
947.2443433,41.5
947.2599683,41.4799995422363
947.2755933,40.5200004577637
947.2912183,39.0900001525879
947.3068433,37.3400001525879
947.3224683,35.2700004577637
947.3380933,32.8600006103516
947.3537183,30.2199993133545
947.3693433,27.4400005340576
947.3849683,24.6000003814697
947.4005933,21.7000007629395
947.4162183,18.7399997711182
947.4318433,15.789999961853
947.4474683,12.9399995803833
947.4630933,10.2799997329712
947.4787183,7.82999992370605
947.4943433,5.46999979019165
947.5099683,2.92000007629395
947.5255933,-0.0299999993294477
947.5412183,-3.47000002861023
947.5568433,-7.23999977111816
947.5724683,-11.1000003814697
947.5880933,-14.7399997711182
947.6037183,-17.8099994659424
947.6193433,-20.0499992370605
947.6349683,-21.4500007629395
947.6505933,-22.2299995422363
947.6662183,-22.6700000762939
947.6818433,-22.7000007629395
947.6974683,-21.7700004577637
947.7130933,-19.3600006103516
947.7287183,-15.5699996948242
947.7443433,-11.1199998855591
947.7599683,-6.90000009536743
947.7755933,-3.48000001907349
947.7912183,-0.949999988079071
947.8068433,0.889999985694885
947.8224683,2.40000009536743
947.8380933,3.76999998092651
947.8537183,5.11999988555908
947.8693433,6.57999992370605
947.8849683,8.38000011444092
947.9005933,10.7299995422363
947.9162183,13.5699996948242
947.9318433,16.3299999237061
947.9474683,18.0
947.9630933,17.8199996948242
947.9787183,15.8100004196167
947.9943433,12.6800003051758
948.0099683,9.13000011444092
948.0255933,5.53000020980835
948.0412183,1.92999994754791
948.0568433,-1.69000005722046
948.0724683,-5.3600001335144
948.0880933,-9.10999965667725
948.1037183,-13.0200004577637
948.1193433,-17.2000007629395
948.1349683,-21.6299991607666
948.1505933,-26.1800003051758
948.1662183,-30.6900005340576
948.1818433,-35.0
948.1974683,-39.060001373291
948.2130933,-42.9000015258789
948.2287183,-46.6300010681152
948.2443433,-50.4000015258789
948.2599683,-54.2700004577637
948.2755933,-58.2000007629395
948.2912183,-62.0299987792969
948.3068433,-65.5999984741211
948.3224683,-68.7900009155273
948.3380933,-71.5800018310547
948.3537183,-73.9300003051758
948.3693433,-75.5299987792969
948.3849683,-75.6500015258789
948.4005933,-73.5899963378906
948.4162183,-69.2399978637695
948.4318433,-63.0099983215332
948.4474683,-55.3899993896484
948.4630933,-46.7900009155273
948.4787183,-37.7000007629395
948.4943433,-28.9300003051758
948.5099683,-21.6200008392334
948.5255933,-16.5799999237061
948.5412183,-13.7600002288818
948.5568433,-12.4499998092651
948.5724683,-12.0699996948242
948.5880933,-12.4099998474121
948.6037183,-13.4399995803833
948.6193433,-15.0200004577637
948.6349683,-16.9099998474121
948.6505933,-18.7600002288818
948.6662183,-20.2900009155273
948.6818433,-21.3400001525879
948.6974683,-21.8999996185303
948.7130933,-22.1100006103516
948.7287183,-22.0599994659424
948.7443433,-21.8199996948242
948.7599683,-21.4799995422363
948.7755933,-21.2900009155273
948.7912183,-21.7000007629395
948.8068433,-23.1399993896484
948.8224683,-25.7800006866455
948.8380933,-29.3999996185303
948.8537183,-33.5699996948242
948.8693433,-37.8400001525879
948.8849683,-41.8699989318848
948.9005933,-45.5099983215332
948.9162183,-48.7200012207031
948.9318433,-51.5999984741211
948.9474683,-54.2599983215332
948.9630933,-56.810001373291
948.9787183,-59.2099990844727
948.9943433,-61.1300010681152
949.0099683,-61.9300003051758
949.0255933,-61.0400009155273
949.0412183,-58.3499984741211
949.0568433,-54.310001373291
949.0724683,-49.4599990844727
949.0880933,-43.9500007629395
949.1037183,-37.4599990844727
949.1193433,-29.7299995422363
949.1349683,-21.2800006866455
949.1505933,-13.1999998092651
949.1662183,-6.42000007629395
949.1818433,-1.25
949.1974683,2.61999988555908
949.2130933,5.71999979019165
949.2287183,8.38000011444092
949.2443433,10.6599998474121
949.2599683,12.5600004196167
949.2755933,14.2200002670288
949.2912183,15.9899997711182
949.3068433,18.2000007629395
949.3224683,20.9300003051758
949.3380933,23.75
949.3537183,25.8600006103516
949.3693433,26.5499992370605
949.3849683,25.7600002288818
949.4005933,23.9699993133545
949.4162183,21.7000007629395
949.4318433,19.25
949.4474683,16.7600002288818
949.4630933,14.25
949.4787183,11.7700004577637
949.4943433,9.27000045776367
949.5099683,6.6399998664856
949.5255933,3.74000000953674
949.5412183,0.569999992847443
949.5568433,-2.78999996185303
949.5724683,-6.23000001907349
949.5880933,-9.64000034332275
949.6037183,-12.9499998092651
949.6193433,-16.0799999237061
949.6349683,-18.9699993133545
949.6505933,-21.5200004577637
949.6662183,-23.6399993896484
949.6818433,-25.2099990844727
949.6974683,-26.1700000762939
949.7130933,-26.5499992370605
949.7287183,-26.4699993133545
949.7443433,-26.1100006103516
949.7599683,-25.5300006866455
949.7755933,-24.2600002288818
949.7912183,-21.2199993133545
949.8068433,-15.3800001144409
949.8224683,-6.55000019073486
949.8380933,4.6399998664856
