Time(s),Value(%)
940.0139116,46.6399993896484
940.0295366,53.1699981689453
940.0451616,57.9099998474121
940.0607866,60.5999984741211
940.0764116,61.5299987792969
940.0920366,61.0999984741211
940.1076616,59.6100006103516
940.1232866,57.3300018310547
940.1389116,54.5499992370605
940.1545366,51.5499992370605
940.1701616,48.4599990844727
940.1857866,45.2400016784668
940.2014116,41.7299995422363
940.2170366,37.8499984741211
940.2326616,33.560001373291
940.2482866,28.8099994659424
940.2639116,23.5599994659424
940.2795366,17.9099998474121
940.2951616,12.1000003814697
940.3107866,6.3899998664856
940.3264116,0.850000023841858
940.3420366,-4.75
940.3576616,-10.6700000762939
940.3732866,-16.7900009155273
940.3889116,-22.7299995422363
940.4045366,-28.0499992370605
940.4201616,-32.5900001525879
940.4357866,-36.4500007629395
940.4514116,-40.0
940.4670366,-43.6599998474121
940.4826616,-47.7700004577637
940.4982866,-52.2799987792969
940.5139116,-56.5800018310547
940.5295366,-59.5400009155273
940.5451616,-60.2000007629395
940.5607866,-58.2900009155273
940.5764116,-54.2000007629395
940.5920366,-48.6699981689453
940.6076616,-41.1500015258789
940.6232866,-31.0799999237061
940.6389116,-18.3899993896484
940.6545366,-4.23999977111816
940.6701616,9.35000038146973
940.6857866,20.7999992370605
940.7014116,29.5799999237061
940.7170366,36.2299995422363
940.7326616,41.7599983215332
940.7482866,47.1500015258789
940.7639116,52.8800010681152
940.7795366,59.0
940.7951616,65.4100036621094
940.8107866,72.2300033569336
940.8264116,79.6399993896484
940.8420366,87.5100021362305
940.8576616,94.8899993896484
940.8732866,100.080001831055
940.8889116,101.709999084473
940.9045366,99.7799987792969
940.9201616,95.4300003051758
940.9357866,89.9400024414063
940.9514116,83.9899978637695
940.9670366,77.8199996948242
940.9826616,71.4599990844727
940.9982866,64.9400024414063
941.0139116,58.25
941.0295366,51.310001373291
941.0451616,44.0200004577637
941.0607866,36.3899993896484
941.0764116,28.5499992370605
941.0920366,20.6700000762939
941.1076616,12.8699998855591
941.1232866,5.23999977111816
941.1389116,-2.25
941.1545366,-9.8100004196167
941.1701616,-17.6900005340576
941.1857866,-26.1599998474121
941.2014116,-35.2200012207031
941.2170366,-44.5900001525879
941.2326616,-53.7599983215332
941.2482866,-62.310001373291
941.2639116,-70.0500030517578
941.2795366,-76.9400024414063
941.2951616,-82.7900009155273
941.3107866,-87.1100006103516
941.3264116,-89.3600006103516
941.3420366,-89.370002746582
941.3576616,-86.9100036621094
941.3732866,-81.3499984741211
941.3889116,-72.0199966430664
941.4045366,-59.2200012207031
941.4201616,-44.4799995422363
941.4357866,-29.8600006103516
941.4514116,-16.3999996185303
941.4670366,-3.46000003814697
941.4826616,10.0
941.4982866,23.6299991607666
941.5139116,35.6599998474121
941.5295366,44.4700012207031
941.5451616,49.7099990844727
941.5607866,52.2299995422363
941.5764116,53.2400016784668
941.5920366,53.6300010681152
941.6076616,53.5800018310547
941.6232866,53.0499992370605
941.6389116,52.25
941.6545366,51.75
941.6701616,52.189998626709
941.6857866,53.689998626709
941.7014116,55.2999992370605
941.7170366,55.1800003051758
941.7326616,51.6699981689453
941.7482866,44.4099998474121
941.7639116,34.2599983215332
941.7795366,22.4899997711182
941.7951616,10.0799999237061
941.8107866,-2.32999992370605
941.8264116,-14.4200000762939
941.8420366,-26.0
941.8576616,-37.0900001525879
941.8732866,-47.8800010681152
941.8889116,-58.5999984741211
941.9045366,-69.3000030517578
941.9201616,-79.9800033569336
941.9357866,-90.620002746582
941.9514116,-101.23999786377
941.9670366,-111.73999786377
941.9826616,-121.870002746582
941.9982866,-131.339996337891
942.0139116,-140.080001831055
942.0295366,-148.320007324219
942.0451616,-156.380004882813
942.0607866,-164.210006713867
942.0764116,-171.490005493164
942.0920366,-177.820007324219
942.1076616,-183.050003051758
942.1232866,-187.169998168945
942.1389116,-189.869995117188
942.1545366,-190.309997558594
942.1701616,-187.649993896484
942.1857866,-181.699996948242
942.2014116,-172.740005493164
942.2170366,-160.929992675781
942.2326616,-146.350006103516
942.2482866,-129.570007324219
942.2639116,-112.01000213623
942.2795366,-95.5299987792969
942.2951616,-81.2699966430664
942.3107866,-68.8600006103516
942.3264116,-57.3499984741211
942.3420366,-46.6300010681152
942.3576616,-37.4900016784668
942.3732866,-30.7399997711182
942.3889116,-26.3899993896484
942.4045366,-23.7700004577637
942.4201616,-22.2000007629395
942.4357866,-21.4799995422363
942.4514116,-21.8099994659424
942.4670366,-23.3299999237061
942.4826616,-25.7999992370605
942.4982866,-28.7600002288818
942.5139116,-31.7199993133545
942.5295366,-34.3899993896484
942.5451616,-36.8899993896484
942.5607866,-39.6800003051758
942.5764116,-43.3899993896484
942.5920366,-48.1399993896484
942.6076616,-54.1100006103516
942.6232866,-60.7400016784668
942.6389116,-67.3099975585938
942.6545366,-73.2200012207031
942.6701616,-78.1900024414063
942.6857866,-82.3199996948242
942.7014116,-86.0599975585938
942.7170366,-90.1100006103516
942.7326616,-95.0400009155273
942.7482866,-100.98999786377
942.7639116,-107.839996337891
942.7795366,-115.589996337891
942.7951616,-124.26000213623
942.8107866,-133.580001831055
942.8264116,-142.630004882813
942.8420366,-150.070007324219
942.8576616,-155.059997558594
942.8732866,-157.910003662109
942.8889116,-159.600006103516
942.9045366,-160.679992675781
942.9201616,-160.970001220703
942.9357866,-160.029998779297
942.9514116,-157.699996948242
942.9670366,-154.139999389648
942.9826616,-149.490005493164
942.9982866,-143.429992675781
943.0139116,-135.199996948242
943.0295366,-123.959999084473
943.0451616,-109.459999084473
943.0607866,-92.4100036621094
943.0764116,-74.2300033569336
943.0920366,-56.3800010681152
943.1076616,-39.7799987792969
943.1232866,-24.6700000762939
943.1389116,-10.7600002288818
943.1545366,2.46000003814697
943.1701616,15.4499998092651
943.1857866,28.3500003814697
943.2014116,41.0900001525879
943.2170366,53.5
943.2326616,65.4599990844727
943.2482866,76.7699966430664
943.2639116,86.9100036621094
943.2795366,94.9000015258789
943.2951616,99.7900009155273
943.3107866,101.410003662109
943.3264116,100.449996948242
943.3420366,98.0500030517578
943.3576616,95.3099975585938
943.3732866,92.9000015258789
943.3889116,91.0299987792969
943.4045366,89.5599975585938
943.4201616,88.0599975585938
943.4357866,85.9199981689453
943.4514116,82.6999969482422
943.4670366,78.3099975585938
943.4826616,72.9199981689453
943.4982866,66.5699996948242
943.5139116,59.2799987792969
943.5295366,51.2599983215332
943.5451616,43.2200012207031
943.5607866,36.1599998474121
943.5764116,30.6299991607666
943.5920366,25.9799995422363
943.6076616,21.7999992370605
943.6232866,17.7199993133545
943.6389116,14.0600004196167
943.6545366,11.289999961853
943.6701616,9.64000034332275
943.6857866,8.92000007629395
943.7014116,8.76000022888184
943.7170366,8.80000019073486
943.7326616,8.84000015258789
943.7482866,8.89999961853027
943.7639116,9.39999961853027
943.7795366,11.0900001525879
943.7951616,14.6199998855591
943.8107866,20.0900001525879
943.8264116,27.1900005340576
943.8420366,35.6800003051758
943.8576616,45.7099990844727
943.8732866,57.6399993896484
943.8889116,71.3300018310547
943.9045366,85.620002746582
943.9201616,98.879997253418
943.9357866,109.900001525879
943.9514116,118.470001220703
943.9670366,125.110000610352
943.9826616,130.479995727539
943.9982866,134.899993896484
944.0139116,138.309997558594
944.0295366,140.649993896484
944.0451616,142.059997558594
944.0607866,142.899993896484
944.0764116,143.539993286133
944.0920366,144.169998168945
944.1076616,144.630004882813
944.1232866,144.440002441406
944.1389116,143.050003051758
944.1545366,140.169998168945
944.1701616,135.910003662109
944.1857866,130.699996948242
944.2014116,125.089996337891
944.2170366,119.529998779297
944.2326616,114.279998779297
944.2482866,109.349998474121
944.2639116,104.5
944.2795366,99.2900009155273
944.2951616,93.3600006103516
944.3107866,86.5800018310547
944.3264116,79.0500030517578
944.3420366,70.75
944.3576616,61.6599998474121
944.3732866,51.9799995422363
944.3889116,42.3499984741211
944.4045366,33.6800003051758
944.4201616,26.5699996948242
944.4357866,20.7900009155273
944.4514116,15.7200002670288
944.4670366,10.9899997711182
944.4826616,6.75
944.4982866,3.28999996185303
944.5139116,0.689999997615814
944.5295366,-1.23000001907349
944.5451616,-2.97000002861023
944.5607866,-5.1100001335144
944.5764116,-8.11999988555908
944.5920366,-11.8999996185303
944.6076616,-16.0499992370605
944.6232866,-19.8999996185303
944.6389116,-22.8899993896484
944.6545366,-24.7800006866455
944.6701616,-25.3700008392334
944.6857866,-24.2099990844727
944.7014116,-20.6299991607666
944.7170366,-14.0799999237061
944.7326616,-4.71999979019165
944.7482866,6.42000007629395
944.7639116,17.8799991607666
944.7795366,28.3999996185303
944.7951616,37.4000015258789
944.8107866,44.9500007629395
944.8264116,51.560001373291
944.8420366,57.8800010681152
944.8576616,64.3399963378906
944.8732866,71.0400009155273
944.8889116,77.8199996948242
944.9045366,84.5
944.9201616,90.9400024414063
944.9357866,96.9700012207031
944.9514116,102.069999694824
944.9670366,105.309997558594
944.9826616,105.870002746582
944.9982866,103.650001525879
945.0139116,99.3300018310547
945.0295366,93.870002746582
945.0451616,88.0999984741211
945.0607866,82.5100021362305
945.0764116,77.2399978637695
945.0920366,72.2200012207031
945.1076616,67.2099990844727
945.1232866,61.8300018310547
945.1389116,55.7900009155273
945.1545366,49.060001373291
945.1701616,41.7299995422363
945.1857866,33.8699989318848
945.2014116,25.4899997711182
945.2170366,16.7399997711182
945.2326616,8.0600004196167
945.2482866,0.0
945.2639116,-7.09999990463257
945.2795366,-13.4899997711182
945.2951616,-19.6200008392334
945.3107866,-25.6599998474121
945.3264116,-31.3400001525879
945.3420366,-36.3199996948242
945.3576616,-40.4599990844727
945.3732866,-43.9099998474121
945.3889116,-47.0499992370605
945.4045366,-50.4099998474121
945.4201616,-54.3699989318848
945.4357866,-58.9700012207031
945.4514116,-63.9199981689453
945.4670366,-68.7900009155273
945.4826616,-73.2300033569336
945.4982866,-77.0199966430664
945.5139116,-79.8300018310547
945.5295366,-81.0699996948242
945.5451616,-79.9499969482422
945.5607866,-75.9800033569336
945.5764116,-69.2600021362305
945.5920366,-60.1800003051758
945.6076616,-50.1699981689453
945.6232866,-39.7400016784668
945.6389116,-28.9599990844727
945.6545366,-17.9200000762939
945.6701616,-7.13000011444092
945.6857866,2.50999999046326
945.7014116,10.2799997329712
945.7170366,16.0300006866455
945.7326616,20.0900001525879
945.7482866,22.7199993133545
945.7639116,24.0
945.7795366,24.0499992370605
945.7951616,23.2000007629395
945.8107866,21.8700008392334
945.8264116,20.3600006103516
945.8420366,18.7199993133545
945.8576616,16.8299999237061
945.8732866,14.5799999237061
945.8889116,11.9300003051758
945.9045366,8.86999988555908
945.9201616,5.40000009536743
945.9357866,1.63999998569489
945.9514116,-2.22000002861023
945.9670366,-6.03000020980835
945.9826616,-9.76000022888184
945.9982866,-13.6000003814697
946.0139116,-17.75
946.0295366,-22.0900001525879
946.0451616,-26.3099994659424
946.0607866,-30.0699996948242
946.0764116,-33.2200012207031
946.0920366,-35.8800010681152
946.1076616,-38.3499984741211
946.1232866,-41.0900001525879
946.1389116,-44.4700012207031
946.1545366,-48.5499992370605
946.1701616,-53.2700004577637
946.1857866,-58.6100006103516
946.2014116,-64.629997253418
946.2170366,-71.1399993896484
946.2326616,-77.5199966430664
946.2482866,-82.8600006103516
946.2639116,-86.5400009155273
946.2795366,-88.7799987792969
946.2951616,-90.2399978637695
946.3107866,-91.379997253418
946.3264116,-92.1699981689453
946.3420366,-92.370002746582
946.3576616,-91.879997253418
946.3732866,-90.7200012207031
946.3889116,-88.7600021362305
946.4045366,-85.4700012207031
946.4201616,-80.3000030517578
946.4357866,-73.1800003051758
946.4514116,-64.4800033569336
946.4670366,-54.689998626709
946.4826616,-44.2099990844727
946.4982866,-33.4199981689453
946.5139116,-22.8999996185303
946.5295366,-13.2600002288818
946.5451616,-4.94000005722046
946.5607866,2.09999990463257
946.5764116,8.14000034332275
946.5920366,13.25
946.6076616,17.2999992370605
946.6232866,20.25
946.6389116,22.2600002288818
946.6545366,23.6700000762939
946.6701616,24.7099990844727
946.6857866,25.3799991607666
946.7014116,25.5499992370605
946.7170366,25.1100006103516
946.7326616,24.0900001525879
946.7482866,22.5699996948242
946.7639116,20.6200008392334
946.7795366,18.3700008392334
946.7951616,16.0300006866455
946.8107866,13.7600002288818
946.8264116,11.5900001525879
946.8420366,9.3100004196167
946.8576616,6.71000003814697
946.8732866,3.82999992370605
946.8889116,0.970000028610229
946.9045366,-1.55999994277954
946.9201616,-3.61999988555908
946.9357866,-5.28000020980835
946.9514116,-6.82000017166138
946.9670366,-8.67000007629395
946.9826616,-11.1899995803833
946.9982866,-14.4499998092651
947.0139116,-18.3799991607666
947.0295366,-22.9799995422363
947.0451616,-28.2900009155273
947.0607866,-34.1300010681152
947.0764116,-39.8899993896484
947.0920366,-44.6800003051758
947.1076616,-47.8899993896484
947.1232866,-49.7200012207031
947.1389116,-50.8199996948242
947.1545366,-51.6300010681152
947.1701616,-52.1399993896484
947.1857866,-52.1399993896484
947.2014116,-51.5
947.2170366,-50.3300018310547
947.2326616,-48.7799987792969
947.2482866,-46.9300003051758
947.2639116,-44.7999992370605
947.2795366,-42.3899993896484
947.2951616,-39.7700004577637
947.3107866,-37.0699996948242
947.3264116,-34.3800010681152
947.3420366,-31.7000007629395
947.3576616,-28.6399993896484
947.3732866,-24.3799991607666
947.3889116,-18.1700000762939
947.4045366,-9.89000034332275
947.4201616,-0.0900000035762787
947.4357866,10.4200000762939
947.4514116,20.9799995422363
947.4670366,31.1000003814697
947.4826616,40.3199996948242
947.4982866,48.0499992370605
947.5139116,53.8600006103516
947.5295366,57.7099990844727
947.5451616,59.9599990844727
947.5607866,61.0499992370605
947.5764116,61.2900009155273
947.5920366,60.9799995422363
947.6076616,60.1800003051758
947.6232866,59.0699996948242
947.6389116,57.7999992370605
947.6545366,56.5099983215332
947.6701616,55.1699981689453
947.6857866,53.6399993896484
947.7014116,51.75
947.7170366,49.5200004577637
947.7326616,47.1500015258789
947.7482866,44.8600006103516
947.7639116,42.7799987792969
947.7795366,40.9099998474121
947.7951616,39.060001373291
947.8107866,36.9000015258789
947.8264116,34.1399993896484
947.8420366,30.7099990844727
947.8576616,26.6399993896484
947.8732866,21.9200000762939
947.8889116,16.4799995422363
947.9045366,10.4899997711182
947.9201616,4.48000001907349
947.9357866,-0.800000011920929
947.9514116,-4.86999988555908
947.9670366,-7.8899998664856
947.9826616,-10.4099998474121
947.9982866,-12.7299995422363
948.0139116,-14.7600002288818
948.0295366,-16.25
948.0451616,-17.1200008392334
948.0607866,-17.4599990844727
948.0764116,-17.5400009155273
948.0920366,-17.6100006103516
948.1076616,-17.8400001525879
948.1232866,-18.2199993133545
948.1389116,-18.5200004577637
948.1545366,-18.3400001525879
948.1701616,-17.3299999237061
948.1857866,-15.3999996185303
948.2014116,-12.5799999237061
948.2170366,-8.80000019073486
948.2326616,-3.84999990463257
948.2482866,2.45000004768372
948.2639116,9.89999961853027
948.2795366,17.7800006866455
948.2951616,25.1499996185303
948.3107866,31.3899993896484
948.3264116,36.3699989318848
948.3420366,40.3600006103516
948.3576616,43.6800003051758
948.3732866,46.4599990844727
948.3889116,48.6599998474121
948.4045366,50.2099990844727
948.4201616,51.189998626709
948.4357866,51.7299995422363
948.4514116,51.9900016784668
948.4670366,52.0999984741211
948.4826616,52.0499992370605
948.4982866,51.7200012207031
948.5139116,50.8800010681152
948.5295366,49.3499984741211
948.5451616,47.0699996948242
948.5607866,44.2099990844727
948.5764116,40.9599990844727
948.5920366,37.689998626709
948.6076616,33.9300003051758
948.6232866,29.6900005340576
948.6389116,25.2299995422363
948.6545366,20.9099998474121
948.6701616,16.9500007629395
948.6857866,13.1700000762939
948.7014116,9.25
948.7170366,5.1399998664856
948.7326616,1.12999999523163
948.7482866,-2.40000009536743
948.7639116,-5.30000019073486
948.7795366,-7.67999982833862
948.7951616,-9.82999992370605
948.8107866,-12.1999998092651
948.8264116,-15.0900001525879
948.8420366,-18.5799999237061
948.8576616,-22.6700000762939
948.8732866,-27.4599990844727
948.8889116,-33.0699996948242
948.9045366,-39.3499984741211
948.9201616,-45.6500015258789
948.9357866,-50.8899993896484
948.9514116,-54.0699996948242
948.9670366,-54.7900009155273
948.9826616,-53.2400016784668
948.9982866,-49.8699989318848
949.0139116,-45.1599998474121
949.0295366,-39.6399993896484
949.0451616,-33.8199996948242
949.0607866,-28.1100006103516
949.0764116,-22.5499992370605
949.0920366,-16.8500003814697
949.1076616,-10.5799999237061
949.1232866,-3.61999988555908
949.1389116,3.8199999332428
949.1545366,11.3500003814697
949.1701616,18.5699996948242
949.1857866,25.2099990844727
949.2014116,30.9500007629395
949.2170366,35.3699989318848
949.2326616,38.0800018310547
949.2482866,39.0900001525879
949.2639116,38.810001373291
949.2795366,37.8300018310547
949.2951616,36.6599998474121
949.3107866,35.5800018310547
949.3264116,34.6699981689453
949.3420366,33.8300018310547
949.3576616,32.8600006103516
949.3732866,31.4799995422363
949.3889116,29.4699993133545
949.4045366,26.8199996948242
949.4201616,23.5900001525879
949.4357866,19.8400001525879
949.4514116,15.5799999237061
949.4670366,10.8999996185303
949.4826616,6.17000007629395
949.4982866,1.82000005245209
949.5139116,-1.86000001430511
949.5295366,-5.09000015258789
949.5451616,-8.26000022888184
949.5607866,-11.4899997711182
949.5764116,-14.5799999237061
949.5920366,-17.3899993896484
949.6076616,-19.6599998474121
949.6232866,-21.4500007629395
949.6389116,-23.0900001525879
949.6545366,-24.9899997711182
949.6701616,-27.5
949.6857866,-30.6700000762939
949.7014116,-34.2299995422363
949.7170366,-37.7400016784668
949.7326616,-40.8400001525879
949.7482866,-43.310001373291
949.7639116,-44.9000015258789
949.7795366,-45.0999984741211
949.7951616,-43.25
949.8107866,-38.9500007629395
949.8264116,-32.3199996948242
949.8420366,-24.1399993896484
949.8576616,-15.5100002288818
949.8732866,-7.3600001335144
949.8889116,-0.150000005960464
949.9045366,6.09999990463257
949.9201616,11.710000038147
949.9357866,17.0499992370605
949.9514116,22.3799991607666
949.9670366,27.7700004577637
949.9826616,33.1100006103516
949.9982866,38.2700004577637
950.0139116,43.1699981689453
950.0295366,47.689998626709
950.0451616,51.5299987792969
950.0607866,54.0999984741211
950.0764116,54.8800010681152
950.0920366,53.7799987792969
950.1076616,51.25
950.1232866,47.939998626709
950.1389116,44.4700012207031
950.1545366,41.189998626709
950.1701616,38.189998626709
950.1857866,35.3899993896484
950.2014116,32.5200004577637
950.2170366,29.25
950.2326616,25.3199996948242
950.2482866,20.6800003051758
950.2639116,15.4499998092651
950.2795366,9.69999980926514
950.2951616,3.46000003814697
950.3107866,-3.11999988555908
950.3264116,-9.67000007629395
950.3420366,-15.6499996185303
950.3576616,-20.75
950.3732866,-25.1800003051758
950.3889116,-29.4099998474121
950.4045366,-33.5999984741211
950.4201616,-37.560001373291
950.4357866,-40.9799995422363
950.4514116,-43.7099990844727
950.4670366,-45.8499984741211
950.4826616,-47.7000007629395
950.4982866,-49.6500015258789
950.5139116,-51.9900016784668
950.5295366,-54.7000007629395
950.5451616,-57.3800010681152
950.5607866,-59.310001373291
950.5764116,-59.8499984741211
950.5920366,-59.3899993896484
950.6076616,-57.3699989318848
950.6232866,-53.7700004577637
950.6389116,-48.2799987792969
950.6545366,-40.4700012207031
950.6701616,-30.4300003051758
950.6857866,-19.0699996948242
950.7014116,-7.59999990463257
950.7170366,3.33999991416931
950.7326616,13.8999996185303
950.7482866,24.3799991607666
950.7639116,34.5999984741211
