Time(s),Value(%)
70.0056241,-19.6599998474121
70.0212491,-9.61999988555908
70.0368741,5.42000007629395
70.0524991,22.9500007629395
70.0681241,39.7599983215332
70.0837491,53.2599983215332
70.0993741,62.0200004577637
70.1149991,65.7600021362305
70.1306241,65.129997253418
70.1462491,61.3400001525879
70.1618741,55.3800010681152
70.1774991,47.5
70.1931241,37.2400016784668
70.2087491,24.4400005340576
70.2243741,10.0500001907349
70.2399991,-4.13000011444092
70.2556241,-16.3500003814697
70.2712491,-25.3500003814697
70.2868741,-30.6800003051758
70.3024991,-32.7999992370605
70.3181241,-32.810001373291
70.3337491,-31.9899997711182
70.3493741,-31.1100006103516
70.3649991,-30.3400001525879
70.3806241,-29.7299995422363
70.3962491,-29.5100002288818
70.4118741,-30.0300006866455
70.4274991,-31.3500003814697
70.4431241,-33.060001373291
70.4587491,-34.3800010681152
70.4743741,-34.4199981689453
70.4899991,-32.5499992370605
70.5056241,-28.5699996948242
70.5212491,-23.0400009155273
70.5368741,-17.3099994659424
70.5524991,-12.6499996185303
70.5681241,-9.02999973297119
70.5837491,-4.59000015258789
70.5993741,3.21000003814697
70.6149991,15.4099998474121
70.6306241,30.4200000762939
70.6462491,44.8499984741211
70.6618741,55.2299995422363
70.6774991,59.6500015258789
70.6931241,58.4900016784668
70.7087491,54.0
70.7243741,48.8300018310547
70.7399991,44.3400001525879
70.7556241,40.1800003051758
70.7712491,35.0099983215332
70.7868741,27.7399997711182
70.8024991,18.3099994659424
70.8181241,7.71000003814697
70.8337491,-2.6800000667572
70.8493741,-11.7200002670288
70.8649991,-18.5699996948242
70.8806241,-22.9099998474121
70.8962491,-25.25
70.9118741,-26.6499996185303
70.9274991,-27.8700008392334
70.9431241,-28.8199996948242
70.9587491,-28.7600002288818
70.9743741,-27.0300006866455
70.9899991,-23.6100006103516
71.0056241,-19.25
71.0212491,-15.0299997329712
71.0368741,-11.9200000762939
71.0524991,-10.6499996185303
71.0681241,-11.4799995422363
71.0837491,-13.8599996566772
71.0993741,-16.5200004577637
71.1149991,-18.1800003051758
71.1306241,-18.0799999237061
71.1462491,-15.7700004577637
71.1618741,-10.7200002670288
71.1774991,-2.39000010490417
71.1931241,9.03999996185303
71.2087491,22.3400001525879
71.2243741,35.6199989318848
71.2399991,46.8199996948242
71.2556241,54.3699989318848
71.2712491,57.7099990844727
71.2868741,57.439998626709
71.3024991,54.8300018310547
71.3181241,51.1199989318848
71.3337491,47.0299987792969
71.3493741,42.4500007629395
71.3649991,36.5
71.3806241,28.1200008392334
71.3962491,16.9799995422363
71.4118741,4.07999992370605
71.4274991,-8.57999992370605
71.4431241,-18.9500007629395
71.4587491,-25.7099990844727
71.4743741,-28.5900001525879
71.4899991,-28.1599998474121
71.5056241,-25.4400005340576
71.5212491,-21.6800003051758
71.5368741,-18.0599994659424
71.5524991,-15.4099998474121
71.5681241,-14.0799999237061
71.5837491,-14.1499996185303
71.5993741,-15.5699996948242
71.6149991,-18.1299991607666
71.6306241,-21.3299999237061
71.6462491,-24.4099998474121
71.6618741,-26.5900001525879
71.6774991,-27.3500003814697
71.6931241,-26.6000003814697
71.7087491,-24.6399993896484
71.7243741,-21.8199996948242
71.7399991,-18.0400009155273
71.7556241,-12.4300003051758
71.7712491,-3.80999994277954
71.7868741,8.05000019073486
71.8024991,21.7000007629395
71.8181241,34.4700012207031
71.8337491,44.0900001525879
71.8493741,49.7299995422363
71.8649991,51.8499984741211
71.8806241,51.2299995422363
71.8962491,48.0699996948242
71.9118741,42.2400016784668
71.9274991,34.0099983215332
71.9431241,24.3799991607666
71.9587491,14.5500001907349
71.9743741,5.42999982833862
71.9899991,-2.38000011444092
72.0056241,-8.56999969482422
72.0212491,-13.1099996566772
72.0368741,-16.3500003814697
72.0524991,-18.6800003051758
72.0681241,-20.0599994659424
72.0837491,-19.9099998474121
72.0993741,-17.7600002288818
72.1149991,-14.1800003051758
72.1306241,-10.6899995803833
72.1462491,-8.68000030517578
72.1618741,-8.61999988555908
72.1774991,-10.1099996566772
72.1931241,-12.25
72.2087491,-14.210000038147
72.2243741,-15.7299995422363
72.2399991,-16.9300003051758
72.2556241,-17.7000007629395
72.2712491,-17.6800003051758
72.2868741,-16.5499992370605
72.3024991,-13.8999996185303
72.3181241,-8.93000030517578
72.3337491,-0.939999997615814
72.3493741,9.76000022888184
72.3649991,21.5799999237061
72.3806241,32.310001373291
72.3962491,40.2099990844727
72.4118741,44.6300010681152
72.4274991,45.9799995422363
72.4431241,44.9599990844727
72.4587491,41.8600006103516
72.4743741,36.6599998474121
72.4899991,29.6800003051758
72.5056241,21.7399997711182
72.5212491,13.7799997329712
72.5368741,6.09999990463257
72.5524991,-1.72000002861023
72.5681241,-10.0699996948242
72.5837491,-18.3299999237061
72.5993741,-24.9899997711182
72.6149991,-28.75
72.6306241,-29.4400005340576
72.6462491,-28.2999992370605
72.6618741,-27.1000003814697
72.6774991,-27.1100006103516
72.6931241,-28.4300003051758
72.7087491,-30.1000003814697
72.7243741,-30.7000007629395
72.7399991,-29.2700004577637
72.7556241,-26.1000003814697
72.7712491,-22.2999992370605
72.7868741,-19.0
72.8024991,-16.8600006103516
72.8181241,-16.1499996185303
72.8337491,-16.6299991607666
72.8493741,-17.2099990844727
72.8649991,-15.960000038147
72.8806241,-10.9899997711182
72.8962491,-1.6599999666214
72.9118741,10.6300001144409
72.9274991,23.0100002288818
72.9431241,32.5699996948242
72.9587491,37.9199981689453
72.9743741,39.4799995422363
72.9899991,38.7599983215332
73.0056241,37.4000015258789
73.0212491,36.1500015258789
73.0368741,34.4300003051758
73.0524991,31.0799999237061
73.0681241,25.4899997711182
73.0837491,18.2299995422363
73.0993741,10.5699996948242
73.1149991,3.61999988555908
73.1306241,-2.14000010490417
73.1462491,-6.73000001907349
73.1618741,-10.289999961853
73.1774991,-13.1700000762939
73.1931241,-16.0200004577637
73.2087491,-19.3500003814697
73.2243741,-23.0300006866455
73.2399991,-26.4899997711182
73.2556241,-29.2299995422363
73.2712491,-31.1900005340576
73.2868741,-32.5499992370605
73.3024991,-33.5200004577637
73.3181241,-34.2400016784668
73.3337491,-34.6500015258789
73.3493741,-34.4500007629395
73.3649991,-33.2599983215332
73.3806241,-30.9699993133545
73.3962491,-27.7900009155273
73.4118741,-24.0900001525879
73.4274991,-20.0
73.4431241,-15.0299997329712
73.4587491,-7.96999979019165
73.4743741,2.34999990463257
73.4899991,15.9099998474121
73.5056241,30.7900009155273
73.5212491,43.9099998474121
73.5368741,52.4000015258789
73.5524991,55.0099983215332
73.5681241,52.3899993896484
73.5837491,46.5099983215332
73.5993741,39.5999984741211
73.6149991,33.1100006103516
73.6306241,27.2399997711182
73.6462491,21.1499996185303
73.6618741,13.8199996948242
73.6774991,4.98000001907349
73.6931241,-4.28999996185303
73.7087491,-12.1000003814697
73.7243741,-16.8199996948242
73.7399991,-18.1700000762939
73.7556241,-17.2600002288818
73.7712491,-15.6999998092651
73.7868741,-14.7600002288818
73.8024991,-14.7399997711182
73.8181241,-14.960000038147
73.8337491,-14.3100004196167
73.8493741,-12.039999961853
73.8649991,-8.25
73.8806241,-3.67000007629395
73.8962491,0.730000019073486
73.9118741,4.17999982833862
73.9274991,6.09000015258789
73.9431241,6.07000017166138
73.9587491,4.07999992370605
73.9743741,0.490000009536743
73.9899991,-3.89000010490417
74.0056241,-8.11999988555908
74.0212491,-11.0500001907349
74.0368741,-11.1300001144409
74.0524991,-6.55000019073486
74.0681241,3.59999990463257
74.0837491,17.9400005340576
74.0993741,32.8499984741211
74.1149991,44.2599983215332
74.1306241,49.7700004577637
74.1462491,49.5400009155273
74.1618741,45.4700012207031
74.1774991,39.3800010681152
74.1931241,31.9899997711182
74.2087491,23.1900005340576
74.2243741,13.0
74.2399991,1.97000002861023
74.2556241,-8.9399995803833
74.2712491,-18.8299999237061
74.2868741,-27.2600002288818
74.3024991,-34.3199996948242
74.3181241,-40.2200012207031
74.3337491,-44.8199996948242
74.3493741,-47.810001373291
74.3649991,-49.189998626709
74.3806241,-49.3699989318848
74.3962491,-48.6599998474121
74.4118741,-46.9199981689453
74.4274991,-43.6699981689453
74.4431241,-38.9199981689453
74.4587491,-33.5099983215332
74.4743741,-28.7000007629395
74.4899991,-25.1000003814697
74.5056241,-22.3700008392334
74.5212491,-19.7999992370605
74.5368741,-17.1200008392334
74.5524991,-14.7700004577637
74.5681241,-13.4899997711182
74.5837491,-13.4300003051758
74.5993741,-13.7299995422363
74.6149991,-12.7399997711182
74.6306241,-8.56999969482422
74.6462491,0.0099999997764825
74.6618741,12.7299995422363
74.6774991,27.5200004577637
74.6931241,41.3600006103516
74.7087491,51.3199996948242
74.7243741,55.6500015258789
74.7399991,54.5299987792969
74.7556241,49.8400001525879
74.7712491,43.8199996948242
74.7868741,37.7700004577637
74.8024991,31.6900005340576
74.8181241,24.7099990844727
74.8337491,16.1599998474121
74.8493741,6.13000011444092
74.8649991,-4.38000011444092
74.8806241,-13.9499998092651
74.8962491,-21.3400001525879
74.9118741,-26.0300006866455
74.9274991,-28.3600006103516
74.9431241,-29.0300006866455
74.9587491,-28.6700000762939
74.9743741,-27.7099990844727
74.9899991,-26.5900001525879
75.0056241,-25.6299991607666
75.0212491,-24.7600002288818
75.0368741,-23.7700004577637
75.0524991,-22.75
75.0681241,-21.8700008392334
75.0837491,-20.8799991607666
75.0993741,-19.4899997711182
75.1149991,-17.7999992370605
75.1306241,-16.3099994659424
75.1462491,-15.4700002670288
75.1618741,-15.1899995803833
75.1774991,-14.6999998092651
75.1931241,-12.5900001525879
75.2087491,-7.25
75.2243741,2.5
75.2399991,16.4799995422363
75.2556241,32.7799987792969
75.2712491,48.4300003051758
75.2868741,60.5999984741211
75.3024991,67.6900024414063
75.3181241,69.5599975585938
75.3337491,67.0199966430664
75.3493741,61.25
75.3649991,53.2400016784668
75.3806241,43.2999992370605
75.3962491,31.4300003051758
75.4118741,18.2800006866455
75.4274991,5.5
75.4431241,-4.98000001907349
75.4587491,-11.8999996185303
75.4743741,-14.9799995422363
75.4899991,-15.0600004196167
75.5056241,-13.5699996948242
75.5212491,-11.8800001144409
75.5368741,-10.8000001907349
75.5524991,-10.6400003433228
75.5681241,-11.4099998474121
75.5837491,-13.0900001525879
75.5993741,-15.5600004196167
75.6149991,-18.5699996948242
75.6306241,-21.7299995422363
75.6462491,-24.6000003814697
75.6618741,-26.6900005340576
75.6774991,-27.5799999237061
75.6931241,-27.2800006866455
75.7087491,-26.2999992370605
75.7243741,-25.0
75.7399991,-23.1000003814697
75.7556241,-19.8700008392334
75.7712491,-14.3699998855591
75.7868741,-5.44999980926514
75.8024991,7.69999980926514
75.8181241,24.4200000762939
75.8337491,41.9700012207031
75.8493741,56.4900016784668
75.8649991,65.0400009155273
75.8806241,66.9700012207031
75.8962491,63.75
75.9118741,57.7200012207031
75.9274991,50.7299995422363
75.9431241,43.560001373291
75.9587491,35.8400001525879
75.9743741,26.6499996185303
75.9899991,15.6599998474121
76.0056241,3.85999989509583
76.0212491,-6.67999982833862
76.0368741,-14.1300001144409
76.0524991,-18.0799999237061
76.0681241,-19.6200008392334
76.0837491,-20.5200004577637
76.0993741,-22.1599998474121
76.1149991,-24.9099998474121
76.1306241,-28.0
76.1462491,-30.1299991607666
76.1618741,-30.6200008392334
76.1774991,-29.9500007629395
76.1931241,-29.3600006103516
76.2087491,-29.7099990844727
76.2243741,-30.7800006866455
76.2399991,-31.5200004577637
76.2556241,-30.7999992370605
76.2712491,-28.0599994659424
76.2868741,-23.6100006103516
76.3024991,-18.2900009155273
76.3181241,-12.5299997329712
76.3337491,-5.73000001907349
76.3493741,3.22000002861023
76.3649991,14.7700004577637
76.3806241,27.9500007629395
76.3962491,40.5699996948242
76.4118741,50.3300018310547
76.4274991,56.0699996948242
76.4431241,58.0299987792969
76.4587491,57.1300010681152
76.4743741,54.0
76.4899991,48.4799995422363
76.5056241,40.2000007629395
76.5212491,29.4099998474121
76.5368741,17.3799991607666
76.5524991,5.13000011444092
76.5681241,-8.34000015258789
76.5837491,-24.4099998474121
76.5993741,-40.1800003051758
76.6149991,-48.6599998474121
76.6306241,-45.2099990844727
76.6462491,-31.8799991607666
76.6618741,-15.460000038147
76.6774991,-2.90000009536743
76.6931241,1.97000002861023
76.7087491,-0.519999980926514
76.7243741,-7.09000015258789
76.7399991,-13.4499998092651
76.7556241,-16.5499992370605
76.7712491,-15.6199998855591
76.7868741,-11.710000038147
76.8024991,-6.69999980926514
76.8181241,-2.53999996185303
76.8337491,-0.689999997615814
76.8493741,-1.35000002384186
76.8649991,-3.08999991416931
76.8806241,-3.32999992370605
76.8962491,0.280000001192093
76.9118741,8.19999980926514
76.9274991,18.4799995422363
76.9431241,27.9099998474121
76.9587491,32.7900009155273
76.9743741,28.9799995422363
76.9899991,15.7700004577637
77.0056241,0.769999980926514
77.0212491,-4.98999977111816
77.0368741,2.45000004768372
77.0524991,16.7700004577637
77.0681241,26.3500003814697
77.0837491,23.2299995422363
77.0993741,9.31999969482422
77.1149991,-6.71000003814697
77.1306241,-17.5400009155273
77.1462491,-21.4799995422363
77.1618741,-21.1599998474121
77.1774991,-20.2000007629395
77.1931241,-20.6599998474121
77.2087491,-22.6200008392334
77.2243741,-25.5599994659424
77.2399991,-29.4799995422363
77.2556241,-34.939998626709
77.2712491,-42.1800003051758
77.2868741,-50.2599983215332
77.3024991,-57.2700004577637
77.3181241,-61.4300003051758
77.3337491,-61.9300003051758
77.3493741,-58.8300018310547
77.3649991,-52.9300003051758
77.3806241,-45.5299987792969
77.3962491,-37.8499984741211
77.4118741,-30.1100006103516
77.4274991,-21.1599998474121
77.4431241,-9.27000045776367
77.4587491,6.26000022888184
77.4743741,24.0799999237061
77.4899991,41.2700004577637
77.5056241,54.8899993896484
77.5212491,63.4199981689453
77.5368741,66.9300003051758
77.5524991,66.5100021362305
77.5681241,63.4000015258789
77.5837491,58.5099983215332
77.5993741,52.1800003051758
77.6149991,44.2700004577637
77.6306241,34.4700012207031
77.6462491,23.0300006866455
77.6618741,11.0100002288818
77.6774991,-0.0399999991059303
77.6931241,-9.10000038146973
77.7087491,-16.1299991607666
77.7243741,-21.5300006866455
77.7399991,-25.4899997711182
77.7556241,-28.0
77.7712491,-29.25
77.7868741,-29.7000007629395
77.8024991,-29.7900009155273
77.8181241,-29.7800006866455
77.8337491,-29.6100006103516
77.8493741,-29.1399993896484
77.8649991,-28.2700004577637
77.8806241,-27.1499996185303
77.8962491,-26.1700000762939
77.9118741,-25.7399997711182
77.9274991,-25.9899997711182
77.9431241,-26.5900001525879
77.9587491,-26.6299991607666
77.9743741,-24.5
77.9899991,-18.1800003051758
78.0056241,-6.19000005722046
78.0212491,11.1300001144409
78.0368741,31.0300006866455
78.0524991,49.2099990844727
78.0681241,61.9099998474121
78.0837491,67.5
78.0993741,66.7799987792969
78.1149991,61.9700012207031
78.1306241,55.3300018310547
78.1462491,47.9700012207031
78.1618741,39.4900016784668
78.1774991,28.7800006866455
78.1931241,15.0900001525879
78.2087491,-0.439999997615814
78.2243741,-13.9799995422363
78.2399991,-21.3899993896484
78.2556241,-21.8700008392334
78.2712491,-18.4899997711182
78.2868741,-15.6800003051758
78.3024991,-16.3099994659424
78.3181241,-20.5400009155273
78.3337491,-26.4699993133545
78.3493741,-31.6800003051758
78.3649991,-34.4900016784668
78.3806241,-34.75
78.3962491,-33.6399993896484
78.4118741,-32.689998626709
78.4274991,-32.8899993896484
78.4431241,-34.1699981689453
78.4587491,-35.5900001525879
78.4743741,-35.7799987792969
78.4899991,-33.7200012207031
78.5056241,-29.0599994659424
78.5212491,-21.8299999237061
78.5368741,-11.789999961853
78.5524991,1.35000002384186
78.5681241,16.9599990844727
78.5837491,33.0699996948242
78.5993741,47.1199989318848
78.6149991,57.1300010681152
78.6306241,62.3499984741211
78.6462491,62.8499984741211
78.6618741,59.0499992370605
78.6774991,51.9099998474121
78.6931241,42.8600006103516
78.7087491,33.189998626709
78.7243741,23.4599990844727
78.7399991,13.710000038147
78.7556241,3.97000002861023
78.7712491,-5.21999979019165
78.7868741,-13.0200004577637
78.8024991,-18.5900001525879
78.8181241,-21.5400009155273
78.8337491,-22.1599998474121
78.8493741,-21.4699993133545
78.8649991,-20.8899993896484
78.8806241,-21.6100006103516
78.8962491,-24.0799999237061
78.9118741,-27.7199993133545
78.9274991,-31.0499992370605
78.9431241,-32.3199996948242
78.9587491,-30.4200000762939
78.9743741,-25.7700004577637
78.9899991,-20.1000003814697
79.0056241,-15.3299999237061
79.0212491,-12.460000038147
79.0368741,-11.4399995803833
79.0524991,-11.1800003051758
79.0681241,-9.59000015258789
79.0837491,-4.30000019073486
79.0993741,5.8899998664856
79.1149991,19.9500007629395
79.1306241,34.9500007629395
79.1462491,47.6699981689453
79.1618741,56.0999984741211
79.1774991,59.8600006103516
79.1931241,59.6300010681152
79.2087491,56.3899993896484
79.2243741,51.2400016784668
79.2399991,45.3800010681152
79.2556241,39.6699981689453
79.2712491,34.0299987792969
79.2868741,27.6100006103516
79.3024991,19.6700000762939
79.3181241,10.3000001907349
79.3337491,0.479999989271164
79.3493741,-8.44999980926514
79.3649991,-15.3500003814697
79.3806241,-19.3700008392334
79.3962491,-20.3799991607666
79.4118741,-19.3999996185303
79.4274991,-18.1499996185303
79.4431241,-17.9599990844727
79.4587491,-19.1299991607666
79.4743741,-21.3400001525879
79.4899991,-24.1800003051758
79.5056241,-27.1200008392334
79.5212491,-29.3899993896484
79.5368741,-30.2999992370605
79.5524991,-29.7000007629395
79.5681241,-27.8999996185303
79.5837491,-24.8899993896484
79.5993741,-19.7700004577637
79.6149991,-11.1199998855591
79.6306241,1.73000001907349
79.6462491,17.7299995422363
79.6618741,34.0299987792969
79.6774991,47.4500007629395
79.6931241,55.9199981689453
79.7087491,59.2799987792969
79.7243741,58.7700004577637
79.7399991,55.7900009155273
79.7556241,51.0200004577637
79.7712491,44.5699996948242
79.7868741,36.5699996948242
79.8024991,27.3199996948242
79.8181241,17.0900001525879
79.8337491,6.05000019073486
79.8493741,-5.36999988555908
79.8649991,-16.1000003814697
79.8806241,-24.6599998474121
79.8962491,-30.1000003814697
79.9118741,-32.5299987792969
79.9274991,-32.8199996948242
79.9431241,-31.9400005340576
79.9587491,-30.6100006103516
79.9743741,-29.2700004577637
79.9899991,-28.2900009155273
80.0056241,-27.9799995422363
80.0212491,-28.3999996185303
80.0368741,-29.25
80.0524991,-30.0400009155273
80.0681241,-30.3099994659424
80.0837491,-29.7800006866455
80.0993741,-28.2600002288818
80.1149991,-25.3999996185303
80.1306241,-20.4200000762939
80.1462491,-12.3299999237061
80.1618741,-0.660000026226044
80.1774991,13.75
80.1931241,28.6599998474121
80.2087491,41.25
80.2243741,49.4900016784668
80.2399991,52.9199981689453
80.2556241,52.3699989318848
80.2712491,49.0999984741211
80.2868741,44.3499984741211
80.3024991,39.2000007629395
80.3181241,34.25
80.3337491,29.1800003051758
80.3493741,23.0200004577637
80.3649991,15.0500001907349
80.3806241,5.65999984741211
80.3962491,-3.71000003814697
80.4118741,-11.6899995803833
80.4274991,-18.1200008392334
80.4431241,-23.9599990844727
80.4587491,-29.9699993133545
80.4743741,-35.7999992370605
80.4899991,-40.2099990844727
80.5056241,-41.9799995422363
80.5212491,-40.4500007629395
80.5368741,-36.0
80.5524991,-30.2399997711182
80.5681241,-25.2900009155273
80.5837491,-22.7600002288818
80.5993741,-23.0100002288818
80.6149991,-25.3899993896484
80.6306241,-28.7199993133545
80.6462491,-31.8099994659424
80.6618741,-33.3199996948242
80.6774991,-31.7199993133545
80.6931241,-25.5100002288818
80.7087491,-14.1400003433228
80.7243741,1.20000004768372
80.7399991,17.5900001525879
80.7556241,31.5699996948242
80.7712491,40.8699989318848
80.7868741,45.310001373291
80.8024991,46.3499984741211
80.8181241,45.5800018310547
80.8337491,43.560001373291
80.8493741,39.8499984741211
80.8649991,33.9599990844727
80.8806241,26.1000003814697
80.8962491,17.0100002288818
80.9118741,7.73999977111816
80.9274991,-0.5
80.9431241,-6.90000009536743
80.9587491,-11.6199998855591
80.9743741,-15.6199998855591
80.9899991,-19.6499996185303
81.0056241,-23.6499996185303
81.0212491,-27.0799999237061
81.0368741,-29.7099990844727
81.0524991,-31.6700000762939
81.0681241,-32.8499984741211
81.0837491,-32.810001373291
81.0993741,-31.4099998474121
