Time(s),Value(%)
70.0056241,-0.709999978542328
70.0212491,-2.60999989509583
70.0368741,-4.17000007629395
70.0524991,-5.57999992370605
70.0681241,-6.94999980926514
70.0837491,-8.32999992370605
70.0993741,-9.61999988555908
70.1149991,-10.7399997711182
70.1306241,-11.6700000762939
70.1462491,-12.4899997711182
70.1618741,-13.3299999237061
70.1774991,-14.2200002670288
70.1931241,-15.0699996948242
70.2087491,-15.7600002288818
70.2243741,-16.2800006866455
70.2399991,-16.75
70.2556241,-17.1200008392334
70.2712491,-17.0300006866455
70.2868741,-15.8599996566772
70.3024991,-12.9799995422363
70.3181241,-8.18000030517578
70.3337491,-1.88999998569489
70.3493741,5.01000022888184
70.3649991,11.6400003433228
70.3806241,17.2299995422363
70.3962491,21.2000007629395
70.4118741,23.3400001525879
70.4274991,23.9300003051758
70.4431241,23.5
70.4587491,22.5599994659424
70.4743741,21.2600002288818
70.4899991,19.5300006866455
70.5056241,17.2800006866455
70.5212491,14.6000003814697
70.5368741,11.6899995803833
70.5524991,8.78999996185303
70.5681241,6.09999990463257
70.5837491,3.77999997138977
70.5993741,1.9099999666214
70.6149991,0.409999996423721
70.6306241,-0.879999995231628
70.6462491,-2.19000005722046
70.6618741,-3.61999988555908
70.6774991,-5.1100001335144
70.6931241,-6.57999992370605
70.7087491,-7.92999982833862
70.7243741,-9.18000030517578
70.7399991,-10.3900003433228
70.7556241,-11.6199998855591
70.7712491,-12.8299999237061
70.7868741,-13.8599996566772
70.8024991,-14.5900001525879
70.8181241,-15.0100002288818
70.8337491,-15.1400003433228
70.8493741,-15.0299997329712
70.8649991,-14.5
70.8806241,-12.9899997711182
70.8962491,-9.80000019073486
70.9118741,-4.71999979019165
70.9274991,1.54999995231628
70.9431241,7.84000015258789
70.9587491,13.1400003433228
70.9743741,17.0
70.9899991,19.4799995422363
71.0056241,20.8799991607666
71.0212491,21.5100002288818
71.0368741,21.5400009155273
71.0524991,20.9200000762939
71.0681241,19.5300006866455
71.0837491,17.3700008392334
71.0993741,14.6300001144409
71.1149991,11.6099996566772
71.1306241,8.59000015258789
71.1462491,5.80999994277954
71.1618741,3.35999989509583
71.1774991,1.25999999046326
71.1931241,-0.430000007152557
71.2087491,-1.75
71.2243741,-2.79999995231628
71.2399991,-3.78999996185303
71.2556241,-4.96000003814697
71.2712491,-6.42000007629395
71.2868741,-8.15999984741211
71.3024991,-9.94999980926514
71.3181241,-11.5
71.3337491,-12.6700000762939
71.3493741,-13.5
71.3649991,-14.1400003433228
71.3806241,-14.710000038147
71.3962491,-15.25
71.4118741,-15.6800003051758
71.4274991,-15.8299999237061
71.4431241,-15.4099998474121
71.4587491,-14.039999961853
71.4743741,-11.3400001525879
71.4899991,-7.07999992370605
71.5056241,-1.46000003814697
71.5212491,4.73000001907349
71.5368741,10.3599996566772
71.5524991,14.5799999237061
71.5681241,17.1399993896484
71.5837491,18.3500003814697
71.5993741,18.6399993896484
71.6149991,18.3500003814697
71.6306241,17.6299991607666
71.6462491,16.5599994659424
71.6618741,15.0900001525879
71.6774991,13.1300001144409
71.6931241,10.6800003051758
71.7087491,7.98000001907349
71.7243741,5.3600001335144
71.7399991,3.05999994277954
71.7556241,1.22000002861023
71.7712491,-0.200000002980232
71.7868741,-1.3400000333786
71.8024991,-2.28999996185303
71.8181241,-3.13000011444092
71.8337491,-3.99000000953674
71.8493741,-4.94000005722046
71.8649991,-6.01000022888184
71.8806241,-7.17999982833862
71.8962491,-8.42000007629395
71.9118741,-9.5600004196167
71.9274991,-10.4499998092651
71.9431241,-11.1199998855591
71.9587491,-11.6700000762939
71.9743741,-12.1899995803833
71.9899991,-12.710000038147
72.0056241,-13.1400003433228
72.0212491,-13.1899995803833
72.0368741,-12.3800001144409
72.0524991,-10.2399997711182
72.0681241,-6.6100001335144
72.0837491,-1.75999999046326
72.0993741,3.59999990463257
72.1149991,8.57999992370605
72.1306241,12.4499998092651
72.1462491,14.960000038147
72.1618741,16.2999992370605
72.1774991,16.7900009155273
72.1931241,16.5799999237061
72.2087491,15.7200002670288
72.2243741,14.3000001907349
72.2399991,12.539999961853
72.2556241,10.6000003814697
72.2712491,8.56999969482422
72.2868741,6.55000019073486
72.3024991,4.65000009536743
72.3181241,2.97000002861023
72.3337491,1.57000005245209
72.3493741,0.430000007152557
72.3649991,-0.5
72.3806241,-1.30999994277954
72.3962491,-2.03999996185303
72.4118741,-2.78999996185303
72.4274991,-3.70000004768372
72.4431241,-4.78000020980835
72.4587491,-5.92000007629395
72.4743741,-6.94999980926514
72.4899991,-7.82999992370605
72.5056241,-8.60999965667725
72.5212491,-9.30000019073486
72.5368741,-9.89999961853027
72.5524991,-10.4399995803833
72.5681241,-10.8400001525879
72.5837491,-10.8500003814697
72.5993741,-10.0699996948242
72.6149991,-8.09000015258789
72.6306241,-4.69999980926514
72.6462491,-0.189999997615814
72.6618741,4.6399998664856
72.6774991,8.89999961853027
72.6931241,12.0
72.7087491,13.7600002288818
72.7243741,14.3699998855591
72.7399991,14.1599998474121
72.7556241,13.5600004196167
72.7712491,12.789999961853
72.7868741,11.7799997329712
72.8024991,10.4099998474121
72.8181241,8.63000011444092
72.8337491,6.59999990463257
72.8493741,4.59999990463257
72.8649991,2.80999994277954
72.8806241,1.25
72.8962491,-0.189999997615814
72.9118741,-1.57000005245209
72.9274991,-2.83999991416931
72.9431241,-3.91000008583069
72.9587491,-4.76000022888184
72.9743741,-5.48000001907349
72.9899991,-6.21999979019165
73.0056241,-7.03999996185303
73.0212491,-7.82999992370605
73.0368741,-8.52999973297119
73.0524991,-9.21000003814697
73.0681241,-9.94999980926514
73.0837491,-10.5799999237061
73.0993741,-10.9300003051758
73.1149991,-11.0600004196167
73.1306241,-11.0600004196167
73.1462491,-10.75
73.1618741,-9.61999988555908
73.1774991,-7.19000005722046
73.1931241,-3.47000002861023
73.2087491,1.01999998092651
73.2243741,5.46999979019165
73.2399991,9.11999988555908
73.2556241,11.5
73.2712491,12.539999961853
73.2868741,12.4899997711182
73.3024991,11.8100004196167
73.3181241,10.8800001144409
73.3337491,9.85000038146973
73.3493741,8.57999992370605
73.3649991,6.92000007629395
73.3806241,4.96999979019165
73.3962491,3.01999998092651
73.4118741,1.30999994277954
73.4274991,-0.0500000007450581
73.4431241,-1.12000000476837
73.4587491,-2.0
73.4743741,-2.80999994277954
73.4899991,-3.61999988555908
73.5056241,-4.46999979019165
73.5212491,-5.30999994277954
73.5368741,-6.01999998092651
73.5524991,-6.59999990463257
73.5681241,-7.19999980926514
73.5837491,-7.98000001907349
73.5993741,-8.86999988555908
73.6149991,-9.6899995803833
73.6306241,-10.3199996948242
73.6462491,-10.7700004577637
73.6618741,-11.1400003433228
73.6774991,-11.5799999237061
73.6931241,-12.1199998855591
73.7087491,-12.5600004196167
73.7243741,-12.4200000762939
73.7399991,-11.210000038147
73.7556241,-8.56999969482422
73.7712491,-4.5
73.7868741,0.5
73.8024991,5.63000011444092
73.8181241,10.0500001907349
73.8337491,13.1800003051758
73.8493741,14.8199996948242
73.8649991,15.1800003051758
73.8806241,14.6800003051758
73.8962491,13.8100004196167
73.9118741,12.9300003051758
73.9274991,12.1800003051758
73.9431241,11.3800001144409
73.9587491,10.1700000762939
73.9743741,8.40999984741211
73.9899991,6.40000009536743
74.0056241,4.65000009536743
74.0212491,3.51999998092651
74.0368741,3.11999988555908
74.0524991,3.26999998092651
74.0681241,3.58999991416931
74.0837491,3.69000005722046
74.0993741,3.32999992370605
74.1149991,2.42000007629395
74.1306241,0.980000019073486
74.1462491,-0.829999983310699
74.1618741,-2.86999988555908
74.1774991,-4.96000003814697
74.1931241,-6.96000003814697
74.2087491,-8.77000045776367
74.2243741,-10.25
74.2399991,-11.2299995422363
74.2556241,-11.6300001144409
74.2712491,-11.6499996185303
74.2868741,-11.6300001144409
74.3024991,-11.6700000762939
74.3181241,-11.5500001907349
74.3337491,-10.6700000762939
74.3493741,-8.35999965667725
74.3649991,-4.38000011444092
74.3806241,0.790000021457672
74.3962491,6.28000020980835
74.4118741,11.1800003051758
74.4274991,14.8500003814697
74.4431241,17.0
74.4587491,17.7600002288818
74.4743741,17.4899997711182
74.4899991,16.4599990844727
74.5056241,14.8100004196167
74.5212491,12.7600002288818
74.5368741,10.7700004577637
74.5524991,9.30000019073486
74.5681241,8.4399995803833
74.5837491,7.94999980926514
74.5993741,7.67000007629395
74.6149991,7.59000015258789
74.6306241,7.76999998092651
74.6462491,8.07999992370605
74.6618741,8.31999969482422
74.6774991,8.28999996185303
74.6931241,7.86999988555908
74.7087491,7.01999998092651
74.7243741,5.80999994277954
74.7399991,4.34000015258789
74.7556241,2.52999997138977
74.7712491,0.100000001490116
74.7868741,-3.13000011444092
74.8024991,-7.1100001335144
74.8181241,-11.4300003051758
74.8337491,-15.5900001525879
74.8493741,-19.2600002288818
74.8649991,-22.3099994659424
74.8806241,-24.7800006866455
74.8962491,-26.7399997711182
74.9118741,-28.0200004577637
74.9274991,-28.2199993133545
74.9431241,-26.9400005340576
74.9587491,-24.1000003814697
74.9743741,-20.1700000762939
74.9899991,-15.9799995422363
75.0056241,-12.3500003814697
75.0212491,-9.80000019073486
75.0368741,-8.30000019073486
75.0524991,-7.44999980926514
75.0681241,-6.80999994277954
75.0837491,-6.19999980926514
75.0993741,-5.67999982833862
75.1149991,-5.46999979019165
75.1306241,-5.69999980926514
75.1462491,-6.30000019073486
75.1618741,-7.05000019073486
75.1774991,-7.61999988555908
75.1931241,-7.80999994277954
75.2087491,-7.55999994277954
75.2243741,-6.96000003814697
75.2399991,-6.26999998092651
75.2556241,-5.73000001907349
75.2712491,-5.42000007629395
75.2868741,-5.26000022888184
75.3024991,-5.05999994277954
75.3181241,-4.73000001907349
75.3337491,-4.3600001335144
75.3493741,-4.1100001335144
75.3649991,-3.90000009536743
75.3806241,-3.48000001907349
75.3962491,-2.67000007629395
75.4118741,-1.62999999523163
75.4274991,-0.800000011920929
75.4431241,-0.519999980926514
75.4587491,-0.689999997615814
75.4743741,-0.879999995231628
75.4899991,-0.5
75.5056241,0.879999995231628
75.5212491,3.52999997138977
75.5368741,7.3899998664856
75.5524991,12.0299997329712
75.5681241,16.7099990844727
75.5837491,20.6599998474121
75.5993741,23.3500003814697
75.6149991,24.6299991607666
75.6306241,24.5699996948242
75.6462491,23.4400005340576
75.6618741,21.5200004577637
75.6774991,19.0699996948242
75.6931241,16.4300003051758
75.7087491,13.8800001144409
75.7243741,11.6700000762939
75.7399991,9.90999984741211
75.7556241,8.51000022888184
75.7712491,7.21999979019165
75.7868741,5.80000019073486
75.8024991,4.23999977111816
75.8181241,2.90000009536743
75.8337491,2.40000009536743
75.8493741,2.96000003814697
75.8649991,3.89000010490417
75.8806241,4.05999994277954
75.8962491,2.95000004768372
75.9118741,0.889999985694885
75.9274991,-1.37000000476837
75.9431241,-3.20000004768372
75.9587491,-4.26999998092651
75.9743741,-4.6399998664856
75.9899991,-4.71000003814697
76.0056241,-4.92999982833862
76.0212491,-5.51000022888184
76.0368741,-6.23999977111816
76.0524991,-6.5
76.0681241,-5.5
76.0837491,-2.86999988555908
76.0993741,1.19000005722046
76.1149991,5.98999977111816
76.1306241,10.6199998855591
76.1462491,14.1999998092651
76.1618741,16.2900009155273
76.1774991,17.0699996948242
76.1931241,17.1700000762939
76.2087491,17.1000003814697
76.2243741,16.9899997711182
76.2399991,16.6599998474121
76.2556241,15.7399997711182
76.2712491,13.8299999237061
76.2868741,10.8500003814697
76.3024991,7.26999998092651
76.3181241,3.85999989509583
76.3337491,1.21000003814697
76.3493741,-0.469999998807907
76.3649991,-1.41999995708466
76.3806241,-2.10999989509583
76.3962491,-2.98000001907349
76.4118741,-4.15000009536743
76.4274991,-5.48000001907349
76.4431241,-6.76000022888184
76.4587491,-8.02999973297119
76.4743741,-9.39000034332275
76.4899991,-10.8000001907349
76.5056241,-12.0699996948242
76.5212491,-13.1499996185303
76.5368741,-14.1499996185303
76.5524991,-15.0100002288818
76.5681241,-15.4300003051758
76.5837491,-15.1499996185303
76.5993741,-14.0500001907349
76.6149991,-12.1800003051758
76.6306241,-9.53999996185303
76.6462491,-6.17000007629395
76.6618741,-2.3199999332428
76.6774991,1.48000001907349
76.6931241,4.61999988555908
76.7087491,6.65000009536743
76.7243741,7.44000005722046
76.7399991,7.25
76.7556241,6.61999988555908
76.7712491,6.13000011444092
76.7868741,6.09999990463257
76.8024991,6.65000009536743
76.8181241,7.69999980926514
76.8337491,8.97000026702881
76.8493741,10.0299997329712
76.8649991,10.4399995803833
76.8806241,9.89000034332275
76.8962491,8.44999980926514
76.9118741,6.67000007629395
76.9274991,5.25
76.9431241,4.67999982833862
76.9587491,4.8899998664856
76.9743741,5.23999977111816
76.9899991,4.96999979019165
77.0056241,3.64000010490417
77.0212491,1.25999999046326
77.0368741,-1.76999998092651
77.0524991,-4.8600001335144
77.0681241,-7.5
77.0837491,-9.5600004196167
77.0993741,-11.2700004577637
77.1149991,-12.9200000762939
77.1306241,-14.6300001144409
77.1462491,-16.1800003051758
77.1618741,-17.0
77.1774991,-16.4899997711182
77.1931241,-14.5
77.2087491,-11.5200004577637
77.2243741,-8.28999996185303
77.2399991,-5.44999980926514
77.2556241,-3.27999997138977
77.2712491,-1.88999998569489
77.2868741,-1.37000000476837
77.3024991,-1.6599999666214
77.3181241,-2.52999997138977
77.3337491,-3.60999989509583
77.3493741,-4.73999977111816
77.3649991,-6.03999996185303
77.3806241,-7.76999998092651
77.3962491,-10.0500001907349
77.4118741,-12.5299997329712
77.4274991,-14.5900001525879
77.4431241,-15.8900003433228
77.4587491,-16.5900001525879
77.4743741,-17.1299991607666
77.4899991,-17.8600006103516
77.5056241,-18.75
77.5212491,-19.3799991607666
77.5368741,-19.3299999237061
77.5524991,-18.5799999237061
77.5681241,-17.4599990844727
77.5837491,-16.2099990844727
77.5993741,-14.7399997711182
77.6149991,-12.9700002670288
77.6306241,-11.0
77.6462491,-8.97999954223633
77.6618741,-7.05000019073486
77.6774991,-5.34999990463257
77.6931241,-3.92000007629395
77.7087491,-2.54999995231628
77.7243741,-0.709999978542328
77.7399991,2.15000009536743
77.7556241,6.28000020980835
77.7712491,11.3100004196167
77.7868741,16.4500007629395
77.8024991,20.8099994659424
77.8181241,23.8199996948242
77.8337491,25.3500003814697
77.8493741,25.6800003051758
77.8649991,25.3400001525879
77.8806241,24.8500003814697
77.8962491,24.4500007629395
77.9118741,24.0699996948242
77.9274991,23.4899997711182
77.9431241,22.4400005340576
77.9587491,20.7999992370605
77.9743741,18.6700000762939
77.9899991,16.3299999237061
78.0056241,14.1700000762939
78.0212491,12.5100002288818
78.0368741,11.4200000762939
78.0524991,10.7200002670288
78.0681241,10.1099996566772
78.0837491,9.28999996185303
78.0993741,8.14000034332275
78.1149991,6.73000001907349
78.1306241,5.28999996185303
78.1462491,4.0
78.1618741,2.85999989509583
78.1774991,1.76999998092651
78.1931241,0.670000016689301
78.2087491,-0.529999971389771
78.2243741,-1.87999999523163
78.2399991,-3.21000003814697
78.2556241,-4.07000017166138
78.2712491,-3.9300000667572
78.2868741,-2.35999989509583
78.3024991,0.689999997615814
78.3181241,4.82000017166138
78.3337491,9.15999984741211
78.3493741,12.7799997329712
78.3649991,15.0699996948242
78.3806241,15.9399995803833
78.3962491,15.7299995422363
78.4118741,14.8900003433228
78.4274991,13.8000001907349
78.4431241,12.6000003814697
78.4587491,11.1899995803833
78.4743741,9.40999984741211
78.4899991,7.26999998092651
78.5056241,4.94000005722046
78.5212491,2.64000010490417
78.5368741,0.579999983310699
78.5524991,-1.07000005245209
78.5681241,-2.32999992370605
78.5837491,-3.3199999332428
78.5993741,-4.26999998092651
78.6149991,-5.3899998664856
78.6306241,-6.76000022888184
78.6462491,-8.36999988555908
78.6618741,-10.0699996948242
78.6774991,-11.6199998855591
78.6931241,-12.789999961853
78.7087491,-13.6099996566772
78.7243741,-14.2200002670288
78.7399991,-14.7700004577637
78.7556241,-15.3999996185303
78.7712491,-16.2299995422363
78.7868741,-17.1800003051758
78.8024991,-17.8199996948242
78.8181241,-17.5599994659424
78.8337491,-15.8299999237061
78.8493741,-12.5299997329712
78.8649991,-8.17000007629395
78.8806241,-3.66000008583069
78.8962491,0.209999993443489
78.9118741,3.13000011444092
78.9274991,5.05000019073486
78.9431241,5.98999977111816
78.9587491,5.98000001907349
78.9743741,5.01999998092651
78.9899991,3.19000005722046
79.0056241,0.769999980926514
79.0212491,-1.77999997138977
79.0368741,-3.99000000953674
79.0524991,-5.59999990463257
79.0681241,-6.65999984741211
79.0837491,-7.32999992370605
79.0993741,-7.65999984741211
79.1149991,-7.71999979019165
79.1306241,-7.67000007629395
79.1462491,-7.69000005722046
79.1618741,-7.92000007629395
79.1774991,-8.35999965667725
79.1931241,-8.94999980926514
79.2087491,-9.56999969482422
79.2243741,-10.1700000762939
79.2399991,-10.7600002288818
79.2556241,-11.460000038147
79.2712491,-12.289999961853
79.2868741,-13.1000003814697
79.3024991,-13.6400003433228
79.3181241,-13.7200002670288
79.3337491,-13.3000001907349
79.3493741,-12.289999961853
79.3649991,-10.3999996185303
79.3806241,-7.28000020980835
79.3962491,-2.92000007629395
79.4118741,2.25999999046326
79.4274991,7.5
79.4431241,11.9700002670288
79.4587491,15.039999961853
79.4743741,16.4699993133545
79.4899991,16.4899997711182
79.5056241,15.6199998855591
79.5212491,14.4200000762939
79.5368741,13.1999998092651
79.5524991,11.9499998092651
79.5681241,10.3900003433228
79.5837491,8.30000019073486
79.5993741,5.8600001335144
79.6149991,3.51999998092651
79.6306241,1.63999998569489
79.6462491,0.28999999165535
79.6618741,-0.680000007152557
79.6774991,-1.42999994754791
79.6931241,-2.02999997138977
79.7087491,-2.55999994277954
79.7243741,-2.97000002861023
79.7399991,-3.0699999332428
79.7556241,-2.86999988555908
79.7712491,-2.5699999332428
79.7868741,-2.44000005722046
79.8024991,-2.65000009536743
79.8181241,-3.17000007629395
79.8337491,-3.8199999332428
79.8493741,-4.36999988555908
79.8649991,-4.6399998664856
79.8806241,-4.36999988555908
79.8962491,-3.14000010490417
79.9118741,-0.639999985694885
79.9274991,3.05999994277954
79.9431241,7.51000022888184
79.9587491,11.960000038147
79.9743741,15.6800003051758
79.9899991,18.1900005340576
80.0056241,19.3899993896484
80.0212491,19.4799995422363
80.0368741,18.8099994659424
80.0524991,17.5799999237061
80.0681241,15.8100004196167
80.0837491,13.4300003051758
80.0993741,10.5
80.1149991,7.28999996185303
80.1306241,4.30000019073486
80.1462491,2.01999998092651
80.1618741,0.660000026226044
80.1774991,0.0599999986588955
80.1931241,-0.219999998807907
80.2087491,-0.699999988079071
80.2243741,-1.66999995708466
80.2399991,-3.1800000667572
80.2556241,-5.1100001335144
80.2712491,-7.23000001907349
80.2868741,-9.27000045776367
80.3024991,-10.9399995803833
80.3181241,-12.0900001525879
80.3337491,-12.8400001525879
80.3493741,-13.4899997711182
80.3649991,-14.2399997711182
80.3806241,-15.1199998855591
80.3962491,-15.9700002670288
80.4118741,-16.4799995422363
80.4274991,-16.1599998474121
80.4431241,-14.5299997329712
80.4587491,-11.2799997329712
80.4743741,-6.59999990463257
80.4899991,-1.12999999523163
80.5056241,4.23000001907349
80.5212491,8.64000034332275
80.5368741,11.6099996566772
80.5524991,13.2299995422363
80.5681241,14.0
80.5837491,14.3299999237061
80.5993741,14.2799997329712
80.6149991,13.6400003433228
80.6306241,12.1899995803833
80.6462491,9.97000026702881
80.6618741,7.28000020980835
80.6774991,4.6100001335144
80.6931241,2.33999991416931
80.7087491,0.629999995231628
80.7243741,-0.620000004768372
80.7399991,-1.62999999523163
80.7556241,-2.57999992370605
80.7712491,-3.57999992370605
80.7868741,-4.63000011444092
80.8024991,-5.67999982833862
80.8181241,-6.69000005722046
80.8337491,-7.69000005722046
80.8493741,-8.67000007629395
80.8649991,-9.55000019073486
80.8806241,-10.25
80.8962491,-10.8599996566772
80.9118741,-11.5500001907349
80.9274991,-12.4399995803833
80.9431241,-13.4499998092651
80.9587491,-14.2700004577637
80.9743741,-14.3299999237061
80.9899991,-13.0
81.0056241,-10.0
81.0212491,-5.57999992370605
81.0368741,-0.389999985694885
81.0524991,4.75
81.0681241,9.13000011444092
81.0837491,12.4700002670288
81.0993741,14.8000001907349
81.1149991,16.2000007629395
81.1306241,16.6800003051758
81.1462491,16.2700004577637
81.1618741,15.1599998474121
