Time(s),Value(%)
485.0030072,85.4100036621094
485.0186322,82.9599990844727
485.0342572,80.2099990844727
485.0498822,77.7699966430664
485.0655072,75.8099975585938
485.0811322,73.9300003051758
485.0967572,71.3199996948242
485.1123822,67.1999969482422
485.1280072,61.3800010681152
485.1436322,54.0400009155273
485.1592572,45.4300003051758
485.1748822,35.7299995422363
485.1905072,25.3700008392334
485.2061322,15.4799995422363
485.2217572,7.86999988555908
485.2373822,4.05999994277954
485.2530072,4.36999988555908
485.2686322,7.96000003814697
485.2842572,13.6599998474121
485.2998822,20.5699996948242
485.3155072,28.0599994659424
485.3311322,35.6399993896484
485.3467572,42.9900016784668
485.3623822,49.9500007629395
485.3780072,56.4900016784668
485.3936322,62.7200012207031
485.4092572,68.6800003051758
485.4248822,74.370002746582
485.4405072,79.6600036621094
485.4561322,84.4400024414063
485.4717572,88.6600036621094
485.4873822,92.3600006103516
485.5030072,95.620002746582
485.5186322,98.4199981689453
485.5342572,100.629997253418
485.5498822,102.080001831055
485.5655072,102.809997558594
485.5811322,103.019996643066
485.5967572,103.0
485.6123822,102.919998168945
485.6280072,102.860000610352
485.6436322,102.709999084473
485.6592572,102.319999694824
485.6748822,101.550003051758
485.6905072,100.349998474121
485.7061322,98.6800003051758
485.7217572,96.4499969482422
485.7373822,93.5899963378906
485.7530072,90.1500015258789
485.7686322,86.4899978637695
485.7842572,83.1500015258789
485.7998822,80.4899978637695
485.8155072,78.3899993896484
485.8311322,76.4800033569336
485.8467572,74.4700012207031
485.8623822,72.2900009155273
485.8780072,69.8199996948242
485.8936322,66.9100036621094
485.9092572,63.5299987792969
485.9248822,59.9199981689453
485.9405072,56.5499992370605
485.9561322,53.8300018310547
485.9717572,51.8199996948242
485.9873822,50.3499984741211
486.0030072,49.3300018310547
486.0186322,48.7099990844727
486.0342572,48.4799995422363
486.0498822,48.5299987792969
486.0655072,48.6500015258789
486.0811322,48.5900001525879
486.0967572,48.0900001525879
486.1123822,46.9900016784668
486.1280072,45.2900009155273
486.1436322,43.060001373291
486.1592572,40.2900009155273
486.1748822,36.9500007629395
486.1905072,33.1199989318848
486.2061322,29.1299991607666
486.2217572,25.4699993133545
486.2373822,22.4699993133545
486.2530072,20.0200004577637
486.2686322,17.7600002288818
486.2842572,15.5200004577637
486.2998822,13.3699998855591
486.3155072,11.4700002670288
486.3311322,9.89000034332275
486.3467572,8.56999969482422
486.3623822,7.28999996185303
486.3780072,5.78999996185303
486.3936322,3.88000011444092
486.4092572,1.50999999046326
486.4248822,-1.33000004291534
486.4405072,-4.76000022888184
486.4561322,-8.86999988555908
486.4717572,-13.5699996948242
486.4873822,-18.4200000762939
486.5030072,-22.6900005340576
486.5186322,-25.8799991607666
486.5342572,-28.0499992370605
486.5498822,-29.6000003814697
486.5655072,-30.8299999237061
486.5811322,-31.7600002288818
486.5967572,-32.2900009155273
486.6123822,-32.4199981689453
486.6280072,-32.25
486.6436322,-31.9500007629395
486.6592572,-31.5900001525879
486.6748822,-31.1900005340576
486.6905072,-30.7399997711182
486.7061322,-30.2399997711182
486.7217572,-29.7399997711182
486.7373822,-29.2800006866455
486.7530072,-28.8999996185303
486.7686322,-28.6299991607666
486.7842572,-28.5
486.7998822,-28.5499992370605
486.8155072,-28.7700004577637
486.8311322,-29.1800003051758
486.8467572,-29.8500003814697
486.8623822,-30.8299999237061
486.8780072,-32.0800018310547
486.8936322,-33.3899993896484
486.9092572,-34.3899993896484
486.9248822,-34.7999992370605
486.9405072,-34.7200012207031
486.9561322,-34.4199981689453
486.9717572,-34.1699981689453
486.9873822,-34.1199989318848
487.0030072,-34.3899993896484
487.0186322,-35.1199989318848
487.0342572,-36.2900009155273
487.0498822,-37.689998626709
487.0655072,-38.9599990844727
487.0811322,-39.8600006103516
487.0967572,-40.4900016784668
487.1123822,-41.0900001525879
487.1280072,-41.7200012207031
487.1436322,-42.2299995422363
487.1592572,-42.439998626709
487.1748822,-42.2999992370605
487.1905072,-41.8699989318848
487.2061322,-41.25
487.2217572,-40.4599990844727
487.2373822,-39.4599990844727
487.2530072,-38.2200012207031
487.2686322,-36.810001373291
487.2842572,-35.3499984741211
487.2998822,-33.9300003051758
487.3155072,-32.5999984741211
487.3311322,-31.3400001525879
487.3467572,-30.0300006866455
487.3623822,-28.5699996948242
487.3780072,-26.9799995422363
487.3936322,-25.3799991607666
487.4092572,-23.9099998474121
487.4248822,-22.6599998474121
487.4405072,-21.6299991607666
487.4561322,-20.7600002288818
487.4717572,-20.0100002288818
487.4873822,-19.3400001525879
487.5030072,-18.7999992370605
487.5186322,-18.4400005340576
487.5342572,-18.3099994659424
487.5498822,-18.3799991607666
487.5655072,-18.6399993896484
487.5811322,-19.0799999237061
487.5967572,-19.6499996185303
487.6123822,-20.2399997711182
487.6280072,-20.6900005340576
487.6436322,-20.9099998474121
487.6592572,-20.9899997711182
487.6748822,-21.0900001525879
487.6905072,-21.3099994659424
487.7061322,-21.6200008392334
487.7217572,-21.9300003051758
487.7373822,-22.1599998474121
487.7530072,-22.3099994659424
487.7686322,-22.3700008392334
487.7842572,-22.3999996185303
487.7998822,-22.4200000762939
487.8155072,-22.4099998474121
487.8311322,-22.25
487.8467572,-21.6800003051758
487.8623822,-20.4699993133545
487.8780072,-18.5799999237061
487.8936322,-16.1700000762939
487.9092572,-13.4499998092651
487.9248822,-10.5
487.9405072,-7.26000022888184
487.9561322,-3.75
487.9717572,-0.270000010728836
487.9873822,2.77999997138977
488.0030072,5.28000020980835
488.0186322,7.28000020980835
488.0342572,8.96000003814697
488.0498822,10.4200000762939
488.0655072,11.5500001907349
488.0811322,12.1499996185303
488.0967572,12.1800003051758
488.1123822,11.75
488.1280072,11.039999961853
488.1436322,10.1599998474121
488.1592572,9.15999984741211
488.1748822,8.0600004196167
488.1905072,6.90000009536743
488.2061322,5.67999982833862
488.2217572,4.42000007629395
488.2373822,3.08999991416931
488.2530072,1.70000004768372
488.2686322,0.239999994635582
488.2842572,-1.32000005245209
488.2998822,-3.00999999046326
488.3155072,-4.82999992370605
488.3311322,-6.75
488.3467572,-8.77999973297119
488.3623822,-10.9700002670288
488.3780072,-13.3900003433228
488.3936322,-16.0400009155273
488.4092572,-18.8099994659424
488.4248822,-21.5100002288818
488.4405072,-23.9799995422363
488.4561322,-26.1599998474121
488.4717572,-28.0400009155273
488.4873822,-29.4400005340576
488.5030072,-29.9400005340576
488.5186322,-29.1200008392334
488.5342572,-26.8799991607666
488.5498822,-23.4400005340576
488.5655072,-19.0200004577637
488.5811322,-13.789999961853
488.5967572,-8.05000019073486
488.6123822,-2.33999991416931
488.6280072,2.5699999332428
488.6436322,6.11999988555908
488.6592572,8.26000022888184
488.6748822,9.26000022888184
488.6905072,9.36999988555908
488.7061322,8.63000011444092
488.7217572,7.11999988555908
488.7373822,5.01999998092651
488.7530072,2.66000008583069
488.7686322,0.349999994039536
488.7842572,-1.67999994754791
488.7998822,-3.35999989509583
488.8155072,-4.73000001907349
488.8311322,-5.88000011444092
488.8467572,-6.90999984741211
488.8623822,-7.84999990463257
488.8780072,-8.73999977111816
488.8936322,-9.6899995803833
488.9092572,-10.8999996185303
488.9248822,-12.6099996566772
488.9405072,-14.8900003433228
488.9561322,-17.6299991607666
488.9717572,-20.6299991607666
488.9873822,-23.6700000762939
489.0030072,-27.0499992370605
489.0186322,-30.2900009155273
489.0342572,-33.3499984741211
489.0498822,-36.3300018310547
489.0655072,-39.3800010681152
489.0811322,-42.6800003051758
489.0967572,-46.2099990844727
489.1123822,-49.6699981689453
489.1280072,-52.5200004577637
489.1436322,-54.25
489.1592572,-54.689998626709
489.1748822,-54.0200004577637
489.1905072,-52.4900016784668
489.2061322,-50.0999984741211
489.2217572,-46.6300010681152
489.2373822,-42.0200004577637
489.2530072,-36.7099990844727
489.2686322,-31.5400009155273
489.2842572,-27.2199993133545
489.2998822,-23.9599990844727
489.3155072,-21.5799999237061
489.3311322,-19.8099994659424
489.3467572,-18.6299991607666
489.3623822,-18.1700000762939
489.3780072,-18.4599990844727
489.3936322,-19.2900009155273
489.4092572,-20.2299995422363
489.4248822,-20.8799991607666
489.4405072,-21.0699996948242
489.4561322,-20.9200000762939
489.4717572,-20.7900009155273
489.4873822,-21.0499992370605
489.5030072,-21.8899993896484
489.5186322,-23.2600002288818
489.5342572,-25.0100002288818
489.5498822,-26.9699993133545
489.5655072,-29.0
489.5811322,-30.9599990844727
489.5967572,-32.7799987792969
489.6123822,-34.4700012207031
489.6280072,-36.189998626709
489.6436322,-38.0900001525879
489.6592572,-40.2099990844727
489.6748822,-42.5200004577637
489.6905072,-45.0099983215332
489.7061322,-47.6300010681152
489.7217572,-50.3199996948242
489.7373822,-52.8499984741211
489.7530072,-54.8899993896484
489.7686322,-55.9500007629395
489.7842572,-55.5099983215332
489.7998822,-53.2200012207031
489.8155072,-49.0999984741211
489.8311322,-43.3400001525879
489.8467572,-36.0800018310547
489.8623822,-27.4400005340576
489.8780072,-17.8099994659424
489.8936322,-8.0
489.9092572,0.910000026226044
489.9248822,8.21000003814697
489.9405072,13.8699998855591
489.9561322,18.3199996948242
489.9717572,21.7600002288818
489.9873822,24.1100006103516
490.0030072,25.6200008392334
490.0186322,26.1399993896484
490.0342572,26.0599994659424
490.0498822,25.8600006103516
490.0655072,25.9099998474121
490.0811322,26.3999996185303
490.0967572,27.2999992370605
490.1123822,28.4699993133545
490.1280072,29.8400001525879
490.1436322,31.3500003814697
490.1592572,32.9599990844727
490.1748822,34.4000015258789
490.1905072,35.1599998474121
490.2061322,34.7599983215332
490.2217572,33.060001373291
490.2373822,30.3199996948242
490.2530072,26.9500007629395
490.2686322,23.3600006103516
490.2842572,19.7999992370605
490.2998822,16.4400005340576
490.3155072,13.3100004196167
490.3311322,10.289999961853
490.3467572,7.21000003814697
490.3623822,3.85999989509583
490.3780072,0.280000001192093
490.3936322,-3.0699999332428
490.4092572,-5.3899998664856
490.4248822,-5.92000007629395
490.4405072,-4.48000001907349
490.4561322,-1.49000000953674
490.4717572,2.5
490.4873822,7.44000005722046
490.5030072,13.8100004196167
490.5186322,21.9699993133545
490.5342572,31.3400001525879
490.5498822,40.5800018310547
490.5655072,48.4500007629395
490.5811322,54.4599990844727
490.5967572,58.8199996948242
490.6123822,61.9199981689453
490.6280072,63.7999992370605
490.6436322,64.2699966430664
490.6592572,63.310001373291
490.6748822,61.3699989318848
490.6905072,59.2299995422363
490.7061322,57.6300010681152
490.7217572,56.8600006103516
490.7373822,56.5999984741211
490.7530072,56.1100006103516
490.7686322,54.7400016784668
490.7842572,52.3400001525879
490.7998822,49.189998626709
490.8155072,45.6599998474121
490.8311322,41.9500007629395
490.8467572,38.1500015258789
490.8623822,34.3300018310547
490.8780072,30.5400009155273
490.8936322,26.8199996948242
490.9092572,23.1000003814697
490.9248822,19.3199996948242
490.9405072,15.4099998474121
490.9561322,11.3599996566772
490.9717572,7.07999992370605
490.9873822,2.5
491.0030072,-2.34999990463257
491.0186322,-7.34999990463257
491.0342572,-12.2299995422363
491.0498822,-16.7099990844727
491.0655072,-20.4500007629395
491.0811322,-23.1000003814697
491.0967572,-24.4599990844727
491.1123822,-24.5699996948242
491.1280072,-23.7399997711182
491.1436322,-22.4200000762939
491.1592572,-20.9200000762939
491.1748822,-18.8600006103516
491.1905072,-15.1400003433228
491.2061322,-8.60999965667725
491.2217572,0.990000009536743
491.2373822,12.9700002670288
491.2530072,26.2099990844727
491.2686322,39.7799987792969
491.2842572,52.8899993896484
491.2998822,64.4199981689453
491.3155072,72.8300018310547
491.3311322,76.9100036621094
491.3467572,76.8199996948242
491.3623822,73.879997253418
491.3780072,69.6100006103516
491.3936322,64.9899978637695
491.4092572,60.439998626709
491.4248822,56.0299987792969
491.4405072,51.7000007629395
491.4561322,47.4099998474121
491.4717572,43.1699981689453
491.4873822,38.9900016784668
491.5030072,34.939998626709
491.5186322,30.9899997711182
491.5342572,27.1100006103516
491.5498822,23.2099990844727
491.5655072,19.25
491.5811322,15.1599998474121
491.5967572,10.7399997711182
491.6123822,5.67999982833862
491.6280072,-0.230000004172325
491.6436322,-7.01000022888184
491.6592572,-14.2799997329712
491.6748822,-21.4799995422363
491.6905072,-28.1299991607666
491.7061322,-34.0200004577637
491.7217572,-39.0999984741211
491.7373822,-43.1800003051758
491.7530072,-45.7799987792969
491.7686322,-46.3499984741211
491.7842572,-44.7700004577637
491.7998822,-41.1500015258789
491.8155072,-35.4000015258789
491.8311322,-27.4400005340576
491.8467572,-17.6000003814697
491.8623822,-6.92000007629395
491.8780072,3.1800000667572
491.8936322,11.7399997711182
491.9092572,18.5699996948242
491.9248822,23.9300003051758
491.9405072,27.7299995422363
491.9561322,29.6299991607666
491.9717572,29.6000003814697
491.9873822,28.2099990844727
492.0030072,26.2600002288818
492.0186322,24.2800006866455
492.0342572,22.2199993133545
492.0498822,19.7800006866455
492.0655072,16.7800006866455
492.0811322,13.3199996948242
492.0967572,9.60999965667725
492.1123822,5.82000017166138
492.1280072,2.05999994277954
492.1436322,-1.55999994277954
492.1592572,-5.05999994277954
492.1748822,-8.52999973297119
492.1905072,-12.3000001907349
492.2061322,-16.6599998474121
492.2217572,-21.7000007629395
492.2373822,-27.3400001525879
492.2530072,-33.5400009155273
492.2686322,-40.310001373291
492.2842572,-47.4599990844727
492.2998822,-54.5900001525879
492.3155072,-61.0900001525879
492.3311322,-66.5
492.3467572,-70.7200012207031
492.3623822,-73.8300018310547
492.3780072,-75.870002746582
492.3936322,-76.7799987792969
492.4092572,-76.620002746582
492.4248822,-75.6500015258789
492.4405072,-74.0899963378906
492.4561322,-71.5599975585938
492.4717572,-66.8199996948242
492.4873822,-58.6199989318848
492.5030072,-46.75
492.5186322,-32.1399993896484
492.5342572,-16.2399997711182
492.5498822,-0.28999999165535
492.5655072,14.8000001907349
492.5811322,28.0499992370605
492.5967572,38.0999984741211
492.6123822,43.939998626709
492.6280072,45.6599998474121
492.6436322,44.4199981689453
492.6592572,41.6399993896484
492.6748822,38.3899993896484
492.6905072,35.189998626709
492.7061322,32.2099990844727
492.7217572,29.4099998474121
492.7373822,26.7299995422363
492.7530072,24.1200008392334
492.7686322,21.5900001525879
492.7842572,19.1399993896484
492.7998822,16.7199993133545
492.8155072,14.1999998092651
492.8311322,11.4200000762939
492.8467572,8.35999965667725
492.8623822,5.05999994277954
492.8780072,1.58000004291534
492.8936322,-2.22000002861023
492.9092572,-6.63000011444092
492.9248822,-11.8100004196167
492.9405072,-17.5200004577637
492.9561322,-23.2299995422363
492.9717572,-28.3999996185303
492.9873822,-32.7700004577637
493.0030072,-36.2799987792969
493.0186322,-38.7299995422363
493.0342572,-39.5200004577637
493.0498822,-38.0499992370605
493.0655072,-34.189998626709
493.0811322,-28.1900005340576
493.0967572,-20.2099990844727
493.1123822,-10.3800001144409
493.1280072,0.879999995231628
493.1436322,12.6300001144409
493.1592572,23.5900001525879
493.1748822,32.8800010681152
493.1905072,40.4900016784668
493.2061322,46.75
493.2217572,51.6500015258789
493.2373822,54.7999992370605
493.2530072,56.0
493.2686322,55.5699996948242
493.2842572,54.1699981689453
493.2998822,52.4199981689453
493.3155072,50.5
493.3311322,48.3400001525879
493.3467572,45.7700004577637
493.3623822,42.7900009155273
493.3780072,39.5200004577637
493.3936322,36.1199989318848
493.4092572,32.7400016784668
493.4248822,29.4099998474121
493.4405072,26.0300006866455
493.4561322,22.3199996948242
493.4717572,17.9799995422363
493.4873822,12.8699998855591
493.5030072,7.19000005722046
493.5186322,1.37000000476837
493.5342572,-4.11999988555908
493.5498822,-9.05000019073486
493.5655072,-13.3999996185303
493.5811322,-17.4699993133545
493.5967572,-21.7700004577637
493.6123822,-26.7199993133545
493.6280072,-32.3400001525879
493.6436322,-38.0499992370605
493.6592572,-42.8199996948242
493.6748822,-45.7599983215332
493.6905072,-46.5400009155273
493.7061322,-45.3199996948242
493.7217572,-42.2400016784668
493.7373822,-37.0800018310547
493.7530072,-29.5
493.7686322,-19.6900005340576
493.7842572,-8.72999954223633
493.7998822,1.89999997615814
493.8155072,11.2399997711182
493.8311322,19.1499996185303
493.8467572,26.0200004577637
493.8623822,32.0200004577637
493.8780072,36.7599983215332
493.8936322,39.6100006103516
493.9092572,40.3400001525879
493.9248822,39.2799987792969
493.9405072,37.060001373291
493.9561322,34.2299995422363
493.9717572,31.2199993133545
493.9873822,28.2800006866455
494.0030072,25.5100002288818
494.0186322,22.8500003814697
494.0342572,20.0900001525879
494.0498822,17.0499992370605
494.0655072,13.6700000762939
494.0811322,9.90999984741211
494.0967572,5.69999980926514
494.1123822,0.930000007152557
494.1280072,-4.28999996185303
494.1436322,-9.65999984741211
494.1592572,-14.7200002670288
494.1748822,-19.25
494.1905072,-23.4500007629395
494.2061322,-27.6399993896484
494.2217572,-31.8199996948242
494.2373822,-35.6500015258789
494.2530072,-38.7799987792969
494.2686322,-41.0800018310547
494.2842572,-42.6199989318848
494.2998822,-43.3400001525879
494.3155072,-42.8800010681152
494.3311322,-40.7900009155273
494.3467572,-36.9500007629395
494.3623822,-31.5
494.3780072,-24.4699993133545
494.3936322,-15.9099998474121
494.4092572,-6.1100001335144
494.4248822,4.17000007629395
494.4405072,13.960000038147
494.4561322,22.5499992370605
494.4717572,29.75
494.4873822,35.5999984741211
494.5030072,39.9500007629395
494.5186322,42.4700012207031
494.5342572,43.1699981689453
494.5498822,42.4700012207031
494.5655072,41.0699996948242
494.5811322,39.5699996948242
494.5967572,38.2200012207031
494.6123822,37.0099983215332
494.6280072,35.7799987792969
494.6436322,34.3600006103516
494.6592572,32.6300010681152
494.6748822,30.5400009155273
494.6905072,28.1499996185303
494.7061322,25.5799999237061
494.7217572,22.8899993896484
494.7373822,19.9599990844727
494.7530072,16.4599990844727
494.7686322,12.1999998092651
494.7842572,7.30999994277954
494.7998822,2.25
494.8155072,-2.49000000953674
494.8311322,-6.6399998664856
494.8467572,-10.1700000762939
494.8623822,-13.289999961853
494.8780072,-16.2700004577637
494.8936322,-19.3400001525879
494.9092572,-22.4699993133545
494.9248822,-25.2700004577637
494.9405072,-27.0
494.9561322,-26.9599990844727
494.9717572,-25.0
494.9873822,-21.4200000762939
495.0030072,-16.5200004577637
495.0186322,-10.2399997711182
495.0342572,-2.29999995231628
495.0498822,7.25
495.0655072,17.4899997711182
495.0811322,27.0200004577637
495.0967572,34.7999992370605
495.1123822,40.5900001525879
495.1280072,44.810001373291
495.1436322,47.8800010681152
495.1592572,49.8199996948242
495.1748822,50.3199996948242
495.1905072,49.2999992370605
495.2061322,47.1100006103516
495.2217572,44.4000015258789
495.2373822,41.7900009155273
495.2530072,39.6199989318848
495.2686322,37.8699989318848
495.2842572,36.2599983215332
495.2998822,34.4199981689453
495.3155072,32.0200004577637
495.3311322,28.9300003051758
495.3467572,25.2399997711182
495.3623822,21.1900005340576
495.3780072,17.0900001525879
495.3936322,13.1800003051758
495.4092572,9.52999973297119
495.4248822,6.0
495.4405072,2.21000003814697
495.4561322,-2.20000004768372
495.4717572,-7.3600001335144
495.4873822,-13.1400003433228
495.5030072,-19.4200000762939
495.5186322,-26.1100006103516
495.5342572,-32.9900016784668
495.5498822,-39.5699996948242
495.5655072,-45.0
495.5811322,-48.310001373291
495.5967572,-48.6800003051758
495.6123822,-45.810001373291
495.6280072,-40.0299987792969
495.6436322,-32.25
495.6592572,-23.5799999237061
495.6748822,-15.0500001907349
495.6905072,-7.26000022888184
495.7061322,-0.430000007152557
495.7217572,5.44999980926514
495.7373822,10.539999961853
495.7530072,15.0100002288818
495.7686322,19.0100002288818
