Time(s),Value(%)
956.0017972,-8.72999954223633
956.0174222,-14.6499996185303
956.0330472,-19.4699993133545
956.0486722,-23.4300003051758
956.0642972,-26.7700004577637
956.0799222,-29.6900005340576
956.0955472,-32.2799987792969
956.1111722,-34.4300003051758
956.1267972,-35.9000015258789
956.1424222,-36.5699996948242
956.1580472,-36.5699996948242
956.1736722,-36.25
956.1892972,-36.0200004577637
956.2049222,-36.1399993896484
956.2205472,-36.4799995422363
956.2361722,-36.6199989318848
956.2517972,-36.1100006103516
956.2674222,-34.689998626709
956.2830472,-32.3199996948242
956.2986722,-29.1599998474121
956.3142972,-25.4799995422363
956.3299222,-21.5900001525879
956.3455472,-17.9400005340576
956.3611722,-14.9200000762939
956.3767972,-12.5799999237061
956.3924222,-10.5699996948242
956.4080472,-8.22000026702881
956.4236722,-4.82000017166138
956.4392972,0.46000000834465
956.4549222,8.60000038146973
956.4705472,19.9899997711182
956.4861722,33.7599983215332
956.5017972,48.1399993896484
956.5174222,61.2799987792969
956.5330472,71.8499984741211
956.5486722,79.1999969482422
956.5642972,83.25
956.5799222,84.4400024414063
956.5955472,83.4700012207031
956.6111722,80.9100036621094
956.6267972,76.9000015258789
956.6424222,71.2200012207031
956.6580472,63.6399993896484
956.6736722,54.1699981689453
956.6892972,43.1399993896484
956.7049222,31.2399997711182
956.7205472,19.5200004577637
956.7361722,9.14999961853027
956.7517972,0.889999985694885
956.7674222,-5.26999998092651
956.7830472,-10.0600004196167
956.7986722,-14.3400001525879
956.8142972,-18.7399997711182
956.8299222,-23.5
956.8455472,-28.4300003051758
956.8611722,-32.9900016784668
956.8767972,-36.6500015258789
956.8924222,-39.310001373291
956.9080472,-41.3600006103516
956.9236722,-43.310001373291
956.9392972,-45.439998626709
956.9549222,-47.7799987792969
956.9705472,-50.2799987792969
956.9861722,-52.7799987792969
957.0017972,-55.0
957.0174222,-56.5099983215332
957.0330472,-56.9099998474121
957.0486722,-56.0200004577637
957.0642972,-54.0200004577637
957.0799222,-51.25
957.0955472,-48.060001373291
957.1111722,-44.6399993896484
957.1267972,-41.0699996948242
957.1424222,-37.3300018310547
957.1580472,-33.4900016784668
957.1736722,-29.7099990844727
957.1892972,-26.0799999237061
957.2049222,-22.3899993896484
957.2205472,-18.1700000762939
957.2361722,-12.8000001907349
957.2517972,-5.57000017166138
957.2674222,3.9300000667572
957.2830472,15.5500001907349
957.2986722,28.3500003814697
957.3142972,41.0099983215332
957.3299222,52.1699981689453
957.3455472,60.6500015258789
957.3611722,65.9199981689453
957.3767972,68.7200012207031
957.3924222,70.4300003051758
957.4080472,71.7799987792969
957.4236722,72.4499969482422
957.4392972,71.5100021362305
957.4549222,68.2600021362305
957.4705472,62.6100006103516
957.4861722,54.8800010681152
957.5017972,45.5
957.5174222,35.0200004577637
957.5330472,24.2000007629395
957.5486722,13.8599996566772
957.5642972,4.69000005722046
957.5799222,-2.89000010490417
957.5955472,-8.85999965667725
957.6111722,-13.5
957.6267972,-17.3199996948242
957.6424222,-20.8600006103516
957.6580472,-24.3600006103516
957.6736722,-27.8299999237061
957.6892972,-31.1000003814697
957.7049222,-34.0099983215332
957.7205472,-36.5
957.7361722,-38.6599998474121
957.7517972,-40.5499992370605
957.7674222,-42.1100006103516
957.7830472,-43.2099990844727
957.7986722,-43.8499984741211
957.8142972,-44.0900001525879
957.8299222,-43.9900016784668
957.8455472,-43.5800018310547
957.8611722,-42.7599983215332
957.8767972,-41.4500007629395
957.8924222,-39.560001373291
957.9080472,-37.0
957.9236722,-33.7400016784668
957.9392972,-29.9500007629395
957.9549222,-25.8999996185303
957.9705472,-21.8999996185303
957.9861722,-18.1599998474121
958.0017972,-14.6099996566772
958.0174222,-10.8400001525879
958.0330472,-6.1399998664856
958.0486722,0.239999994635582
958.0642972,8.78999996185303
958.0799222,19.4300003051758
958.0955472,31.4799995422363
958.1111722,44.0299987792969
958.1267972,56.2799987792969
958.1424222,67.5
958.1580472,76.8300018310547
958.1736722,83.5299987792969
958.1892972,87.3000030517578
958.2049222,88.3600006103516
958.2205472,87.2799987792969
958.2361722,84.5899963378906
958.2517972,80.4000015258789
958.2674222,74.3399963378906
958.2830472,66.1100006103516
958.2986722,55.9099998474121
958.3142972,44.4199981689453
958.3299222,32.5900001525879
958.3455472,21.3099994659424
958.3611722,11.1000003814697
958.3767972,2.03999996185303
958.3924222,-6.01000022888184
958.4080472,-13.210000038147
958.4236722,-19.6000003814697
958.4392972,-25.2299995422363
958.4549222,-30.0799999237061
958.4705472,-34.1399993896484
958.4861722,-37.4599990844727
958.5017972,-40.1599998474121
958.5174222,-42.4099998474121
958.5330472,-44.2799987792969
958.5486722,-45.7200012207031
958.5642972,-46.5499992370605
958.5799222,-46.6500015258789
958.5955472,-46.1500015258789
958.6111722,-45.4199981689453
958.6267972,-44.939998626709
958.6424222,-44.9000015258789
958.6580472,-45.0499992370605
958.6736722,-44.7599983215332
958.6892972,-43.4500007629395
958.7049222,-40.9099998474121
958.7205472,-37.310001373291
958.7361722,-33.0200004577637
958.7517972,-28.2099990844727
958.7674222,-22.6499996185303
958.7830472,-15.8100004196167
958.7986722,-7.26000022888184
958.8142972,2.97000002861023
958.8299222,14.2200002670288
958.8455472,25.3500003814697
958.8611722,35.1699981689453
958.8767972,43.1300010681152
958.8924222,49.2400016784668
958.9080472,53.560001373291
958.9236722,55.8899993896484
958.9392972,55.9900016784668
958.9549222,53.8199996948242
958.9705472,49.5099983215332
958.9861722,43.2000007629395
959.0017972,35.0800018310547
959.0174222,25.5400009155273
959.0330472,15.3100004196167
959.0486722,5.30000019073486
959.0642972,-3.67000007629395
959.0799222,-11.0299997329712
959.0955472,-16.6599998474121
959.1111722,-20.8700008392334
959.1267972,-24.1800003051758
959.1424222,-26.9899997711182
959.1580472,-29.4300003051758
959.1736722,-31.5200004577637
959.1892972,-33.3400001525879
959.2049222,-34.9700012207031
959.2205472,-36.310001373291
959.2361722,-37.25
959.2517972,-37.7799987792969
959.2674222,-38.0200004577637
959.2830472,-37.9500007629395
959.2986722,-37.5
959.3142972,-36.5400009155273
959.3299222,-34.9799995422363
959.3455472,-32.75
959.3611722,-29.9200000762939
959.3767972,-26.6200008392334
959.3924222,-23.1299991607666
959.4080472,-19.7399997711182
959.4236722,-16.6399993896484
959.4392972,-13.9499998092651
959.4549222,-11.7700004577637
959.4705472,-10.0699996948242
959.4861722,-8.63000011444092
959.5017972,-7.07000017166138
959.5174222,-4.67999982833862
959.5330472,-0.589999973773956
959.5486722,6.01000022888184
959.5642972,15.5100002288818
959.5799222,27.5599994659424
959.5955472,41.0800018310547
959.6111722,54.7400016784668
959.6267972,67.7200012207031
959.6424222,79.5400009155273
959.6580472,89.5500030517578
959.6736722,96.8000030517578
959.6892972,100.410003662109
959.7049222,99.9100036621094
959.7205472,95.2399978637695
959.7361722,86.75
959.7517972,75.0800018310547
959.7674222,61.1500015258789
959.7830472,46.0999984741211
959.7986722,31.1200008392334
959.8142972,17.2399997711182
959.8299222,5.01000022888184
959.8455472,-5.46000003814697
959.8611722,-14.4399995803833
959.8767972,-22.2900009155273
959.8924222,-29.2399997711182
959.9080472,-35.2099990844727
959.9236722,-39.9599990844727
959.9392972,-43.4099998474121
959.9549222,-45.7000007629395
959.9705472,-47.189998626709
959.9861722,-48.2999992370605
960.0017972,-49.3300018310547
960.0174222,-50.3300018310547
960.0330472,-51.2099990844727
960.0486722,-51.8800010681152
960.0642972,-52.2700004577637
960.0799222,-52.310001373291
960.0955472,-51.9799995422363
960.1111722,-51.2200012207031
960.1267972,-49.9900016784668
960.1424222,-48.3199996948242
960.1580472,-46.2000007629395
960.1736722,-43.6500015258789
960.1892972,-40.7999992370605
960.2049222,-37.7900009155273
960.2205472,-34.25
960.2361722,-29.0799999237061
960.2517972,-20.8899993896484
960.2674222,-8.80000019073486
960.2830472,7.01999998092651
960.2986722,25.2000007629395
960.3142972,43.560001373291
960.3299222,59.8300018310547
960.3455472,72.2699966430664
960.3611722,80.0
960.3767972,83.0
960.3924222,81.9100036621094
960.4080472,77.879997253418
960.4236722,72.0299987792969
960.4392972,64.9499969482422
960.4549222,56.689998626709
960.4705472,47.25
960.4861722,36.7700004577637
960.5017972,25.4599990844727
960.5174222,13.5100002288818
960.5330472,1.41999995708466
960.5486722,-10.0
960.5642972,-19.9799995422363
960.5799222,-28.1399993896484
960.5955472,-34.560001373291
960.6111722,-39.6399993896484
960.6267972,-43.7900009155273
960.6424222,-47.2900009155273
960.6580472,-50.1599998474121
960.6736722,-52.2099990844727
960.6892972,-53.1699981689453
960.7049222,-52.9799995422363
960.7205472,-51.9099998474121
960.7361722,-50.4799995422363
960.7517972,-49.2799987792969
960.7674222,-48.6599998474121
960.7830472,-48.5299987792969
960.7986722,-48.5699996948242
960.8142972,-48.5999984741211
960.8299222,-48.689998626709
960.8455472,-48.7299995422363
960.8611722,-47.9500007629395
960.8767972,-45.2299995422363
960.8924222,-39.8199996948242
960.9080472,-31.8400001525879
960.9236722,-22.5300006866455
960.9392972,-13.9300003051758
960.9549222,-7.8600001335144
960.9705472,-4.88000011444092
960.9861722,-3.92000007629395
961.0017972,-2.54999995231628
961.0174222,2.24000000953674
961.0330472,12.7799997329712
961.0486722,29.4699993133545
961.0642972,50.7700004577637
961.0799222,73.7900009155273
961.0955472,95.0899963378906
961.1111722,111.48999786377
961.1267972,120.930000305176
961.1424222,122.980003356934
961.1580472,118.650001525879
961.1736722,109.730003356934
961.1892972,98.0800018310547
961.2049222,85.2399978637695
961.2205472,72.0899963378906
961.2361722,58.8800010681152
961.2517972,45.4700012207031
961.2674222,31.6700000762939
961.2830472,17.6100006103516
961.2986722,3.96000003814697
961.3142972,-8.34000015258789
961.3299222,-18.6499996185303
961.3455472,-26.8099994659424
961.3611722,-33.1399993896484
961.3767972,-38.1599998474121
961.3924222,-42.4000015258789
961.4080472,-46.1699981689453
961.4236722,-49.5900001525879
961.4392972,-52.5200004577637
961.4549222,-54.7099990844727
961.4705472,-56.0699996948242
961.4861722,-56.7000007629395
961.5017972,-56.7700004577637
961.5174222,-56.3499984741211
961.5330472,-55.439998626709
961.5486722,-53.9900016784668
961.5642972,-51.8600006103516
961.5799222,-48.939998626709
961.5955472,-45.2400016784668
961.6111722,-40.8699989318848
961.6267972,-36.0499992370605
961.6424222,-31.0400009155273
961.6580472,-26.25
961.6736722,-22.1200008392334
961.6892972,-18.6299991607666
961.7049222,-15.1599998474121
961.7205472,-10.6000003814697
961.7361722,-3.78999996185303
961.7517972,6.1399998664856
961.7674222,19.4799995422363
961.7830472,35.3499984741211
961.7986722,51.6599998474121
961.8142972,66.0599975585938
961.8299222,77.0699996948242
961.8455472,84.4000015258789
961.8611722,88.5100021362305
961.8767972,90.0
961.8924222,89.2600021362305
961.9080472,86.4700012207031
961.9236722,81.7200012207031
961.9392972,74.9899978637695
961.9549222,66.2099990844727
961.9705472,55.5499992370605
961.9861722,43.5200004577637
962.0017972,30.9899997711182
962.0174222,18.9200000762939
962.0330472,8.10999965667725
962.0486722,-0.980000019073486
962.0642972,-8.34000015258789
962.0799222,-14.2200002670288
962.0955472,-18.9699993133545
962.1111722,-22.9300003051758
962.1267972,-26.2900009155273
962.1424222,-29.1499996185303
962.1580472,-31.6200008392334
962.1736722,-33.9199981689453
962.1892972,-36.189998626709
962.2049222,-38.4300003051758
962.2205472,-40.5099983215332
962.2361722,-42.2999992370605
962.2517972,-43.6199989318848
962.2674222,-44.3400001525879
962.2830472,-44.4300003051758
962.2986722,-43.8800010681152
962.3142972,-42.7999992370605
962.3299222,-41.310001373291
962.3455472,-39.560001373291
962.3611722,-37.6800003051758
962.3767972,-35.7799987792969
962.3924222,-33.8699989318848
962.4080472,-31.7199993133545
962.4236722,-28.7800006866455
962.4392972,-24.2099990844727
962.4549222,-17.0300006866455
962.4705472,-6.67000007629395
962.4861722,6.59000015258789
962.5017972,21.75
962.5174222,37.4799995422363
962.5330472,52.439998626709
962.5486722,65.2300033569336
962.5642972,74.6900024414063
962.5799222,80.2600021362305
962.5955472,81.9800033569336
962.6111722,80.2799987792969
962.6267972,75.6500015258789
962.6424222,68.4899978637695
962.6580472,59.0400009155273
962.6736722,47.6300010681152
962.6892972,34.8800010681152
962.7049222,21.6900005340576
962.7205472,9.02000045776367
962.7361722,-2.40000009536743
962.7517972,-12.1999998092651
962.7674222,-20.3099994659424
962.7830472,-26.7900009155273
962.7986722,-31.6900005340576
962.8142972,-35.2000007629395
962.8299222,-37.6500015258789
962.8455472,-39.4300003051758
962.8611722,-40.8899993896484
962.8767972,-42.2599983215332
962.8924222,-43.6300010681152
962.9080472,-44.9199981689453
962.9236722,-45.9700012207031
962.9392972,-46.6300010681152
962.9549222,-46.8300018310547
962.9705472,-46.5800018310547
962.9861722,-46.0200004577637
963.0017972,-45.2900009155273
963.0174222,-44.4000015258789
963.0330472,-43.1800003051758
963.0486722,-41.3300018310547
963.0642972,-38.7000007629395
963.0799222,-35.4000015258789
963.0955472,-31.6499996185303
963.1111722,-27.3899993896484
963.1267972,-21.9400005340576
963.1424222,-14.0600004196167
963.1580472,-2.55999994277954
963.1736722,12.7299995422363
963.1892972,30.5100002288818
963.2049222,48.6300010681152
963.2205472,64.9700012207031
963.2361722,77.8199996948242
963.2517972,86.0400009155273
963.2674222,89.2699966430664
963.2830472,87.9599990844727
963.2986722,83.0800018310547
963.3142972,75.7200012207031
963.3299222,66.7200012207031
963.3455472,56.6199989318848
963.3611722,45.6800003051758
963.3767972,34.0800018310547
963.3924222,21.9400005340576
963.4080472,9.39000034332275
963.4236722,-3.11999988555908
963.4392972,-14.8400001525879
963.4549222,-25.0
963.4705472,-33.2299995422363
963.4861722,-39.6199989318848
963.5017972,-44.5800018310547
963.5174222,-48.5999984741211
963.5330472,-52.0499992370605
963.5486722,-55.0200004577637
963.5642972,-57.3499984741211
963.5799222,-58.8699989318848
963.5955472,-59.5499992370605
963.6111722,-59.5200004577637
963.6267972,-58.9099998474121
963.6424222,-57.7700004577637
963.6580472,-56.0
963.6736722,-53.5099983215332
963.6892972,-50.3699989318848
963.7049222,-46.8300018310547
963.7205472,-43.1199989318848
963.7361722,-39.4000015258789
963.7517972,-35.7599983215332
963.7674222,-32.1800003051758
963.7830472,-28.6200008392334
963.7986722,-25.0
963.8142972,-21.2299995422363
963.8299222,-17.2700004577637
963.8455472,-13.0299997329712
963.8611722,-8.14000034332275
963.8767972,-1.9099999666214
963.8924222,6.53999996185303
963.9080472,18.0100002288818
963.9236722,32.8400001525879
963.9392972,50.3300018310547
963.9549222,68.6100006103516
963.9705472,85.4199981689453
963.9861722,98.9700012207031
964.0017972,108.279998779297
964.0174222,113.069999694824
964.0330472,113.660003662109
964.0486722,110.709999084473
964.0642972,104.839996337891
964.0799222,96.5100021362305
964.0955472,86.0400009155273
964.1111722,73.7699966430664
964.1267972,60.1500015258789
964.1424222,45.7700004577637
964.1580472,31.5
964.1736722,18.2000007629395
964.1892972,6.11999988555908
964.2049222,-5.1100001335144
964.2205472,-15.8500003814697
964.2361722,-25.8999996185303
964.2517972,-34.7200012207031
964.2674222,-41.7700004577637
964.2830472,-46.9099998474121
964.2986722,-50.5400009155273
964.3142972,-53.2000007629395
964.3299222,-55.2999992370605
964.3455472,-57.0099983215332
964.3611722,-58.2999992370605
964.3767972,-59.0299987792969
964.3924222,-59.0499992370605
964.4080472,-58.3400001525879
964.4236722,-57.0499992370605
964.4392972,-55.310001373291
964.4549222,-53.1599998474121
964.4705472,-50.5699996948242
964.4861722,-47.5699996948242
964.5017972,-44.25
964.5174222,-40.7700004577637
964.5330472,-37.2400016784668
964.5486722,-33.8300018310547
964.5642972,-30.6900005340576
964.5799222,-27.7199993133545
964.5955472,-24.5400009155273
964.6111722,-20.6100006103516
964.6267972,-15.3000001907349
964.6424222,-7.94999980926514
964.6580472,1.96000003814697
964.6736722,14.6800003051758
964.6892972,29.8400001525879
964.7049222,46.3899993896484
964.7205472,62.689998626709
964.7361722,77.1500015258789
964.7517972,88.620002746582
964.7674222,96.4199981689453
964.7830472,100.290000915527
964.7986722,100.370002746582
964.8142972,97.0400009155273
964.8299222,90.6900024414063
964.8455472,81.6999969482422
964.8611722,70.5299987792969
964.8767972,57.7700004577637
964.8924222,44.0400009155273
964.9080472,30.0599994659424
964.9236722,16.4099998474121
964.9392972,3.41000008583069
964.9549222,-8.65999984741211
964.9705472,-19.3700008392334
964.9861722,-28.25
965.0017972,-35.1500015258789
965.0174222,-40.310001373291
965.0330472,-44.2000007629395
965.0486722,-47.2900009155273
965.0642972,-49.810001373291
965.0799222,-51.7299995422363
965.0955472,-52.9900016784668
965.1111722,-53.5999984741211
965.1267972,-53.689998626709
965.1424222,-53.2999992370605
965.1580472,-52.3600006103516
965.1736722,-50.810001373291
965.1892972,-48.7400016784668
965.2049222,-46.3400001525879
965.2205472,-43.7799987792969
965.2361722,-41.1599998474121
965.2517972,-38.5499992370605
965.2674222,-36.0400009155273
965.2830472,-33.6699981689453
965.2986722,-31.4500007629395
965.3142972,-29.25
965.3299222,-26.6299991607666
965.3455472,-22.8099994659424
965.3611722,-16.9400005340576
965.3767972,-8.34000015258789
965.3924222,3.1800000667572
965.4080472,17.2199993133545
965.4236722,32.8699989318848
965.4392972,49.2000007629395
965.4549222,65.0599975585938
965.4705472,78.9100036621094
965.4861722,89.2200012207031
965.5017972,95.0699996948242
965.5174222,96.3199996948242
965.5330472,93.4199981689453
965.5486722,87.1999969482422
965.5642972,78.5199966430664
965.5799222,68.0400009155273
965.5955472,56.2200012207031
965.6111722,43.4099998474121
965.6267972,29.9599990844727
965.6424222,16.3299999237061
965.6580472,3.17000007629395
965.6736722,-8.85000038146973
965.6892972,-19.4400005340576
965.7049222,-28.5499992370605
965.7205472,-36.1399993896484
965.7361722,-42.1199989318848
965.7517972,-46.5400009155273
965.7674222,-49.6800003051758
965.7830472,-51.9700012207031
965.7986722,-53.7299995422363
965.8142972,-55.060001373291
965.8299222,-55.8600006103516
965.8455472,-56.0099983215332
965.8611722,-55.5
965.8767972,-54.439998626709
965.8924222,-52.9700012207031
965.9080472,-51.2299995422363
965.9236722,-49.2900009155273
965.9392972,-47.2099990844727
965.9549222,-45.0200004577637
965.9705472,-42.6599998474121
965.9861722,-40.0200004577637
966.0017972,-36.9199981689453
966.0174222,-33.2900009155273
966.0330472,-29.3199996948242
966.0486722,-25.3500003814697
966.0642972,-21.4300003051758
966.0799222,-17.0100002288818
966.0955472,-11.039999961853
966.1111722,-2.42000007629395
966.1267972,9.42000007629395
966.1424222,24.2700004577637
966.1580472,41.0499992370605
966.1736722,58.4799995422363
966.1892972,75.6500015258789
966.2049222,91.7799987792969
966.2205472,105.470001220703
966.2361722,115.050003051758
966.2517972,119.440002441406
966.2674222,118.559997558594
966.2830472,113.199996948242
966.2986722,104.519996643066
966.3142972,93.7200012207031
966.3299222,81.7600021362305
966.3455472,69.1699981689453
966.3611722,56.1399993896484
966.3767972,42.75
966.3924222,29.2099990844727
966.4080472,15.8299999237061
966.4236722,2.92000007629395
966.4392972,-9.19999980926514
966.4549222,-20.2600002288818
966.4705472,-30.1100006103516
966.4861722,-38.8199996948242
966.5017972,-46.5299987792969
966.5174222,-53.3800010681152
966.5330472,-59.5900001525879
966.5486722,-65.3499984741211
966.5642972,-70.5899963378906
966.5799222,-74.8300018310547
966.5955472,-77.4800033569336
966.6111722,-78.3099975585938
966.6267972,-77.5100021362305
966.6424222,-75.6500015258789
966.6580472,-73.3600006103516
966.6736722,-71.1600036621094
966.6892972,-69.25
966.7049222,-67.4100036621094
966.7205472,-65.2099990844727
966.7361722,-62.4099998474121
