Time(s),Value(%)
233.0039563,-4.6100001335144
233.0195813,-5.84999990463257
233.0352063,-7.09999990463257
233.0508313,-8.35000038146973
233.0664563,-9.57999992370605
233.0820813,-10.7600002288818
233.0977063,-11.8900003433228
233.1133313,-12.9399995803833
233.1289563,-13.8999996185303
233.1445813,-14.75
233.1602063,-15.4700002670288
233.1758313,-15.960000038147
233.1914563,-16.1399993896484
233.2070813,-16.0100002288818
233.2227063,-16.0100002288818
233.2383313,-15.9200000762939
233.2539563,-15.8299999237061
233.2695813,-15.7399997711182
233.2852063,-15.6099996566772
233.3008313,-15.4899997711182
233.3164563,-15.5200004577637
233.3320813,-15.7799997329712
233.3477063,-16.2999992370605
233.3633313,-16.9699993133545
233.3789563,-17.6900005340576
233.3945813,-18.4099998474121
233.4102063,-19.0900001525879
233.4258313,-19.75
233.4414563,-20.3899993896484
233.4570813,-20.9599990844727
233.4727063,-21.3899993896484
233.4883313,-21.6700000762939
233.5039563,-21.8799991607666
233.5195813,-22.1499996185303
233.5352063,-22.6000003814697
233.5508313,-23.2099990844727
233.5664563,-23.9200000762939
233.5820813,-24.6499996185303
233.5977063,-25.3799991607666
233.6133313,-26.1100006103516
233.6289563,-26.8500003814697
233.6445813,-27.5900001525879
233.6602063,-28.2999992370605
233.6758313,-28.9599990844727
233.6914563,-29.5699996948242
233.7070813,-30.1299991607666
233.7227063,-30.6100006103516
233.7383313,-31.0
233.7539563,-31.2600002288818
233.7695813,-31.4099998474121
233.7852063,-31.4899997711182
233.8008313,-31.5799999237061
233.8164563,-31.7600002288818
233.8320813,-32.0
233.8477063,-32.25
233.8633313,-32.4900016784668
233.8789563,-32.7000007629395
233.8945813,-32.8899993896484
233.9102063,-33.0800018310547
233.9258313,-33.25
233.9414563,-33.2999992370605
233.9570813,-33.0800018310547
233.9727063,-32.4300003051758
233.9883313,-31.3400001525879
234.0039563,-29.8899993896484
234.0195813,-28.1800003051758
234.0352063,-26.2800006866455
234.0508313,-24.2999992370605
234.0664563,-22.3999996185303
234.0820813,-20.8500003814697
234.0977063,-19.8299999237061
234.1133313,-19.3199996948242
234.1289563,-19.1299991607666
234.1445813,-19.1000003814697
234.1602063,-19.1200008392334
234.1758313,-19.0799999237061
234.1914563,-18.9200000762939
234.2070813,-18.6100006103516
234.2227063,-18.5499992370605
234.2383313,-18.4899997711182
234.2539563,-18.5200004577637
234.2695813,-18.6200008392334
234.2852063,-18.6700000762939
234.3008313,-18.6499996185303
234.3164563,-18.6100006103516
234.3320813,-18.6399993896484
234.3477063,-18.7900009155273
234.3633313,-19.0200004577637
234.3789563,-19.2199993133545
234.3945813,-19.2199993133545
234.4102063,-18.8799991607666
234.4258313,-18.1800003051758
234.4414563,-17.1100006103516
234.4570813,-15.6099996566772
234.4727063,-13.6400003433228
234.4883313,-11.2600002288818
234.5039563,-8.75
234.5195813,-6.55000019073486
234.5352063,-4.92999982833862
234.5508313,-3.76999998092651
234.5664563,-2.75
234.5820813,-1.70000004768372
234.5977063,-0.730000019073486
234.6133313,-0.0099999997764825
234.6289563,0.349999994039536
234.6445813,0.430000007152557
234.6602063,0.409999996423721
234.6758313,0.550000011920929
234.6914563,1.04999995231628
234.7070813,1.95000004768372
234.7227063,3.29999995231628
234.7383313,5.21000003814697
234.7539563,7.80999994277954
234.7695813,11.0200004577637
234.7852063,14.3800001144409
234.8008313,17.1800003051758
234.8164563,18.8999996185303
234.8320813,19.6100006103516
234.8477063,19.7399997711182
234.8633313,19.5900001525879
234.8789563,19.1499996185303
234.8945813,18.2999992370605
234.9102063,17.0100002288818
234.9258313,15.4300003051758
234.9414563,13.7600002288818
234.9570813,12.2299995422363
234.9727063,10.9700002670288
234.9883313,10.0100002288818
235.0039563,9.34000015258789
235.0195813,9.0
235.0352063,9.07999992370605
235.0508313,9.52000045776367
235.0664563,10.0
235.0820813,10.0100002288818
235.0977063,9.19999980926514
235.1133313,7.6100001335144
235.1289563,5.6399998664856
235.1445813,3.60999989509583
235.1602063,1.62000000476837
235.1758313,-0.349999994039536
235.1914563,-2.39000010490417
235.2070813,-4.48000001907349
235.2227063,-6.57000017166138
235.2383313,-8.47999954223633
235.2539563,-10.1000003814697
235.2695813,-11.3699998855591
235.2852063,-12.2399997711182
235.3008313,-12.6300001144409
235.3164563,-12.4399995803833
235.3320813,-11.7200002670288
235.3477063,-10.8000001907349
235.3633313,-10.1899995803833
235.3789563,-10.2600002288818
235.3945813,-10.9899997711182
235.4102063,-12.0500001907349
235.4258313,-13.2299995422363
235.4414563,-14.5
235.4570813,-15.9399995803833
235.4727063,-17.5900001525879
235.4883313,-19.3099994659424
235.5039563,-20.7999992370605
235.5195813,-21.5599994659424
235.5352063,-21.1700000762939
235.5508313,-19.5499992370605
235.5664563,-16.8999996185303
235.5820813,-13.4099998474121
235.5977063,-9.21000003814697
235.6133313,-4.57000017166138
235.6289563,-0.0599999986588955
235.6445813,3.40000009536743
235.6602063,5.17000007629395
235.6758313,5.28999996185303
235.6914563,4.32999992370605
235.7070813,2.79999995231628
235.7227063,0.930000007152557
235.7383313,-1.24000000953674
235.7539563,-3.6800000667572
235.7695813,-6.23999977111816
235.7852063,-8.68000030517578
235.8008313,-10.7200002670288
235.8164563,-12.1300001144409
235.8320813,-12.8900003433228
235.8477063,-13.0500001907349
235.8633313,-12.6300001144409
235.8789563,-11.6400003433228
235.8945813,-10.1700000762939
235.9102063,-8.64000034332275
235.9258313,-7.67000007629395
235.9414563,-7.71999979019165
235.9570813,-8.73999977111816
235.9727063,-10.289999961853
235.9883313,-12.0200004577637
236.0039563,-13.8000001907349
236.0195813,-15.6700000762939
236.0352063,-17.6599998474121
236.0508313,-19.7000007629395
236.0664563,-21.5900001525879
236.0820813,-23.0699996948242
236.0977063,-23.8899993896484
236.1133313,-24.0100002288818
236.1289563,-23.4699993133545
236.1445813,-22.2199993133545
236.1602063,-20.2299995422363
236.1758313,-17.6200008392334
236.1914563,-14.8500003814697
236.2070813,-12.6000003814697
236.2227063,-11.3100004196167
236.2383313,-10.6000003814697
236.2539563,-9.85000038146973
236.2695813,-8.69999980926514
236.2852063,-7.32999992370605
236.3008313,-6.1399998664856
236.3164563,-5.3899998664856
236.3320813,-5.1100001335144
236.3477063,-5.1100001335144
236.3633313,-5.13000011444092
236.3789563,-4.96999979019165
236.3945813,-4.53999996185303
236.4102063,-3.74000000953674
236.4258313,-2.38000011444092
236.4414563,-0.259999990463257
236.4570813,2.53999996185303
236.4727063,5.5
236.4883313,7.67999982833862
236.5039563,8.39999961853027
236.5195813,7.71000003814697
236.5352063,6.19000005722046
236.5508313,4.40999984741211
236.5664563,2.6800000667572
236.5820813,1.26999998092651
236.5977063,0.449999988079071
236.6133313,0.259999990463257
236.6289563,0.430000007152557
236.6445813,0.409999996423721
236.6602063,-0.180000007152557
236.6758313,-1.28999996185303
236.6914563,-2.58999991416931
236.7070813,-3.92000007629395
236.7227063,-5.3899998664856
236.7383313,-7.19000005722046
236.7539563,-9.32999992370605
236.7695813,-11.6800003051758
236.7852063,-14.0
236.8008313,-16.0699996948242
236.8164563,-17.7600002288818
236.8320813,-19.0499992370605
236.8477063,-19.9500007629395
236.8633313,-20.3799991607666
236.8789563,-20.2299995422363
236.8945813,-19.5599994659424
236.9102063,-18.7000007629395
236.9258313,-18.1700000762939
236.9414563,-18.3199996948242
236.9570813,-18.9500007629395
236.9727063,-19.5599994659424
236.9883313,-19.8400001525879
237.0039563,-19.8500003814697
237.0195813,-19.8099994659424
237.0352063,-19.9400005340576
237.0508313,-20.2800006866455
237.0664563,-20.75
237.0820813,-21.2199993133545
237.0977063,-21.6200008392334
237.1133313,-21.8600006103516
237.1289563,-21.7999992370605
237.1445813,-21.1900005340576
237.1602063,-19.7600002288818
237.1758313,-17.5400009155273
237.1914563,-14.9700002670288
237.2070813,-12.710000038147
237.2227063,-11.2799997329712
237.2383313,-10.5699996948242
237.2539563,-10.1499996185303
237.2695813,-9.77999973297119
237.2852063,-9.52000045776367
237.3008313,-9.55000019073486
237.3164563,-9.9399995803833
237.3320813,-10.6000003814697
237.3477063,-11.3100004196167
237.3633313,-11.8599996566772
237.3789563,-12.1000003814697
237.3945813,-12.0100002288818
237.4102063,-11.5500001907349
237.4258313,-10.6300001144409
237.4414563,-9.10999965667725
237.4570813,-7.05999994277954
237.4727063,-4.8600001335144
237.4883313,-3.09999990463257
237.5039563,-2.23000001907349
237.5195813,-2.16000008583069
237.5352063,-2.47000002861023
237.5508313,-2.8199999332428
237.5664563,-3.1800000667572
237.5820813,-3.64000010490417
237.5977063,-4.28999996185303
237.6133313,-5.09000015258789
237.6289563,-5.94999980926514
237.6445813,-6.78000020980835
237.6602063,-7.55000019073486
237.6758313,-8.19999980926514
237.6914563,-8.53999996185303
237.7070813,-8.17000007629395
237.7227063,-6.73999977111816
237.7383313,-4.21999979019165
237.7539563,-1.07000005245209
237.7695813,2.00999999046326
237.7852063,4.6100001335144
237.8008313,6.8899998664856
237.8164563,9.22999954223633
237.8320813,11.6899995803833
237.8477063,13.9099998474121
237.8633313,15.5299997329712
237.8789563,16.3999996185303
237.8945813,16.7099990844727
237.9102063,16.8700008392334
237.9258313,17.3099994659424
237.9414563,18.3199996948242
237.9570813,19.9799995422363
237.9727063,22.25
237.9883313,25.2600002288818
238.0039563,29.1299991607666
238.0195813,33.7599983215332
238.0352063,38.4799995422363
238.0508313,42.2900009155273
238.0664563,44.4700012207031
238.0820813,45.1300010681152
238.0977063,44.9700012207031
238.1133313,44.5
238.1289563,43.7900009155273
238.1445813,42.6699981689453
238.1602063,41.0900001525879
238.1758313,39.1500015258789
238.1914563,37.1100006103516
238.2070813,35.2799987792969
238.2227063,33.9000015258789
238.2383313,32.9799995422363
238.2539563,32.5200004577637
238.2695813,32.5900001525879
238.2852063,33.2700004577637
238.3008313,34.4900016784668
238.3164563,35.7599983215332
238.3320813,36.310001373291
238.3477063,35.5499992370605
238.3633313,33.5099983215332
238.3789563,30.7099990844727
238.3945813,27.6299991607666
238.4102063,24.4799995422363
238.4258313,21.2800006866455
238.4414563,18.0200004577637
238.4570813,14.7600002288818
238.4727063,11.75
238.4883313,9.39999961853027
238.5039563,8.03999996185303
238.5195813,7.76000022888184
238.5352063,8.5600004196167
238.5508313,10.5200004577637
238.5664563,13.789999961853
238.5820813,18.1700000762939
238.5977063,22.9200000762939
238.6133313,26.9500007629395
238.6289563,29.5400009155273
238.6445813,30.8500003814697
238.6602063,31.5200004577637
238.6758313,31.9099998474121
238.6914563,31.8500003814697
238.7070813,31.0400009155273
238.7227063,29.4300003051758
238.7383313,27.2600002288818
238.7539563,25.0200004577637
238.7695813,23.25
238.7852063,22.3099994659424
238.8008313,22.25
238.8164563,23.0100002288818
238.8320813,24.6299991607666
238.8477063,27.2000007629395
238.8633313,30.5499992370605
238.8789563,33.9799995422363
238.8945813,36.310001373291
238.9102063,36.6800003051758
238.9258313,35.0900001525879
238.9414563,32.2299995422363
238.9570813,28.7800006866455
238.9727063,25.1100006103516
238.9883313,21.5100002288818
239.0039563,18.2399997711182
239.0195813,15.4499998092651
239.0352063,12.960000038147
239.0508313,10.3500003814697
239.0664563,7.21999979019165
239.0820813,3.60999989509583
239.0977063,-0.180000007152557
239.1133313,-3.98000001907349
239.1289563,-7.78000020980835
239.1445813,-11.6700000762939
239.1602063,-15.6499996185303
239.1758313,-19.6000003814697
239.1914563,-23.25
239.2070813,-26.2000007629395
239.2227063,-28.0699996948242
239.2383313,-28.8799991607666
239.2539563,-28.6299991607666
239.2695813,-27.1800003051758
239.2852063,-24.3500003814697
239.3008313,-20.3099994659424
239.3164563,-15.7799997329712
239.3320813,-11.8000001907349
239.3477063,-9.0600004196167
239.3633313,-7.44000005722046
239.3789563,-6.34000015258789
239.3945813,-5.53000020980835
239.4102063,-5.19999980926514
239.4258313,-5.65000009536743
239.4414563,-6.92000007629395
239.4570813,-8.69999980926514
239.4727063,-10.5
239.4883313,-11.7600002288818
239.5039563,-12.1199998855591
239.5195813,-11.5500001907349
239.5352063,-10.1499996185303
239.5508313,-7.92999982833862
239.5664563,-4.8600001335144
239.5820813,-1.11000001430511
239.5977063,2.64000010490417
239.6133313,5.34999990463257
239.6289563,6.26000022888184
239.6445813,5.55000019073486
239.6602063,4.03999996185303
239.6758313,2.36999988555908
239.6914563,0.689999997615814
239.7070813,-1.1599999666214
239.7227063,-3.30999994277954
239.7383313,-5.71999979019165
239.7539563,-8.22999954223633
239.7695813,-10.6300001144409
239.7852063,-12.7799997329712
239.8008313,-14.6099996566772
239.8164563,-16.0599994659424
239.8320813,-16.9500007629395
239.8477063,-17.1000003814697
239.8633313,-16.5799999237061
239.8789563,-15.8199996948242
239.8945813,-15.5900001525879
239.9102063,-16.4400005340576
239.9258313,-18.3400001525879
239.9414563,-20.7900009155273
239.9570813,-23.3799991607666
239.9727063,-25.9400005340576
239.9883313,-28.5200004577637
240.0039563,-31.1499996185303
240.0195813,-33.7400016784668
240.0352063,-35.939998626709
240.0508313,-37.1800003051758
240.0664563,-36.9500007629395
240.0820813,-35.1699981689453
240.0977063,-32.0400009155273
240.1133313,-27.7600002288818
240.1289563,-22.4899997711182
240.1445813,-16.5300006866455
240.1602063,-10.6599998474121
240.1758313,-5.98999977111816
240.1914563,-3.29999995231628
240.2070813,-2.42000007629395
240.2227063,-2.54999995231628
240.2383313,-3.05999994277954
240.2539563,-3.83999991416931
240.2695813,-4.98999977111816
240.2852063,-6.57999992370605
240.3008313,-8.46000003814697
240.3164563,-10.289999961853
240.3320813,-11.6499996185303
240.3477063,-12.210000038147
240.3633313,-11.9099998474121
240.3789563,-10.8100004196167
240.3945813,-8.89000034332275
240.4102063,-6.11999988555908
240.4258313,-2.66000008583069
240.4414563,0.839999973773956
240.4570813,3.40000009536743
240.4727063,4.23999977111816
240.4883313,3.40000009536743
240.5039563,1.49000000953674
240.5195813,-0.920000016689301
240.5352063,-3.58999991416931
240.5508313,-6.48000001907349
240.5664563,-9.5600004196167
240.5820813,-12.6999998092651
240.5977063,-15.6700000762939
240.6133313,-18.2199993133545
240.6289563,-20.1800003051758
240.6445813,-21.5200004577637
240.6602063,-22.2700004577637
240.6758313,-22.4400005340576
240.6914563,-22.0
240.7070813,-21.0499992370605
240.7227063,-19.9699993133545
240.7383313,-19.3500003814697
240.7539563,-19.5699996948242
240.7695813,-20.4300003051758
240.7852063,-21.3999996185303
240.8008313,-22.1100006103516
240.8164563,-22.5499992370605
240.8320813,-22.9400005340576
240.8477063,-23.4400005340576
240.8633313,-24.0799999237061
240.8789563,-24.6499996185303
240.8945813,-24.7700004577637
240.9102063,-24.0900001525879
240.9258313,-22.5300006866455
240.9414563,-20.1599998474121
240.9570813,-17.0499992370605
240.9727063,-13.210000038147
240.9883313,-8.84000015258789
241.0039563,-4.53000020980835
241.0195813,-1.17999994754791
241.0352063,0.529999971389771
241.0508313,0.680000007152557
241.0664563,-0.140000000596046
241.0820813,-1.37000000476837
241.0977063,-2.6800000667572
241.1133313,-3.85999989509583
241.1289563,-4.71999979019165
241.1445813,-5.19000005722046
241.1602063,-5.44999980926514
241.1758313,-5.8899998664856
241.1914563,-6.90999984741211
241.2070813,-8.64999961853027
241.2227063,-11.0100002288818
241.2383313,-13.8400001525879
241.2539563,-17.0
241.2695813,-20.3099994659424
241.2852063,-23.6000003814697
241.3008313,-26.7199993133545
241.3164563,-29.6000003814697
241.3320813,-32.3499984741211
241.3477063,-35.0800018310547
241.3633313,-37.8600006103516
241.3789563,-40.7200012207031
241.3945813,-43.6300010681152
241.4102063,-46.6100006103516
241.4258313,-49.5699996948242
241.4414563,-52.3499984741211
241.4570813,-54.7200012207031
241.4727063,-56.6100006103516
241.4883313,-58.2599983215332
241.5039563,-59.9700012207031
241.5195813,-61.8300018310547
241.5352063,-63.6800003051758
241.5508313,-65.2300033569336
241.5664563,-66.2900009155273
241.5820813,-66.8899993896484
241.5977063,-67.2600021362305
241.6133313,-67.8499984741211
241.6289563,-69.0299987792969
241.6445813,-70.9000015258789
241.6602063,-73.379997253418
241.6758313,-76.4100036621094
241.6914563,-79.9700012207031
241.7070813,-83.8499984741211
241.7227063,-87.4700012207031
241.7383313,-89.9199981689453
241.7539563,-90.5599975585938
241.7695813,-89.4300003051758
241.7852063,-87.129997253418
241.8008313,-84.1600036621094
241.8164563,-80.7099990844727
241.8320813,-76.8000030517578
241.8477063,-72.4499969482422
241.8633313,-67.8199996948242
241.8789563,-63.189998626709
241.8945813,-58.9099998474121
241.9102063,-55.2200012207031
241.9258313,-52.1800003051758
241.9414563,-49.7900009155273
241.9570813,-48.1199989318848
241.9727063,-47.2900009155273
241.9883313,-47.1599998474121
242.0039563,-47.2000007629395
242.0195813,-46.5800018310547
242.0352063,-44.7099990844727
242.0508313,-41.6800003051758
242.0664563,-38.0
242.0820813,-34.0200004577637
242.0977063,-29.7600002288818
242.1133313,-25.0699996948242
242.1289563,-19.9500007629395
242.1445813,-14.5900001525879
242.1602063,-9.39999961853027
242.1758313,-4.98999977111816
242.1914563,-1.78999996185303
242.2070813,0.0700000002980232
242.2227063,0.670000016689301
242.2383313,-0.119999997317791
242.2539563,-2.46000003814697
242.2695813,-6.11999988555908
242.2852063,-10.1499996185303
242.3008313,-13.1800003051758
242.3164563,-14.289999961853
242.3320813,-13.7299995422363
242.3477063,-12.3999996185303
242.3633313,-10.8000001907349
242.3789563,-8.69999980926514
242.3945813,-5.71999979019165
242.4102063,-1.73000001907349
242.4258313,2.98000001907349
242.4414563,7.8899998664856
242.4570813,12.4200000762939
242.4727063,16.2299995422363
242.4883313,19.2099990844727
242.5039563,21.3099994659424
242.5195813,22.2299995422363
242.5352063,21.6700000762939
242.5508313,19.75
242.5664563,17.4099998474121
242.5820813,16.1200008392334
242.5977063,16.9200000762939
242.6133313,19.6000003814697
242.6289563,23.1700000762939
242.6445813,26.9500007629395
242.6602063,30.9200000762939
242.6758313,35.4000015258789
242.6914563,40.5299987792969
242.7070813,46.0900001525879
242.7227063,51.4500007629395
242.7383313,55.7700004577637
242.7539563,58.3699989318848
242.7695813,59.0900001525879
242.7852063,58.0400009155273
242.8008313,55.1399993896484
242.8164563,50.2599983215332
242.8320813,43.7700004577637
242.8477063,36.9799995422363
242.8633313,31.8400001525879
242.8789563,29.5100002288818
242.8945813,29.2000007629395
242.9102063,29.1200008392334
242.9258313,28.2600002288818
242.9414563,27.0
242.9570813,26.3199996948242
242.9727063,26.9099998474121
242.9883313,28.7099990844727
243.0039563,30.9799995422363
243.0195813,32.5699996948242
243.0352063,32.560001373291
243.0508313,30.7000007629395
243.0664563,27.1700000762939
243.0820813,22.0799999237061
243.0977063,15.4700002670288
243.1133313,7.82999992370605
243.1289563,0.740000009536743
243.1445813,-3.24000000953674
243.1602063,-2.25999999046326
243.1758313,3.40000009536743
243.1914563,11.7700004577637
243.2070813,20.8899993896484
243.2227063,29.8999996185303
243.2383313,38.75
243.2539563,47.6300010681152
243.2695813,56.560001373291
243.2852063,65.1100006103516
243.3008313,72.5100021362305
243.3164563,78.0699996948242
243.3320813,81.629997253418
243.3477063,83.6900024414063
243.3633313,85.0199966430664
243.3789563,86.3000030517578
243.3945813,87.9100036621094
243.4102063,90.120002746582
243.4258313,93.2099990844727
243.4414563,97.4199981689453
243.4570813,102.610000610352
243.4727063,108.220001220703
243.4883313,113.349998474121
243.5039563,117.190002441406
243.5195813,119.5
243.5352063,120.889999389648
243.5508313,122.769996643066
243.5664563,126.559997558594
243.5820813,132.75
243.5977063,140.759994506836
243.6133313,149.479995727539
243.6289563,157.910003662109
243.6445813,165.550003051758
243.6602063,172.389999389648
243.6758313,178.610000610352
243.6914563,184.389999389648
