Time(s),Value(%)
1394.006733,-151.259994506836
1394.022358,-157.479995727539
1394.037983,-156.960006713867
1394.053608,-150.229995727539
1394.069233,-138.649993896484
1394.084858,-123.779998779297
1394.100483,-107.220001220703
1394.116108,-90.379997253418
1394.131733,-74.120002746582
1394.147358,-58.2000007629395
1394.162983,-41.2400016784668
1394.178608,-21.7099990844727
1394.194233,0.860000014305115
1394.209858,25.8700008392334
1394.225483,52.3400001525879
1394.241108,79.4599990844727
1394.256733,106.26000213623
1394.272358,131.009994506836
1394.287983,151.190002441406
1394.303608,164.669998168945
1394.319233,171.080001831055
1394.334858,171.75
1394.350483,168.470001220703
1394.366108,162.75
1394.381733,155.679992675781
1394.397358,148.050003051758
1394.412983,140.369995117188
1394.428608,133.039993286133
1394.444233,126.300003051758
1394.459858,120.290000915527
1394.475483,114.889999389648
1394.491108,109.660003662109
1394.506733,103.919998168945
1394.522358,97.0999984741211
1394.537983,89.0400009155273
1394.553608,80.0500030517578
1394.569233,70.4700012207031
1394.584858,60.4099998474121
1394.600483,49.6199989318848
1394.616108,38.0200004577637
1394.631733,25.9099998474121
1394.647358,14.4799995422363
1394.662983,4.44000005722046
1394.678608,-4.05000019073486
1394.694233,-11.3100004196167
1394.709858,-17.7600002288818
1394.725483,-23.6800003051758
1394.741108,-29.1800003051758
1394.756733,-34.310001373291
1394.772358,-39.3800010681152
1394.787983,-45.0499992370605
1394.803608,-51.9500007629395
1394.819233,-60.1599998474121
1394.834858,-68.9800033569336
1394.850483,-77.3399963378906
1394.866108,-84.7300033569336
1394.881733,-91.7200012207031
1394.897358,-99.2300033569336
1394.912983,-107.410003662109
1394.928608,-115.480003356934
1394.944233,-122.449996948242
1394.959858,-127.800003051758
1394.975483,-131.660003662109
1394.991108,-134.679992675781
1395.006733,-137.660003662109
1395.022358,-141.220001220703
1395.037983,-145.520004272461
1395.053608,-150.610000610352
1395.069233,-156.679992675781
1395.084858,-163.990005493164
1395.100483,-172.289993286133
1395.116108,-180.350006103516
1395.131733,-186.229995727539
1395.147358,-188.630004882813
1395.162983,-188.119995117188
1395.178608,-186.369995117188
1395.194233,-184.610000610352
1395.209858,-182.889999389648
1395.225483,-180.679992675781
1395.241108,-177.5
1395.256733,-173.229995727539
1395.272358,-167.809997558594
1395.287983,-160.910003662109
1395.303608,-152.149993896484
1395.319233,-141.529998779297
1395.334858,-129.5
1395.350483,-116.569999694824
1395.366108,-103.150001525879
1395.381733,-89.5599975585938
1395.397358,-75.9800033569336
1395.412983,-62.3600006103516
1395.428608,-48.2900009155273
1395.444233,-33.2299995422363
1395.459858,-17.0300006866455
1395.475483,-0.25
1395.491108,16.0
1395.506733,30.8299999237061
1395.522358,43.8699989318848
1395.537983,55.3699989318848
1395.553608,65.9599990844727
1395.569233,76.4400024414063
1395.584858,87.370002746582
1395.600483,98.7799987792969
1395.616108,110.25
1395.631733,119.73999786377
1395.647358,128.039993286133
1395.662983,134.899993896484
1395.678608,140.039993286133
1395.694233,142.910003662109
1395.709858,143.199996948242
1395.725483,141.460006713867
1395.741108,138.899993896484
1395.756733,136.720001220703
1395.772358,135.539993286133
1395.787983,135.279998779297
1395.803608,135.449996948242
1395.819233,135.570007324219
1395.834858,135.580001831055
1395.850483,135.940002441406
1395.866108,137.220001220703
1395.881733,139.649993896484
1395.897358,143.009994506836
1395.912983,146.869995117188
1395.928608,150.839996337891
1395.944233,154.539993286133
1395.959858,157.289993286133
1395.975483,158.070007324219
1395.991108,155.910003662109
1396.006733,150.470001220703
1396.022358,142.240005493164
1396.037983,132.110000610352
1396.053608,120.930000305176
1396.069233,109.110000610352
1396.084858,96.7600021362305
1396.100483,84.0500030517578
1396.116108,71.3899993896484
1396.131733,59.3699989318848
1396.147358,48.2099990844727
1396.162983,37.4700012207031
1396.178608,26.5100002288818
1396.194233,15.25
1396.209858,4.23000001907349
1396.225483,-5.8600001335144
1396.241108,-14.6800003051758
1396.256733,-22.3700008392334
1396.272358,-29.5599994659424
1396.287983,-37.2400016784668
1396.303608,-46.1800003051758
1396.319233,-56.5499992370605
1396.334858,-68.0400009155273
1396.350483,-80.3399963378906
1396.366108,-93.2200012207031
1396.381733,-106.23999786377
1396.397358,-118.319999694824
1396.412983,-127.709999084473
1396.428608,-132.880004882813
1396.444233,-133.520004272461
1396.459858,-130.440002441406
1396.475483,-124.879997253418
1396.491108,-117.889999389648
1396.506733,-110.25
1396.522358,-102.480003356934
1396.537983,-95.0
1396.553608,-88.3099975585938
1396.569233,-83.1100006103516
1396.584858,-79.9700012207031
1396.600483,-78.9499969482422
1396.616108,-79.6399993896484
1396.631733,-80.2099990844727
1396.647358,-81.7600021362305
1396.662983,-83.870002746582
1396.678608,-85.8199996948242
1396.694233,-86.620002746582
1396.709858,-85.4899978637695
1396.725483,-82.3199996948242
1396.741108,-77.5199966430664
1396.756733,-71.5599975585938
1396.772358,-64.8000030517578
1396.787983,-57.5699996948242
1396.803608,-50.2299995422363
1396.819233,-43.1300010681152
1396.834858,-36.5299987792969
1396.850483,-30.6100006103516
1396.866108,-25.4300003051758
1396.881733,-20.8600006103516
1396.897358,-16.6100006103516
1396.912983,-12.2700004577637
1396.928608,-7.48999977111816
1396.944233,-2.22000002861023
1396.959858,3.38000011444092
1396.975483,9.14999961853027
1396.991108,15.2299995422363
1397.006733,22.1299991607666
1397.022358,30.2399997711182
1397.037983,39.3300018310547
1397.053608,48.5900001525879
1397.069233,57.1599998474121
1397.084858,64.5599975585938
1397.100483,70.75
1397.116108,75.9100036621094
1397.131733,80.2300033569336
1397.147358,83.8199996948242
1397.162983,86.75
1397.178608,89.2200012207031
1397.194233,91.5400009155273
1397.209858,93.9700012207031
1397.225483,96.5500030517578
1397.241108,98.9300003051758
1397.256733,100.430000305176
1397.272358,100.459999084473
1397.287983,98.9899978637695
1397.303608,96.4300003051758
1397.319233,93.3099975585938
1397.334858,89.9800033569336
1397.350483,86.5800018310547
1397.366108,83.1699981689453
1397.381733,79.7600021362305
1397.397358,76.4499969482422
1397.412983,73.3899993896484
1397.428608,70.7200012207031
1397.444233,68.5500030517578
1397.459858,67.0899963378906
1397.475483,66.8300018310547
1397.491108,68.2200012207031
1397.506733,71.2099990844727
1397.522358,75.0999984741211
1397.537983,78.879997253418
1397.553608,82.0199966430664
1397.569233,84.879997253418
1397.584858,88.0100021362305
1397.600483,91.3499984741211
1397.616108,94.120002746582
1397.631733,94.5199966430664
1397.647358,93.4199981689453
1397.662983,91.1699981689453
1397.678608,88.2900009155273
1397.694233,85.120002746582
1397.709858,81.7300033569336
1397.725483,78.1500015258789
1397.741108,74.4599990844727
1397.756733,70.9100036621094
1397.772358,67.7399978637695
1397.787983,64.9899978637695
1397.803608,62.2900009155273
1397.819233,58.9199981689453
1397.834858,54.2099990844727
1397.850483,48.0099983215332
1397.866108,40.689998626709
1397.881733,32.8199996948242
1397.897358,24.8700008392334
1397.912983,17.1700000762939
1397.928608,9.84000015258789
1397.944233,2.92000007629395
1397.959858,-3.67000007629395
1397.975483,-10.0600004196167
1397.991108,-16.3700008392334
1398.006733,-22.6200008392334
1398.022358,-28.7199993133545
1398.037983,-34.5800018310547
1398.053608,-40.0900001525879
1398.069233,-45.1699981689453
1398.084858,-49.5400009155273
1398.100483,-52.7000007629395
1398.116108,-54.2099990844727
1398.131733,-54.0
1398.147358,-52.4099998474121
1398.162983,-49.7799987792969
1398.178608,-46.4099998474121
1398.194233,-42.560001373291
1398.209858,-38.7099990844727
1398.225483,-35.5800018310547
1398.241108,-33.810001373291
1398.256733,-33.6100006103516
1398.272358,-34.7799987792969
1398.287983,-37.0299987792969
1398.303608,-40.0999984741211
1398.319233,-43.7799987792969
1398.334858,-47.7999992370605
1398.350483,-51.8699989318848
1398.366108,-55.75
1398.381733,-59.3300018310547
1398.397358,-62.6399993896484
1398.412983,-65.8600006103516
1398.428608,-69.1699981689453
1398.444233,-72.6600036621094
1398.459858,-76.3099975585938
1398.475483,-80.0800018310547
1398.491108,-83.9499969482422
1398.506733,-87.8300018310547
1398.522358,-91.5199966430664
1398.537983,-94.7600021362305
1398.553608,-97.3600006103516
1398.569233,-99.3000030517578
1398.584858,-100.709999084473
1398.600483,-101.650001525879
1398.616108,-102.139999389648
1398.631733,-101.559997558594
1398.647358,-100.620002746582
1398.662983,-99.4100036621094
1398.678608,-97.8199996948242
1398.694233,-95.4700012207031
1398.709858,-92.0100021362305
1398.725483,-87.370002746582
1398.741108,-81.8600006103516
1398.756733,-75.9000015258789
1398.772358,-69.8399963378906
1398.787983,-63.9700012207031
1398.803608,-58.5699996948242
1398.819233,-54.0699996948242
1398.834858,-50.7799987792969
1398.850483,-48.7700004577637
1398.866108,-47.7599983215332
1398.881733,-47.4000015258789
1398.897358,-47.3699989318848
1398.912983,-47.439998626709
1398.928608,-47.4599990844727
1398.944233,-47.3899993896484
1398.959858,-47.2599983215332
1398.975483,-47.2299995422363
1398.991108,-47.4199981689453
1399.006733,-47.8699989318848
1399.022358,-48.4799995422363
1399.037983,-49.0800018310547
1399.053608,-49.5200004577637
1399.069233,-49.75
1399.084858,-49.8400001525879
1399.100483,-49.9799995422363
1399.116108,-50.3499984741211
1399.131733,-50.9799995422363
1399.147358,-51.810001373291
1399.162983,-52.6699981689453
1399.178608,-53.4500007629395
1399.194233,-54.0400009155273
1399.209858,-54.25
1399.225483,-53.7700004577637
1399.241108,-52.2700004577637
1399.256733,-49.6199989318848
1399.272358,-45.939998626709
1399.287983,-41.560001373291
1399.303608,-36.8300018310547
1399.319233,-31.9599990844727
1399.334858,-27.0499992370605
1399.350483,-22.1399993896484
1399.366108,-17.3400001525879
1399.381733,-12.8599996566772
1399.397358,-8.93000030517578
1399.412983,-5.67000007629395
1399.428608,-3.08999991416931
1399.444233,-1.12999999523163
1399.459858,0.310000002384186
1399.475483,1.44000005722046
1399.491108,2.41000008583069
1399.506733,3.35999989509583
1399.522358,4.28999996185303
1399.537983,5.09000015258789
1399.553608,5.61999988555908
1399.569233,5.82000017166138
1399.584858,5.67000007629395
1399.600483,5.19000005722046
1399.616108,4.34999990463257
1399.631733,3.26999998092651
1399.647358,2.16000008583069
1399.662983,1.37000000476837
1399.678608,1.12999999523163
1399.694233,1.36000001430511
1399.709858,1.80999994277954
1399.725483,2.33999991416931
1399.741108,2.98000001907349
1399.756733,3.84999990463257
1399.772358,4.96999979019165
1399.787983,6.32999992370605
1399.803608,7.92000007629395
1399.819233,9.86999988555908
1399.834858,12.3299999237061
1399.850483,15.3199996948242
1399.866108,18.7600002288818
1399.881733,22.5699996948242
1399.897358,26.6599998474121
1399.912983,30.9400005340576
1399.928608,35.2099990844727
1399.944233,39.2700004577637
1399.959858,43.0
1399.975483,46.3400001525879
1399.991108,49.2999992370605
1400.006733,51.8199996948242
1400.022358,53.810001373291
1400.037983,55.25
1400.053608,56.2599983215332
1400.069233,56.9900016784668
1400.084858,57.5200004577637
1400.100483,57.7700004577637
1400.116108,57.5699996948242
1400.131733,56.8699989318848
1400.147358,55.6800003051758
1400.162983,54.0400009155273
1400.178608,51.9700012207031
1400.194233,49.5999984741211
1400.209858,47.1500015258789
1400.225483,44.9300003051758
1400.241108,43.0999984741211
1400.256733,41.5200004577637
1400.272358,39.9300003051758
1400.287983,38.2700004577637
1400.303608,36.6800003051758
1400.319233,35.3499984741211
1400.334858,34.3699989318848
1400.350483,33.7000007629395
1400.366108,33.2200012207031
1400.381733,32.8199996948242
1400.397358,32.4500007629395
1400.412983,32.1199989318848
1400.428608,31.8400001525879
1400.444233,31.6700000762939
1400.459858,31.6499996185303
1400.475483,31.7900009155273
1400.491108,32.1399993896484
1400.506733,32.8300018310547
1400.522358,33.9300003051758
1400.537983,35.3600006103516
1400.553608,36.8499984741211
1400.569233,38.0699996948242
1400.584858,38.7400016784668
1400.600483,38.6699981689453
1400.616108,37.7700004577637
1400.631733,36.439998626709
1400.647358,34.7599983215332
1400.662983,33.0999984741211
1400.678608,31.6800003051758
1400.694233,30.3700008392334
1400.709858,29.0
1400.725483,27.5499992370605
1400.741108,26.25
1400.756733,25.3400001525879
1400.772358,24.8799991607666
1400.787983,24.7199993133545
1400.803608,24.5699996948242
1400.819233,24.0100002288818
1400.834858,22.7600002288818
1400.850483,20.7600002288818
1400.866108,18.0699996948242
1400.881733,14.6700000762939
1400.897358,10.5100002288818
1400.912983,5.71999979019165
1400.928608,0.839999973773956
1400.944233,-3.25999999046326
1400.959858,-5.96999979019165
1400.975483,-7.23000001907349
1400.991108,-7.42999982833862
1401.006733,-6.92000007629395
1401.022358,-5.80999994277954
1401.037983,-4.13000011444092
1401.053608,-2.00999999046326
1401.069233,0.340000003576279
1401.084858,2.77999997138977
1401.100483,5.30000019073486
1401.116108,7.98999977111816
1401.131733,10.8699998855591
1401.147358,13.8199996948242
1401.162983,16.5599994659424
1401.178608,18.8600006103516
1401.194233,20.6000003814697
1401.209858,21.9200000762939
1401.225483,23.0200004577637
1401.241108,24.0499992370605
1401.256733,25.0
1401.272358,25.7399997711182
1401.287983,26.2999992370605
1401.303608,26.7999992370605
1401.319233,27.3899993896484
1401.334858,28.1200008392334
1401.350483,28.9400005340576
1401.366108,29.6599998474121
1401.381733,30.0699996948242
1401.397358,29.9699993133545
1401.412983,29.3199996948242
1401.428608,28.1700000762939
1401.444233,26.5
1401.459858,24.2700004577637
1401.475483,21.5900001525879
1401.491108,18.7999992370605
1401.506733,16.4300003051758
1401.522358,14.8800001144409
1401.537983,14.1300001144409
1401.553608,13.8800001144409
1401.569233,13.8999996185303
1401.584858,14.1599998474121
1401.600483,14.710000038147
1401.616108,15.5100002288818
1401.631733,16.8500003814697
1401.647358,18.3700008392334
1401.662983,20.25
1401.678608,22.6900005340576
1401.694233,25.7600002288818
1401.709858,29.2900009155273
1401.725483,32.939998626709
1401.741108,36.439998626709
1401.756733,39.5999984741211
1401.772358,42.3199996948242
1401.787983,44.560001373291
1401.803608,46.2200012207031
1401.819233,47.25
1401.834858,47.6199989318848
1401.850483,47.4199981689453
1401.866108,46.8400001525879
1401.881733,46.060001373291
1401.897358,45.2299995422363
1401.912983,44.3800010681152
1401.928608,43.4500007629395
1401.944233,42.2400016784668
1401.959858,40.5999984741211
1401.975483,38.4700012207031
1401.991108,35.8699989318848
1402.006733,32.7799987792969
1402.022358,29.2099990844727
1402.037983,25.2299995422363
1402.053608,21.1800003051758
1402.069233,17.5200004577637
1402.084858,14.5900001525879
1402.100483,12.3500003814697
1402.116108,10.5200004577637
1402.131733,8.86999988555908
1402.147358,7.42000007629395
1402.162983,6.23999977111816
1402.178608,5.32999992370605
1402.194233,4.6399998664856
1402.209858,4.19999980926514
1402.225483,4.17000007629395
1402.241108,4.73999977111816
1402.256733,5.94000005722046
1402.272358,7.57999992370605
1402.287983,9.35000038146973
1402.303608,10.9700002670288
1402.319233,12.2799997329712
1402.334858,13.2299995422363
1402.350483,13.7799997329712
1402.366108,13.8699998855591
1402.381733,13.4399995803833
1402.397358,12.5
1402.412983,11.0900001525879
1402.428608,9.32999992370605
1402.444233,7.21000003814697
1402.459858,4.73000001907349
1402.475483,1.91999995708466
1402.491108,-1.00999999046326
1402.506733,-3.82999992370605
1402.522358,-6.36999988555908
1402.537983,-8.71000003814697
1402.553608,-11.0100002288818
1402.569233,-13.3100004196167
1402.584858,-15.4799995422363
1402.600483,-17.3600006103516
1402.616108,-18.8999996185303
1402.631733,-20.6000003814697
1402.647358,-22.2800006866455
1402.662983,-24.2000007629395
1402.678608,-26.5599994659424
1402.694233,-29.4200000762939
1402.709858,-32.6300010681152
1402.725483,-36.0
1402.741108,-39.3899993896484
1402.756733,-42.6500015258789
1402.772358,-45.560001373291
1402.787983,-47.7000007629395
1402.803608,-48.6699981689453
1402.819233,-48.3400001525879
1402.834858,-46.9199981689453
1402.850483,-44.8300018310547
1402.866108,-42.4900016784668
1402.881733,-40.2299995422363
1402.897358,-38.2000007629395
1402.912983,-36.4300003051758
1402.928608,-34.9599990844727
1402.944233,-33.939998626709
1402.959858,-33.5099983215332
1402.975483,-33.7099990844727
1402.991108,-34.4700012207031
1403.006733,-35.7200012207031
1403.022358,-37.4199981689453
1403.037983,-39.439998626709
1403.053608,-41.5699996948242
1403.069233,-43.5099983215332
1403.084858,-45.1500015258789
1403.100483,-46.6599998474121
1403.116108,-48.310001373291
1403.131733,-50.1500015258789
1403.147358,-51.9700012207031
1403.162983,-53.5
1403.178608,-54.6199989318848
1403.194233,-55.3699989318848
1403.209858,-55.9700012207031
1403.225483,-56.7099990844727
1403.241108,-57.7900009155273
1403.256733,-59.2700004577637
1403.272358,-61.060001373291
1403.287983,-63.0400009155273
1403.303608,-65.1600036621094
1403.319233,-67.3000030517578
1403.334858,-69.1500015258789
1403.350483,-70.1999969482422
1403.366108,-69.9700012207031
1403.381733,-68.3000030517578
1403.397358,-65.4199981689453
1403.412983,-61.75
1403.428608,-57.7299995422363
1403.444233,-53.7000007629395
1403.459858,-49.8400001525879
1403.475483,-46.2400016784668
1403.491108,-42.9500007629395
1403.506733,-40.0200004577637
1403.522358,-37.5200004577637
1403.537983,-35.4500007629395
1403.553608,-33.7999992370605
1403.569233,-32.5900001525879
1403.584858,-31.8600006103516
1403.600483,-31.5599994659424
1403.616108,-31.5300006866455
1403.631733,-31.9699993133545
1403.647358,-32.3699989318848
1403.662983,-32.8499984741211
1403.678608,-33.5499992370605
1403.694233,-34.4000015258789
1403.709858,-35.1800003051758
1403.725483,-35.6399993896484
1403.741108,-35.6800003051758
1403.756733,-35.4099998474121
1403.772358,-35.060001373291
1403.787983,-34.9500007629395
1403.803608,-35.2900009155273
1403.819233,-36.1300010681152
1403.834858,-37.3800010681152
1403.850483,-38.9900016784668
1403.866108,-40.9199981689453
1403.881733,-43.0400009155273
1403.897358,-45.0400009155273
1403.912983,-46.3199996948242
1403.928608,-46.3300018310547
1403.944233,-44.8400001525879
1403.959858,-41.9900016784668
1403.975483,-38.1100006103516
1403.991108,-33.6199989318848
1404.006733,-28.8899993896484
1404.022358,-24.2099990844727
1404.037983,-19.7700004577637
1404.053608,-15.6599998474121
1404.069233,-11.9499998092651
1404.084858,-8.63000011444092
1404.100483,-5.67000007629395
1404.116108,-3.0699999332428
1404.131733,-0.889999985694885
1404.147358,0.790000021457672
1404.162983,2.0
1404.178608,2.8199999332428
1404.194233,3.35999989509583
1404.209858,3.65000009536743
1404.225483,3.61999988555908
1404.241108,3.24000000953674
1404.256733,2.67000007629395
1404.272358,2.19000005722046
1404.287983,2.00999999046326
1404.303608,2.1800000667572
1404.319233,2.57999992370605
1404.334858,2.97000002861023
1404.350483,3.0699999332428
1404.366108,2.69000005722046
1404.381733,1.80999994277954
1404.397358,0.5
1404.412983,-1.1599999666214
1404.428608,-3.17000007629395
1404.444233,-5.42000007629395
1404.459858,-7.6100001335144
1404.475483,-9.25
1404.491108,-9.78999996185303
1404.506733,-8.94999980926514
1404.522358,-6.69000005722046
1404.537983,-3.26999998092651
1404.553608,0.899999976158142
1404.569233,5.40999984741211
1404.584858,9.85000038146973
1404.600483,13.9799995422363
1404.616108,17.7000007629395
1404.631733,21.1000003814697
1404.647358,24.1900005340576
1404.662983,27.0499992370605
1404.678608,29.6700000762939
1404.694233,32.0200004577637
1404.709858,34.0299987792969
1404.725483,35.6699981689453
1404.741108,36.8800010681152
1404.756733,37.5499992370605
1404.772358,37.5299987792969
1404.787983,36.7299995422363
