Time(s),Value(%)
914.0039563,-21.0599994659424
914.0195813,-22.0799999237061
914.0352063,-23.0699996948242
914.0508313,-24.0499992370605
914.0664563,-25.0400009155273
914.0820813,-26.0300006866455
914.0977063,-27.0300006866455
914.1133313,-28.0400009155273
914.1289563,-29.0
914.1445813,-29.8500003814697
914.1602063,-30.4899997711182
914.1758313,-30.8099994659424
914.1914563,-30.75
914.2070813,-30.2800006866455
914.2227063,-29.4899997711182
914.2383313,-28.5100002288818
914.2539563,-27.4500007629395
914.2695813,-26.4200000762939
914.2852063,-25.4099998474121
914.3008313,-24.3299999237061
914.3164563,-23.1000003814697
914.3320813,-21.6700000762939
914.3477063,-20.0799999237061
914.3633313,-18.3899993896484
914.3789563,-16.6399993896484
914.3945813,-14.9200000762939
914.4102063,-13.3299999237061
914.4258313,-12.0600004196167
914.4414563,-11.2399997711182
914.4570813,-10.8299999237061
914.4727063,-10.6700000762939
914.4883313,-10.5699996948242
914.5039563,-10.4200000762939
914.5195813,-10.1800003051758
914.5352063,-9.85999965667725
914.5508313,-9.48999977111816
914.5664563,-9.13000011444092
914.5820813,-8.85000038146973
914.5977063,-8.72000026702881
914.6133313,-8.72000026702881
914.6289563,-8.80000019073486
914.6445813,-8.89999961853027
914.6602063,-8.97999954223633
914.6758313,-9.05000019073486
914.6914563,-9.09000015258789
914.7070813,-9.11999988555908
914.7227063,-9.14999961853027
914.7383313,-9.21000003814697
914.7539563,-9.34000015258789
914.7695813,-9.53999996185303
914.7852063,-9.73999977111816
914.8008313,-9.85000038146973
914.8164563,-9.76000022888184
914.8320813,-9.46000003814697
914.8477063,-8.97000026702881
914.8633313,-8.35999965667725
914.8789563,-7.59999990463257
914.8945813,-6.63000011444092
914.9102063,-5.3899998664856
914.9258313,-3.94000005722046
914.9414563,-2.44000005722046
914.9570813,-1.04999995231628
914.9727063,0.129999995231628
914.9883313,1.19000005722046
915.0039563,2.38000011444092
915.0195813,4.21000003814697
915.0352063,7.13000011444092
915.0508313,11.2200002670288
915.0664563,16.3600006103516
915.0820813,22.4799995422363
915.0977063,29.5699996948242
915.1133313,37.3600006103516
915.1289563,45.1399993896484
915.1445813,51.8899993896484
915.1602063,56.9599990844727
915.1758313,60.5900001525879
915.1914563,63.5
915.2070813,66.0599975585938
915.2227063,68.1100006103516
915.2383313,69.3300018310547
915.2539563,69.5999984741211
915.2695813,69.1399993896484
915.2852063,68.370002746582
915.3008313,67.7900009155273
915.3164563,67.7300033569336
915.3320813,68.2600021362305
915.3477063,69.3300018310547
915.3633313,70.9899978637695
915.3789563,73.3399963378906
915.3945813,76.2200012207031
915.4102063,78.9899978637695
915.4258313,80.5899963378906
915.4414563,80.2399978637695
915.4570813,78.0199966430664
915.4727063,74.6600036621094
915.4883313,70.8399963378906
915.5039563,66.8000030517578
915.5195813,62.5400009155273
915.5352063,58.0200004577637
915.5508313,53.3400001525879
915.5664563,48.7400016784668
915.5820813,44.560001373291
915.5977063,41.0999984741211
915.6133313,38.4300003051758
915.6289563,36.5299987792969
915.6445813,35.4799995422363
915.6602063,35.3499984741211
915.6758313,36.0099983215332
915.6914563,36.8400001525879
915.7070813,36.939998626709
915.7227063,35.7099990844727
915.7383313,33.3899993896484
915.7539563,30.7099990844727
915.7695813,28.1599998474121
915.7852063,25.6700000762939
915.8008313,22.9599990844727
915.8164563,19.8199996948242
915.8320813,16.2900009155273
915.8477063,12.6199998855591
915.8633313,9.0600004196167
915.8789563,5.82999992370605
915.8945813,2.98000001907349
915.9102063,0.529999971389771
915.9258313,-1.38999998569489
915.9414563,-2.71000003814697
915.9570813,-3.50999999046326
915.9727063,-4.23999977111816
915.9883313,-5.69000005722046
916.0039563,-8.47000026702881
916.0195813,-12.5699996948242
916.0352063,-17.4799995422363
916.0508313,-22.6299991607666
916.0664563,-27.7399997711182
916.0820813,-32.7200012207031
916.0977063,-37.5699996948242
916.1133313,-42.2900009155273
916.1289563,-46.810001373291
916.1445813,-51.0800018310547
916.1602063,-55.0400009155273
916.1758313,-58.6599998474121
916.1914563,-61.9199981689453
916.2070813,-64.7300033569336
916.2227063,-67.0299987792969
916.2383313,-68.8499984741211
916.2539563,-70.4000015258789
916.2695813,-72.0100021362305
916.2852063,-73.9599990844727
916.3008313,-76.2399978637695
916.3164563,-78.6600036621094
916.3320813,-81.0199966430664
916.3477063,-83.2699966430664
916.3633313,-85.4000015258789
916.3789563,-87.4199981689453
916.3945813,-89.3099975585938
916.4102063,-91.0599975585938
916.4258313,-92.6999969482422
916.4414563,-94.2699966430664
916.4570813,-95.7600021362305
916.4727063,-97.0599975585938
916.4883313,-97.9800033569336
916.5039563,-98.3499984741211
916.5195813,-98.1399993896484
916.5352063,-97.4700012207031
916.5508313,-96.5599975585938
916.5664563,-95.5100021362305
916.5820813,-94.1999969482422
916.5977063,-92.5
916.6133313,-90.4199981689453
916.6289563,-88.1100006103516
916.6445813,-85.6399993896484
916.6602063,-83.0
916.6758313,-80.1699981689453
916.6914563,-77.2600021362305
916.7070813,-74.5699996948242
916.7227063,-72.2799987792969
916.7383313,-70.2799987792969
916.7539563,-68.3099975585938
916.7695813,-66.2099990844727
916.7852063,-64.0500030517578
916.8008313,-61.9900016784668
916.8164563,-60.1199989318848
916.8320813,-58.3800010681152
916.8477063,-56.4500007629395
916.8633313,-53.7700004577637
916.8789563,-49.8400001525879
916.8945813,-44.560001373291
916.9102063,-38.1199989318848
916.9258313,-30.6700000762939
916.9414563,-22.2999992370605
916.9570813,-13.3299999237061
916.9727063,-4.5
916.9883313,3.0699999332428
917.0039563,8.65999984741211
917.0195813,12.4700002670288
917.0352063,15.2799997329712
917.0508313,17.6599998474121
917.0664563,19.6700000762939
917.0820813,21.0900001525879
917.0977063,21.8400001525879
917.1133313,22.0900001525879
917.1289563,22.3099994659424
917.1445813,23.1299991607666
917.1602063,25.0599994659424
917.1758313,28.2000007629395
917.1914563,32.4599990844727
917.2070813,37.8400001525879
917.2227063,44.3699989318848
917.2383313,51.7999992370605
917.2539563,59.2099990844727
917.2695813,65.1699981689453
917.2852063,68.6999969482422
917.3008313,70.0500030517578
917.3164563,70.2099990844727
917.3320813,69.9300003051758
917.3477063,69.2900009155273
917.3633313,68.0400009155273
917.3789563,66.0800018310547
917.3945813,63.560001373291
917.4102063,60.9000015258789
917.4258313,58.5999984741211
917.4414563,57.0499992370605
917.4570813,56.3400001525879
917.4727063,56.439998626709
917.4883313,57.4199981689453
917.5039563,59.3899993896484
917.5195813,62.1800003051758
917.5352063,65.0
917.5508313,66.5899963378906
917.5664563,65.9700012207031
917.5820813,63.1699981689453
917.5977063,58.9500007629395
917.6133313,54.0699996948242
917.6289563,48.8600006103516
917.6445813,43.3899993896484
917.6602063,37.7299995422363
917.6758313,32.0
917.6914563,26.4500007629395
917.7070813,21.3099994659424
917.7227063,16.75
917.7383313,12.8000001907349
917.7539563,9.5
917.7695813,6.96000003814697
917.7852063,5.32999992370605
917.8008313,4.53000020980835
917.8164563,4.09000015258789
917.8320813,3.25999999046326
917.8477063,1.47000002861023
917.8633313,-1.25
917.8789563,-4.51000022888184
917.8945813,-7.96000003814697
917.9102063,-11.539999961853
917.9258313,-15.2700004577637
917.9414563,-19.1399993896484
917.9570813,-23.0100002288818
917.9727063,-26.6900005340576
917.9883313,-29.9500007629395
918.0039563,-32.6300010681152
918.0195813,-34.7099990844727
918.0352063,-36.1599998474121
918.0508313,-36.8400001525879
918.0664563,-36.6199989318848
918.0820813,-35.560001373291
918.0977063,-34.0800018310547
918.1133313,-32.8600006103516
918.1289563,-32.3199996948242
918.1445813,-32.2900009155273
918.1602063,-32.3400001525879
918.1758313,-32.2299995422363
918.1914563,-32.1100006103516
918.2070813,-32.2400016784668
918.2227063,-32.75
918.2383313,-33.5299987792969
918.2539563,-34.3199996948242
918.2695813,-34.7200012207031
918.2852063,-34.4799995422363
918.3008313,-33.5200004577637
918.3164563,-31.8400001525879
918.3320813,-29.3099994659424
918.3477063,-25.7600002288818
918.3633313,-21.3500003814697
918.3789563,-16.6800003051758
918.3945813,-12.7600002288818
918.4102063,-10.3400001525879
918.4258313,-9.47999954223633
918.4414563,-9.69999980926514
918.4570813,-10.5799999237061
918.4727063,-12.0
918.4883313,-13.9099998474121
918.5039563,-16.2099990844727
918.5195813,-18.6399993896484
918.5352063,-20.7999992370605
918.5508313,-22.2000007629395
918.5664563,-22.5200004577637
918.5820813,-21.7099990844727
918.5977063,-19.9500007629395
918.6133313,-17.3700008392334
918.6289563,-14.039999961853
918.6445813,-10.1599998474121
918.6602063,-6.30000019073486
918.6758313,-3.26999998092651
918.6914563,-1.62999999523163
918.7070813,-1.16999995708466
918.7227063,-1.22000002861023
918.7383313,-1.29999995231628
918.7539563,-1.35000002384186
918.7695813,-1.57000005245209
918.7852063,-2.10999989509583
918.8008313,-2.92000007629395
918.8164563,-3.69000005722046
918.8320813,-3.97000002861023
918.8477063,-3.39000010490417
918.8633313,-1.8400000333786
918.8789563,0.620000004768372
918.8945813,4.03999996185303
918.9102063,8.47000026702881
918.9258313,13.710000038147
918.9414563,19.0100002288818
918.9570813,23.2600002288818
918.9727063,25.6499996185303
918.9883313,26.3099994659424
919.0039563,26.0100002288818
919.0195813,25.3600006103516
919.0352063,24.6399993896484
919.0508313,24.0200004577637
919.0664563,23.75
919.0820813,23.9300003051758
919.0977063,24.3099994659424
919.1133313,24.2800006866455
919.1289563,23.3400001525879
919.1445813,21.5499992370605
919.1602063,19.2700004577637
919.1758313,16.8099994659424
919.1914563,14.1700000762939
919.2070813,11.2799997329712
919.2227063,8.13000011444092
919.2383313,4.86999988555908
919.2539563,1.75999999046326
919.2695813,-0.930000007152557
919.2852063,-3.05999994277954
919.3008313,-4.59000015258789
919.3164563,-5.53000020980835
919.3320813,-5.84000015258789
919.3477063,-5.42999982833862
919.3633313,-4.3899998664856
919.3789563,-3.14000010490417
919.3945813,-2.3199999332428
919.4102063,-2.44000005722046
919.4258313,-3.5
919.4414563,-5.1399998664856
919.4570813,-7.03999996185303
919.4727063,-9.10000038146973
919.4883313,-11.3199996948242
919.5039563,-13.6700000762939
919.5195813,-16.0400009155273
919.5352063,-18.2800006866455
919.5508313,-20.25
919.5664563,-21.8799991607666
919.5820813,-23.1599998474121
919.5977063,-24.0200004577637
919.6133313,-24.3199996948242
919.6289563,-23.8999996185303
919.6445813,-22.7900009155273
919.6602063,-21.2999992370605
919.6758313,-19.9099998474121
919.6914563,-18.9300003051758
919.7070813,-18.2000007629395
919.7227063,-17.3799991607666
919.7383313,-16.3299999237061
919.7539563,-15.2200002670288
919.7695813,-14.3299999237061
919.7852063,-13.8000001907349
919.8008313,-13.5600004196167
919.8164563,-13.4300003051758
919.8320813,-13.1899995803833
919.8477063,-12.710000038147
919.8633313,-11.9399995803833
919.8789563,-10.8500003814697
919.8945813,-9.30000019073486
919.9102063,-7.15999984741211
919.9258313,-4.5
919.9414563,-1.69000005722046
919.9570813,0.629999995231628
919.9727063,1.98000001907349
919.9883313,2.32999992370605
920.0039563,2.02999997138977
920.0195813,1.37999999523163
920.0352063,0.509999990463257
920.0508313,-0.550000011920929
920.0664563,-1.77999997138977
920.0820813,-3.05999994277954
920.0977063,-4.21000003814697
920.1133313,-5.03000020980835
920.1289563,-5.34999990463257
920.1445813,-5.17000007629395
920.1602063,-4.55999994277954
920.1758313,-3.57999992370605
920.1914563,-2.25999999046326
920.2070813,-0.699999988079071
920.2227063,0.829999983310699
920.2383313,1.97000002861023
920.2539563,2.41000008583069
920.2695813,2.19000005722046
920.2852063,1.62000000476837
920.3008313,0.970000028610229
920.3164563,0.349999994039536
920.3320813,-0.259999990463257
920.3477063,-0.879999995231628
920.3633313,-1.51999998092651
920.3789563,-2.07999992370605
920.3945813,-2.45000004768372
920.4102063,-2.53999996185303
920.4258313,-2.29999995231628
920.4414563,-1.72000002861023
920.4570813,-0.720000028610229
920.4727063,0.759999990463257
920.4883313,2.6800000667572
920.5039563,4.78000020980835
920.5195813,6.6100001335144
920.5352063,7.80000019073486
920.5508313,8.19999980926514
920.5664563,7.86999988555908
920.5820813,6.94000005722046
920.5977063,5.55000019073486
920.6133313,3.83999991416931
920.6289563,2.02999997138977
920.6445813,0.239999994635582
920.6602063,-1.63999998569489
920.6758313,-4.09000015258789
920.6914563,-7.53999996185303
920.7070813,-12.1300001144409
920.7227063,-17.7399997711182
920.7383313,-24.2399997711182
920.7539563,-31.5400009155273
920.7695813,-39.3499984741211
920.7852063,-47.0099983215332
920.8008313,-53.6100006103516
920.8164563,-58.7299995422363
920.8320813,-62.8899993896484
920.8477063,-67.0199966430664
920.8633313,-71.4899978637695
920.8789563,-75.8899993896484
920.8945813,-79.5500030517578
920.9102063,-82.0599975585938
920.9258313,-83.620002746582
920.9414563,-85.4100036621094
920.9570813,-89.4800033569336
920.9727063,-97.620002746582
920.9883313,-110.050003051758
921.0039563,-125.290000915527
921.0195813,-141.070007324219
921.0352063,-155.479995727539
921.0508313,-167.839996337891
921.0664563,-179.410003662109
921.0820813,-193.259994506836
921.0977063,-212.279998779297
921.1133313,-237.589996337891
921.1289563,-269.510009765625
921.1445813,-309.670013427734
921.1602063,-327.679992675781
921.1758313,-327.679992675781
921.1914563,-327.679992675781
921.2070813,-327.679992675781
921.2227063,-327.679992675781
921.2383313,-327.679992675781
921.2539563,-327.679992675781
921.2695813,-327.679992675781
921.2852063,-327.679992675781
921.3008313,-327.679992675781
921.3164563,-327.679992675781
921.3320813,-327.679992675781
921.3477063,-327.679992675781
921.3633313,-327.679992675781
921.3789563,-327.679992675781
921.3945813,-327.679992675781
921.4102063,-327.679992675781
921.4258313,-327.679992675781
921.4414563,-327.679992675781
921.4570813,-327.679992675781
921.4727063,-327.679992675781
921.4883313,-306.829986572266
921.5039563,-281.690002441406
921.5195813,-253.389999389648
921.5352063,-218.740005493164
921.5508313,-177.380004882813
921.5664563,-131.679992675781
921.5820813,-84.9000015258789
921.5977063,-39.4500007629395
921.6133313,3.51999998092651
921.6289563,43.9000015258789
921.6445813,82.0199966430664
921.6602063,118.150001525879
921.6758313,152.360000610352
921.6914563,184.5
921.7070813,214.460006713867
921.7227063,242.179992675781
921.7383313,267.619995117188
921.7539563,290.769989013672
921.7695813,311.850006103516
921.7852063,327.670013427734
921.8008313,327.670013427734
921.8164563,327.670013427734
921.8320813,327.670013427734
921.8477063,327.670013427734
921.8633313,327.670013427734
921.8789563,327.670013427734
921.8945813,327.670013427734
921.9102063,327.670013427734
921.9258313,327.670013427734
921.9414563,327.670013427734
921.9570813,327.670013427734
921.9727063,327.670013427734
921.9883313,327.670013427734
922.0039563,327.670013427734
922.0195813,327.670013427734
922.0352063,327.670013427734
922.0508313,327.670013427734
922.0664563,327.670013427734
922.0820813,327.670013427734
922.0977063,327.670013427734
922.1133313,327.670013427734
922.1289563,327.670013427734
922.1445813,327.670013427734
922.1602063,326.850006103516
922.1758313,304.690002441406
922.1914563,281.290008544922
922.2070813,261.510009765625
922.2227063,248.899993896484
922.2383313,243.059997558594
922.2539563,240.949996948242
922.2695813,240.059997558594
922.2852063,239.320007324219
922.3008313,238.0
922.3164563,235.149993896484
922.3320813,230.360000610352
922.3477063,224.740005493164
922.3633313,220.850006103516
922.3789563,221.009994506836
922.3945813,225.639999389648
922.4102063,233.580001831055
922.4258313,243.669998168945
922.4414563,255.350006103516
922.4570813,268.269989013672
922.4727063,281.790008544922
922.4883313,295.089996337891
922.5039563,307.529998779297
922.5195813,318.880004882813
922.5352063,327.670013427734
922.5508313,327.670013427734
922.5664563,327.670013427734
922.5820813,327.670013427734
922.5977063,327.670013427734
922.6133313,327.670013427734
922.6289563,327.670013427734
922.6445813,327.670013427734
922.6602063,327.670013427734
922.6758313,327.670013427734
922.6914563,327.670013427734
922.7070813,327.670013427734
922.7227063,327.670013427734
922.7383313,327.670013427734
922.7539563,327.670013427734
922.7695813,327.670013427734
922.7852063,327.670013427734
922.8008313,327.670013427734
922.8164563,327.670013427734
922.8320813,327.670013427734
922.8477063,327.670013427734
922.8633313,327.670013427734
922.8789563,327.670013427734
922.8945813,320.769989013672
922.9102063,309.529998779297
922.9258313,298.859985351563
922.9414563,289.470001220703
922.9570813,281.619995117188
922.9727063,275.029998779297
922.9883313,269.260009765625
923.0039563,263.880004882813
923.0195813,258.510009765625
923.0352063,252.880004882813
923.0508313,246.75
923.0664563,239.899993896484
923.0820813,232.059997558594
923.0977063,223.029998779297
923.1133313,212.860000610352
923.1289563,201.809997558594
923.1445813,190.229995727539
923.1602063,178.399993896484
923.1758313,166.5
923.1914563,154.699996948242
923.2070813,143.210006713867
923.2227063,132.059997558594
923.2383313,120.930000305176
923.2539563,109.370002746582
923.2695813,97.0899963378906
923.2852063,84.0199966430664
923.3008313,70.1399993896484
923.3164563,55.4300003051758
923.3320813,40.0999984741211
923.3477063,24.6399993896484
923.3633313,9.76000022888184
923.3789563,-4.1100001335144
923.3945813,-17.1200008392334
923.4102063,-29.6599998474121
923.4258313,-41.9199981689453
923.4414563,-53.7200012207031
923.4570813,-64.8399963378906
923.4727063,-75.1999969482422
923.4883313,-84.9800033569336
923.5039563,-94.4300003051758
923.5195813,-103.800003051758
923.5352063,-113.230003356934
923.5508313,-122.699996948242
923.5664563,-132.119995117188
923.5820813,-141.380004882813
923.5977063,-150.419998168945
923.6133313,-159.160003662109
923.6289563,-167.429992675781
923.6445813,-174.899993896484
923.6602063,-181.389999389648
923.6758313,-187.139999389648
923.6914563,-192.720001220703
923.7070813,-198.619995117188
923.7227063,-204.990005493164
923.7383313,-211.660003662109
923.7539563,-218.320007324219
923.7695813,-224.779998779297
923.7852063,-231.179992675781
923.8008313,-238.059997558594
923.8164563,-245.990005493164
923.8320813,-255.169998168945
923.8477063,-265.540008544922
923.8633313,-277.079986572266
923.8789563,-289.829986572266
923.8945813,-303.429992675781
923.9102063,-316.859985351563
923.9258313,-327.679992675781
923.9414563,-327.679992675781
923.9570813,-327.679992675781
923.9727063,-327.679992675781
923.9883313,-327.679992675781
924.0039563,-327.679992675781
924.0195813,-327.679992675781
924.0352063,-327.679992675781
924.0508313,-327.679992675781
924.0664563,-327.679992675781
924.0820813,-327.679992675781
924.0977063,-327.679992675781
924.1133313,-327.679992675781
924.1289563,-327.679992675781
924.1445813,-327.679992675781
924.1602063,-327.679992675781
924.1758313,-327.679992675781
924.1914563,-327.679992675781
924.2070813,-327.679992675781
924.2227063,-327.679992675781
924.2383313,-327.679992675781
924.2539563,-327.679992675781
924.2695813,-326.559997558594
924.2852063,-318.890014648438
924.3008313,-311.320007324219
924.3164563,-304.070007324219
924.3320813,-297.070007324219
924.3477063,-289.989990234375
924.3633313,-282.339996337891
924.3789563,-273.700012207031
924.3945813,-264.029998779297
924.4102063,-253.619995117188
924.4258313,-242.830001831055
924.4414563,-231.970001220703
924.4570813,-221.300003051758
924.4727063,-211.199996948242
924.4883313,-202.25
924.5039563,-194.759994506836
924.5195813,-188.440002441406
924.5352063,-182.550003051758
924.5508313,-176.539993286133
924.5664563,-170.300003051758
924.5820813,-164.050003051758
924.5977063,-158.059997558594
924.6133313,-152.449996948242
924.6289563,-147.039993286133
924.6445813,-141.350006103516
924.6602063,-134.949996948242
924.6758313,-127.669998168945
