Time(s),Value(%)
1116.0062101,51.1300010681152
1116.0218351,48.6800003051758
1116.0374601,45.3499984741211
1116.0530851,41.9500007629395
1116.0687101,38.3300018310547
1116.0843351,34.310001373291
1116.0999601,29.6200008392334
1116.1155851,24.0699996948242
1116.1312101,18.0699996948242
1116.1468351,12.2600002288818
1116.1624601,7.05999994277954
1116.1780851,2.65000009536743
1116.1937101,-1.04999995231628
1116.2093351,-4.51999998092651
1116.2249601,-8.14000034332275
1116.2405851,-11.6599998474121
1116.2562101,-14.5600004196167
1116.2718351,-16.6900005340576
1116.2874601,-18.4200000762939
1116.3030851,-20.0599994659424
1116.3187101,-21.6200008392334
1116.3343351,-23.1599998474121
1116.3499601,-24.8899993896484
1116.3655851,-26.5400009155273
1116.3812101,-27.3500003814697
1116.3968351,-26.8899993896484
1116.4124601,-25.6700000762939
1116.4280851,-24.7900009155273
1116.4437101,-24.6599998474121
1116.4593351,-24.6499996185303
1116.4749601,-23.9599990844727
1116.4905851,-22.5699996948242
1116.5062101,-20.7999992370605
1116.5218351,-18.6599998474121
1116.5374601,-16.1700000762939
1116.5530851,-13.7399997711182
1116.5687101,-11.8999996185303
1116.5843351,-10.2399997711182
1116.5999601,-7.23000001907349
1116.6155851,-1.49000000953674
1116.6312101,7.17999982833862
1116.6468351,17.8700008392334
1116.6624601,28.8999996185303
1116.6780851,38.3400001525879
1116.6937101,44.6100006103516
1116.7093351,47.0999984741211
1116.7249601,46.4599990844727
1116.7405851,44.1399993896484
1116.7562101,41.2599983215332
1116.7718351,38.1199989318848
1116.7874601,34.4500007629395
1116.8030851,29.9799995422363
1116.8187101,24.7299995422363
1116.8343351,19.0100002288818
1116.8499601,13.3800001144409
1116.8655851,8.35000038146973
1116.8812101,3.98000001907349
1116.8968351,-0.0399999991059303
1116.9124601,-4.01000022888184
1116.9280851,-7.55999994277954
1116.9437101,-9.98999977111816
1116.9593351,-11.1499996185303
1116.9749601,-11.9499998092651
1116.9905851,-13.4200000762939
1117.0062101,-15.4700002670288
1117.0218351,-16.9400005340576
1117.0374601,-17.0499992370605
1117.0530851,-16.7600002288818
1117.0687101,-17.9799995422363
1117.0843351,-21.4099998474121
1117.0999601,-25.6800003051758
1117.1155851,-28.8199996948242
1117.1312101,-29.9200000762939
1117.1468351,-29.0400009155273
1117.1624601,-26.1399993896484
1117.1780851,-21.3099994659424
1117.1937101,-16.0100002288818
1117.2093351,-12.6899995803833
1117.2249601,-12.6599998474121
1117.2405851,-15.2799997329712
1117.2562101,-19.0
1117.2718351,-22.3099994659424
1117.2874601,-23.6700000762939
1117.3030851,-21.4500007629395
1117.3187101,-14.9499998092651
1117.3343351,-5.40999984741211
1117.3499601,4.40000009536743
1117.3655851,12.25
1117.3812101,17.9300003051758
1117.3968351,22.3899993896484
1117.4124601,25.5799999237061
1117.4280851,25.6000003814697
1117.4437101,20.3099994659424
1117.4593351,10.1899995803833
1117.4749601,-0.129999995231628
1117.4905851,-4.07000017166138
1117.5062101,1.79999995231628
1117.5218351,14.1899995803833
1117.5374601,24.6900005340576
1117.5530851,25.4500007629395
1117.5687101,14.6300001144409
1117.5843351,-2.26999998092651
1117.5999601,-16.2999992370605
1117.6155851,-21.5400009155273
1117.6312101,-18.5699996948242
1117.6468351,-11.9300003051758
1117.6624601,-5.82000017166138
1117.6780851,-3.1800000667572
1117.6937101,-6.0
1117.7093351,-13.6999998092651
1117.7249601,-22.4099998474121
1117.7405851,-27.2600002288818
1117.7562101,-25.7399997711182
1117.7718351,-19.4200000762939
1117.7874601,-13.3299999237061
1117.8030851,-12.5600004196167
1117.8187101,-17.9300003051758
1117.8343351,-25.0100002288818
1117.8499601,-27.6399993896484
1117.8655851,-22.7000007629395
1117.8812101,-11.8900003433228
1117.8968351,-0.0299999993294477
1117.9124601,8.44999980926514
1117.9280851,12.4399995803833
1117.9437101,13.7799997329712
1117.9593351,14.8999996185303
1117.9749601,17.25
1117.9905851,21.1800003051758
1118.0062101,26.8199996948242
1118.0218351,34.689998626709
1118.0374601,45.1199989318848
1118.0530851,57.4000015258789
1118.0687101,69.370002746582
1118.0843351,77.5299987792969
1118.0999601,78.6600036621094
1118.1155851,72.629997253418
1118.1312101,62.810001373291
1118.1468351,53.1800003051758
1118.1624601,45.6399993896484
1118.1780851,40.0900001525879
1118.1937101,35.7599983215332
1118.2093351,31.3700008392334
1118.2249601,24.7700004577637
1118.2405851,14.3199996948242
1118.2562101,1.48000001907349
1118.2718351,-9.68000030517578
1118.2874601,-16.6700000762939
1118.3030851,-21.0499992370605
1118.3187101,-26.5
1118.3343351,-34.6699981689453
1118.3499601,-43.3199996948242
1118.3655851,-48.5900001525879
1118.3812101,-49.1199989318848
1118.3968351,-47.3499984741211
1118.4124601,-46.439998626709
1118.4280851,-46.5900001525879
1118.4437101,-45.1399993896484
1118.4593351,-41.1500015258789
1118.4749601,-39.3499984741211
1118.4905851,-46.3499984741211
1118.5062101,-61.2000007629395
1118.5218351,-73.9899978637695
1118.5374601,-74.9400024414063
1118.5530851,-62.7700004577637
1118.5687101,-44.9900016784668
1118.5843351,-31.1000003814697
1118.5999601,-24.5400009155273
1118.6155851,-20.6599998474121
1118.6312101,-12.460000038147
1118.6468351,2.54999995231628
1118.6624601,21.0900001525879
1118.6780851,37.5699996948242
1118.6937101,48.2000007629395
1118.7093351,53.3899993896484
1118.7249601,56.4799995422363
1118.7405851,60.1300010681152
1118.7562101,64.0800018310547
1118.7718351,66.3499984741211
1118.7874601,65.6600036621094
1118.8030851,62.4099998474121
1118.8187101,57.4900016784668
1118.8343351,50.9500007629395
1118.8499601,42.2900009155273
1118.8655851,32.0099983215332
1118.8812101,22.4400005340576
1118.8968351,16.9799995422363
1118.9124601,17.5300006866455
1118.9280851,22.1800003051758
1118.9437101,26.1200008392334
1118.9593351,25.8099994659424
1118.9749601,21.5699996948242
1118.9905851,15.9799995422363
1119.0062101,10.9200000762939
1119.0218351,6.57999992370605
1119.0374601,2.69000005722046
1119.0530851,-0.439999997615814
1119.0687101,-1.99000000953674
1119.0843351,-1.47000002861023
1119.0999601,0.310000002384186
1119.1155851,1.30999994277954
1119.1312101,-0.140000000596046
1119.1468351,-3.69000005722046
1119.1624601,-7.38000011444092
1119.1780851,-9.67000007629395
1119.1937101,-10.5
1119.2093351,-10.6899995803833
1119.2249601,-11.0100002288818
1119.2405851,-11.6700000762939
1119.2562101,-12.2399997711182
1119.2718351,-12.0900001525879
1119.2874601,-10.6700000762939
1119.3030851,-7.38000011444092
1119.3187101,-1.62999999523163
1119.3343351,6.32999992370605
1119.3499601,14.8599996566772
1119.3655851,21.8299999237061
1119.3812101,26.4599990844727
1119.3968351,30.2299995422363
1119.4124601,35.2400016784668
1119.4280851,41.2200012207031
1119.4437101,45.5
1119.4593351,46.3400001525879
1119.4749601,44.8800010681152
1119.4905851,42.9199981689453
1119.5062101,40.4500007629395
1119.5218351,36.3600006103516
1119.5374601,30.4899997711182
1119.5530851,24.0200004577637
1119.5687101,17.9699993133545
1119.5843351,12.5100002288818
1119.5999601,7.6100001335144
1119.6155851,2.96000003814697
1119.6312101,-1.92999994754791
1119.6468351,-6.46999979019165
1119.6624601,-9.0
1119.6780851,-8.90999984741211
1119.6937101,-7.46999979019165
1119.7093351,-7.21999979019165
1119.7249601,-11.6599998474121
1119.7405851,-23.8600006103516
1119.7562101,-42.75
1119.7718351,-61.7200012207031
1119.7874601,-72.9899978637695
1119.8030851,-73.7799987792969
1119.8187101,-67.9199981689453
1119.8343351,-62.1100006103516
1119.8499601,-60.9199981689453
1119.8655851,-64.5699996948242
1119.8812101,-70.1800003051758
1119.8968351,-74.6500015258789
1119.9124601,-76.629997253418
1119.9280851,-76.3300018310547
1119.9437101,-74.0500030517578
1119.9593351,-69.1100006103516
1119.9749601,-60.4900016784668
1119.9905851,-48.5
1120.0062101,-35.6500015258789
1120.0218351,-25.3299999237061
1120.0374601,-19.4699993133545
1120.0530851,-17.75
1120.0687101,-18.4899997711182
1120.0843351,-19.7299995422363
1120.0999601,-19.9200000762939
1120.1155851,-18.3500003814697
1120.1312101,-15.4200000762939
1120.1468351,-12.0200004577637
1120.1624601,-8.48999977111816
1120.1780851,-4.82000017166138
1120.1937101,-1.23000001907349
1120.2093351,1.86000001430511
1120.2249601,4.36999988555908
1120.2405851,6.13000011444092
1120.2562101,6.71000003814697
1120.2718351,5.71000003814697
1120.2874601,3.1800000667572
1120.3030851,-0.360000014305115
1120.3187101,-4.09000015258789
1120.3343351,-7.28000020980835
1120.3499601,-9.6899995803833
1120.3655851,-11.4499998092651
1120.3812101,-12.8299999237061
1120.3968351,-14.0200004577637
1120.4124601,-15.0900001525879
1120.4280851,-16.0699996948242
1120.4437101,-17.2099990844727
1120.4593351,-18.8600006103516
1120.4749601,-21.1100006103516
1120.4905851,-23.6499996185303
1120.5062101,-25.9300003051758
1120.5218351,-27.2900009155273
1120.5374601,-27.0599994659424
1120.5530851,-24.8299999237061
1120.5687101,-20.75
1120.5843351,-15.460000038147
1120.5999601,-9.61999988555908
1120.6155851,-3.54999995231628
1120.6312101,2.84999990463257
1120.6468351,9.75
1120.6624601,17.0200004577637
1120.6780851,24.3299999237061
1120.6937101,31.1700000762939
1120.7093351,36.810001373291
1120.7249601,40.5200004577637
1120.7405851,41.9099998474121
1120.7562101,41.0999984741211
1120.7718351,38.5
1120.7874601,34.6199989318848
1120.8030851,30.1200008392334
1120.8187101,25.75
1120.8343351,22.2600002288818
1120.8499601,20.2800006866455
1120.8655851,20.1399993896484
1120.8812101,22.0
1120.8968351,25.8299999237061
1120.9124601,30.9899997711182
1120.9280851,35.9099998474121
1120.9437101,38.7599983215332
1120.9593351,38.5900001525879
1120.9749601,35.9500007629395
1120.9905851,32.5400009155273
1121.0062101,30.0599994659424
1121.0218351,29.0200004577637
1121.0374601,28.7700004577637
1121.0530851,28.3500003814697
1121.0687101,27.2199993133545
1121.0843351,25.3400001525879
1121.0999601,22.9599990844727
1121.1155851,20.3600006103516
1121.1312101,17.7399997711182
1121.1468351,15.3599996566772
1121.1624601,13.6599998474121
1121.1780851,12.8199996948242
1121.1937101,12.3800001144409
1121.2093351,11.3699998855591
1121.2249601,8.98999977111816
1121.2405851,5.3899998664856
1121.2562101,1.9099999666214
1121.2718351,0.379999995231628
1121.2874601,2.03999996185303
1121.3030851,6.8600001335144
1121.3187101,13.7700004577637
1121.3343351,21.1200008392334
1121.3499601,27.1399993896484
1121.3655851,30.3600006103516
1121.3812101,30.3199996948242
1121.3968351,27.9899997711182
1121.4124601,24.9500007629395
1121.4280851,22.1100006103516
1121.4437101,19.4500007629395
1121.4593351,16.5400009155273
1121.4749601,13.1499996185303
1121.4905851,9.36999988555908
1121.5062101,5.21000003814697
1121.5218351,0.5
1121.5374601,-4.57999992370605
1121.5530851,-9.35000038146973
1121.5687101,-13.1700000762939
1121.5843351,-15.8199996948242
1121.5999601,-17.4200000762939
1121.6155851,-18.2199993133545
1121.6312101,-18.5799999237061
1121.6468351,-18.9099998474121
1121.6624601,-19.5100002288818
1121.6780851,-20.4599990844727
1121.6937101,-21.75
1121.7093351,-23.6200008392334
1121.7249601,-26.6000003814697
1121.7405851,-30.8500003814697
1121.7562101,-35.8600006103516
1121.7718351,-40.6500015258789
1121.7874601,-44.3300018310547
1121.8030851,-46.439998626709
1121.8187101,-46.939998626709
1121.8343351,-46.2999992370605
1121.8499601,-45.5699996948242
1121.8655851,-45.7900009155273
1121.8812101,-46.9700012207031
1121.8968351,-47.8199996948242
1121.9124601,-46.6399993896484
1121.9280851,-42.0999984741211
1121.9437101,-33.75
1121.9593351,-22.2099990844727
1121.9749601,-9.21000003814697
1121.9905851,3.07999992370605
1122.0062101,13.0
1122.0218351,19.8400001525879
1122.0374601,23.7099990844727
1122.0530851,25.2099990844727
1122.0687101,25.0599994659424
1122.0843351,23.8199996948242
1122.0999601,21.9099998474121
1122.1155851,19.6399993896484
1122.1312101,17.2900009155273
1122.1468351,15.1099996566772
1122.1624601,13.2600002288818
1122.1780851,11.8900003433228
1122.1937101,11.0600004196167
1122.2093351,10.7799997329712
1122.2249601,10.9799995422363
1122.2405851,11.5200004577637
1122.2562101,12.4399995803833
1122.2718351,13.8599996566772
1122.2874601,15.6000003814697
1122.3030851,17.25
1122.3187101,18.5100002288818
1122.3343351,19.2999992370605
1122.3499601,19.5900001525879
1122.3655851,19.3799991607666
1122.3812101,18.8500003814697
1122.3968351,18.1299991607666
1122.4124601,17.1900005340576
1122.4280851,15.8800001144409
1122.4437101,14.1899995803833
1122.4593351,12.1800003051758
1122.4749601,9.90999984741211
1122.4905851,7.3899998664856
1122.5062101,4.57000017166138
1122.5218351,1.44000005722046
1122.5374601,-1.79999995231628
1122.5530851,-4.69000005722046
1122.5687101,-6.69999980926514
1122.5843351,-7.34999990463257
1122.5999601,-6.23000001907349
1122.6155851,-3.0
1122.6312101,2.47000002861023
1122.6468351,9.82999992370605
1122.6624601,17.8700008392334
1122.6780851,25.0100002288818
1122.6937101,30.2700004577637
1122.7093351,33.5299987792969
1122.7249601,35.0400009155273
1122.7405851,34.8699989318848
1122.7562101,33.1800003051758
1122.7718351,30.3600006103516
1122.7874601,26.5799999237061
1122.8030851,21.6000003814697
1122.8187101,15.5
1122.8343351,9.43000030517578
1122.8499601,5.17999982833862
1122.8655851,4.1100001335144
1122.8812101,6.71999979019165
1122.8968351,12.1400003433228
1122.9124601,17.5499992370605
1122.9280851,19.0
1122.9437101,13.8900003433228
1122.9593351,2.58999991416931
1122.9749601,-11.5600004196167
1122.9905851,-23.9500007629395
1123.0062101,-31.1700000762939
1123.0218351,-32.9599990844727
1123.0374601,-31.9400005340576
1123.0530851,-31.3600006103516
1123.0687101,-33.2400016784668
1123.0843351,-37.5800018310547
1123.0999601,-42.7700004577637
1123.1155851,-46.6100006103516
1123.1312101,-47.5900001525879
1123.1468351,-45.5900001525879
1123.1624601,-41.6399993896484
1123.1780851,-37.25
1123.1937101,-33.6500015258789
1123.2093351,-31.1299991607666
1123.2249601,-28.9899997711182
1123.2405851,-25.9599990844727
1123.2562101,-20.9799995422363
1123.2718351,-14.2200002670288
1123.2874601,-7.05000019073486
1123.3030851,-0.980000019073486
1123.3187101,3.02999997138977
1123.3343351,4.61999988555908
1123.3499601,4.03000020980835
1123.3655851,2.01999998092651
1123.3812101,-0.270000010728836
1123.3968351,-1.99000000953674
1123.4124601,-3.11999988555908
1123.4280851,-4.51000022888184
1123.4437101,-7.09000015258789
1123.4593351,-11.1800003051758
1123.4749601,-16.4799995422363
1123.4905851,-22.4300003051758
1123.5062101,-28.0400009155273
1123.5218351,-31.9099998474121
1123.5374601,-33.0099983215332
1123.5530851,-31.5100002288818
1123.5687101,-28.75
1123.5843351,-26.2999992370605
1123.5999601,-25.1299991607666
1123.6155851,-25.2000007629395
1123.6312101,-25.7199993133545
1123.6468351,-25.7000007629395
1123.6624601,-24.7199993133545
1123.6780851,-23.0100002288818
1123.6937101,-21.1100006103516
1123.7093351,-19.3099994659424
1123.7249601,-17.5
1123.7405851,-15.4700002670288
1123.7562101,-13.2700004577637
1123.7718351,-11.0600004196167
1123.7874601,-8.88000011444092
1123.8030851,-6.88000011444092
1123.8187101,-5.40000009536743
1123.8343351,-4.51000022888184
1123.8499601,-3.73000001907349
1123.8655851,-2.44000005722046
1123.8812101,-0.379999995231628
1123.8968351,2.61999988555908
1123.9124601,6.94000005722046
1123.9280851,12.6199998855591
1123.9437101,19.0900001525879
1123.9593351,25.5100002288818
1123.9749601,31.2099990844727
1123.9905851,35.7000007629395
1124.0062101,38.7700004577637
1124.0218351,40.5900001525879
1124.0374601,41.4500007629395
1124.0530851,41.3800010681152
1124.0687101,40.2799987792969
1124.0843351,38.0299987792969
1124.0999601,34.4099998474121
1124.1155851,29.3799991607666
1124.1312101,23.4099998474121
1124.1468351,17.5400009155273
1124.1624601,12.8000001907349
1124.1780851,9.61999988555908
1124.1937101,7.80999994277954
1124.2093351,6.96999979019165
1124.2249601,6.8899998664856
1124.2405851,7.42999982833862
1124.2562101,8.31999969482422
1124.2718351,9.26000022888184
1124.2874601,10.0799999237061
1124.3030851,10.6999998092651
1124.3187101,11.0500001907349
1124.3343351,11.1599998474121
1124.3499601,11.210000038147
1124.3655851,11.3900003433228
1124.3812101,11.5
1124.3968351,10.9300003051758
1124.4124601,9.14999961853027
1124.4280851,6.32999992370605
1124.4437101,3.23000001907349
1124.4593351,0.600000023841858
1124.4749601,-1.23000001907349
1124.4905851,-2.17000007629395
1124.5062101,-2.23000001907349
1124.5218351,-1.42999994754791
1124.5374601,0.0900000035762787
1124.5530851,2.11999988555908
1124.5687101,4.59999990463257
1124.5843351,7.82999992370605
1124.5999601,11.9399995803833
1124.6155851,16.6399993896484
1124.6312101,21.5900001525879
1124.6468351,26.6299991607666
1124.6624601,31.4500007629395
1124.6780851,35.3800010681152
1124.6937101,37.8199996948242
1124.7093351,38.4500007629395
1124.7249601,37.2599983215332
1124.7405851,34.5699996948242
1124.7562101,30.7600002288818
1124.7718351,26.1700000762939
1124.7874601,21.1299991607666
1124.8030851,15.9499998092651
1124.8187101,10.7799997329712
1124.8343351,5.57000017166138
1124.8499601,0.209999993443489
1124.8655851,-5.09000015258789
1124.8812101,-9.68000030517578
1124.8968351,-12.6499996185303
1124.9124601,-13.5900001525879
1124.9280851,-12.789999961853
1124.9437101,-10.9099998474121
1124.9593351,-8.48999977111816
1124.9749601,-5.82999992370605
1124.9905851,-3.22000002861023
1125.0062101,-1.12999999523163
1125.0218351,0.100000001490116
1125.0374601,0.529999971389771
1125.0530851,0.379999995231628
1125.0687101,-0.310000002384186
1125.0843351,-1.79999995231628
1125.0999601,-4.34999990463257
1125.1155851,-7.96999979019165
1125.1312101,-12.2799997329712
1125.1468351,-16.6399993896484
1125.1624601,-20.5
1125.1780851,-23.7099990844727
1125.1937101,-26.1700000762939
1125.2093351,-27.2999992370605
1125.2249601,-26.1100006103516
1125.2405851,-21.8600006103516
1125.2562101,-14.6499996185303
1125.2718351,-5.46000003814697
1125.2874601,4.3600001335144
1125.3030851,13.3500003814697
1125.3187101,20.1499996185303
1125.3343351,23.8199996948242
1125.3499601,23.9699993133545
1125.3655851,20.8199996948242
1125.3812101,15.0900001525879
1125.3968351,7.88000011444092
1125.4124601,0.159999996423721
1125.4280851,-7.38000011444092
1125.4437101,-14.3500003814697
1125.4593351,-20.4699993133545
1125.4749601,-25.4799995422363
1125.4905851,-29.0799999237061
1125.5062101,-31.0100002288818
1125.5218351,-31.3799991607666
1125.5374601,-30.6499996185303
1125.5530851,-29.3700008392334
1125.5687101,-27.8799991607666
1125.5843351,-26.1599998474121
1125.5999601,-24.1100006103516
1125.6155851,-21.9300003051758
1125.6312101,-20.0400009155273
1125.6468351,-18.6800003051758
1125.6624601,-17.7999992370605
1125.6780851,-17.3600006103516
1125.6937101,-17.2299995422363
1125.7093351,-17.0900001525879
1125.7249601,-16.5699996948242
1125.7405851,-15.5799999237061
1125.7562101,-14.3800001144409
1125.7718351,-13.3400001525879
1125.7874601,-12.710000038147
1125.8030851,-12.539999961853
1125.8187101,-12.5200004577637
1125.8343351,-12.0799999237061
1125.8499601,-10.6700000762939
1125.8655851,-7.92000007629395
1125.8812101,-3.73000001907349
1125.8968351,1.62000000476837
1125.9124601,7.67000007629395
1125.9280851,13.8800001144409
1125.9437101,19.6000003814697
1125.9593351,24.0799999237061
1125.9749601,26.7700004577637
1125.9905851,27.5699996948242
1126.0062101,26.7099990844727
1126.0218351,24.6499996185303
1126.0374601,22.0799999237061
1126.0530851,19.6499996185303
1126.0687101,17.5599994659424
1126.0843351,15.5299997329712
1126.0999601,13.2399997711182
1126.1155851,10.6300001144409
1126.1312101,7.90999984741211
1126.1468351,5.32000017166138
1126.1624601,3.0
1126.1780851,0.970000028610229
1126.1937101,-0.740000009536743
1126.2093351,-2.08999991416931
1126.2249601,-2.94000005722046
1126.2405851,-3.23000001907349
1126.2562101,-2.98000001907349
1126.2718351,-2.40000009536743
1126.2874601,-1.75999999046326
1126.3030851,-1.29999995231628
1126.3187101,-1.08000004291534
1126.3343351,-0.939999997615814
1126.3499601,-0.810000002384186
1126.3655851,-0.730000019073486
1126.3812101,-0.819999992847443
1126.3968351,-1.07000005245209
