Time(s),Value(℃)
1116.0062101,200.220001220703
1116.0218351,200.160003662109
1116.0374601,200.110000610352
1116.0530851,200.059997558594
1116.0687101,200.009994506836
1116.0843351,199.970001220703
1116.0999601,199.929992675781
1116.1155851,199.910003662109
1116.1312101,199.880004882813
1116.1468351,199.869995117188
1116.1624601,199.860000610352
1116.1780851,199.860000610352
1116.1937101,199.850006103516
1116.2093351,199.860000610352
1116.2249601,199.860000610352
1116.2405851,199.860000610352
1116.2562101,199.869995117188
1116.2718351,199.880004882813
1116.2874601,199.880004882813
1116.3030851,199.889999389648
1116.3187101,199.889999389648
1116.3343351,199.889999389648
1116.3499601,199.869995117188
1116.3655851,199.839996337891
1116.3812101,199.789993286133
1116.3968351,199.729995727539
1116.4124601,199.660003662109
1116.4280851,199.580001831055
1116.4437101,199.5
1116.4593351,199.419998168945
1116.4749601,199.339996337891
1116.4905851,199.270004272461
1116.5062101,199.199996948242
1116.5218351,199.139999389648
1116.5374601,199.089996337891
1116.5530851,199.029998779297
1116.5687101,198.979995727539
1116.5843351,198.940002441406
1116.5999601,198.899993896484
1116.6155851,198.860000610352
1116.6312101,198.839996337891
1116.6468351,198.820007324219
1116.6624601,198.800003051758
1116.6780851,198.779998779297
1116.6937101,198.770004272461
1116.7093351,198.759994506836
1116.7249601,198.75
1116.7405851,198.740005493164
1116.7562101,198.729995727539
1116.7718351,198.729995727539
1116.7874601,198.729995727539
1116.8030851,198.729995727539
1116.8187101,198.740005493164
1116.8343351,198.759994506836
1116.8499601,198.770004272461
1116.8655851,198.789993286133
1116.8812101,198.809997558594
1116.8968351,198.839996337891
1116.9124601,198.860000610352
1116.9280851,198.889999389648
1116.9437101,198.910003662109
1116.9593351,198.940002441406
1116.9749601,198.970001220703
1116.9905851,198.990005493164
1117.0062101,199.020004272461
1117.0218351,199.039993286133
1117.0374601,199.070007324219
1117.0530851,199.100006103516
1117.0687101,199.119995117188
1117.0843351,199.149993896484
1117.0999601,199.169998168945
1117.1155851,199.199996948242
1117.1312101,199.229995727539
1117.1468351,199.259994506836
1117.1624601,199.279998779297
1117.1780851,199.309997558594
1117.1937101,199.339996337891
1117.2093351,199.360000610352
1117.2249601,199.380004882813
1117.2405851,199.399993896484
1117.2562101,199.419998168945
1117.2718351,199.429992675781
1117.2874601,199.440002441406
1117.3030851,199.440002441406
1117.3187101,199.449996948242
1117.3343351,199.449996948242
1117.3499601,199.440002441406
1117.3655851,199.440002441406
1117.3812101,199.429992675781
1117.3968351,199.429992675781
1117.4124601,199.419998168945
1117.4280851,199.410003662109
1117.4437101,199.410003662109
1117.4593351,199.399993896484
1117.4749601,199.389999389648
1117.4905851,199.380004882813
1117.5062101,199.380004882813
1117.5218351,199.369995117188
1117.5374601,199.369995117188
1117.5530851,199.360000610352
1117.5687101,199.360000610352
1117.5843351,199.350006103516
1117.5999601,199.350006103516
1117.6155851,199.350006103516
1117.6312101,199.339996337891
1117.6468351,199.339996337891
1117.6624601,199.339996337891
1117.6780851,199.339996337891
1117.6937101,199.339996337891
1117.7093351,199.330001831055
1117.7249601,199.330001831055
1117.7405851,199.330001831055
1117.7562101,199.330001831055
1117.7718351,199.330001831055
1117.7874601,199.330001831055
1117.8030851,199.330001831055
1117.8187101,199.330001831055
1117.8343351,199.330001831055
1117.8499601,199.330001831055
1117.8655851,199.339996337891
1117.8812101,199.339996337891
1117.8968351,199.339996337891
1117.9124601,199.339996337891
1117.9280851,199.350006103516
1117.9437101,199.350006103516
1117.9593351,199.350006103516
1117.9749601,199.350006103516
1117.9905851,199.360000610352
1118.0062101,199.360000610352
1118.0218351,199.360000610352
1118.0374601,199.360000610352
1118.0530851,199.360000610352
1118.0687101,199.360000610352
1118.0843351,199.360000610352
1118.0999601,199.360000610352
1118.1155851,199.360000610352
1118.1312101,199.360000610352
1118.1468351,199.350006103516
1118.1624601,199.350006103516
1118.1780851,199.339996337891
1118.1937101,199.339996337891
1118.2093351,199.330001831055
1118.2249601,199.330001831055
1118.2405851,199.320007324219
1118.2562101,199.320007324219
1118.2718351,199.320007324219
1118.2874601,199.309997558594
1118.3030851,199.309997558594
1118.3187101,199.309997558594
1118.3343351,199.309997558594
1118.3499601,199.309997558594
1118.3655851,199.300003051758
1118.3812101,199.300003051758
1118.3968351,199.300003051758
1118.4124601,199.300003051758
1118.4280851,199.289993286133
1118.4437101,199.289993286133
1118.4593351,199.289993286133
1118.4749601,199.279998779297
1118.4905851,199.279998779297
1118.5062101,199.279998779297
1118.5218351,199.279998779297
1118.5374601,199.270004272461
1118.5530851,199.270004272461
1118.5687101,199.259994506836
1118.5843351,199.259994506836
1118.5999601,199.259994506836
1118.6155851,199.25
1118.6312101,199.25
1118.6468351,199.25
1118.6624601,199.240005493164
1118.6780851,199.240005493164
1118.6937101,199.229995727539
1118.7093351,199.229995727539
1118.7249601,199.220001220703
1118.7405851,199.220001220703
1118.7562101,199.210006713867
1118.7718351,199.210006713867
1118.7874601,199.210006713867
1118.8030851,199.199996948242
1118.8187101,199.199996948242
1118.8343351,199.199996948242
1118.8499601,199.190002441406
1118.8655851,199.190002441406
1118.8812101,199.179992675781
1118.8968351,199.179992675781
1118.9124601,199.179992675781
1118.9280851,199.179992675781
1118.9437101,199.169998168945
1118.9593351,199.169998168945
1118.9749601,199.169998168945
1118.9905851,199.160003662109
1119.0062101,199.160003662109
1119.0218351,199.160003662109
1119.0374601,199.149993896484
1119.0530851,199.149993896484
1119.0687101,199.149993896484
1119.0843351,199.139999389648
1119.0999601,199.139999389648
1119.1155851,199.139999389648
1119.1312101,199.139999389648
1119.1468351,199.139999389648
1119.1624601,199.130004882813
1119.1780851,199.130004882813
1119.1937101,199.130004882813
1119.2093351,199.130004882813
1119.2249601,199.119995117188
1119.2405851,199.119995117188
1119.2562101,199.119995117188
1119.2718351,199.119995117188
1119.2874601,199.119995117188
1119.3030851,199.119995117188
1119.3187101,199.130004882813
1119.3343351,199.130004882813
1119.3499601,199.130004882813
1119.3655851,199.130004882813
1119.3812101,199.139999389648
1119.3968351,199.139999389648
1119.4124601,199.149993896484
1119.4280851,199.149993896484
1119.4437101,199.160003662109
1119.4593351,199.169998168945
1119.4749601,199.169998168945
1119.4905851,199.179992675781
1119.5062101,199.199996948242
1119.5218351,199.210006713867
1119.5374601,199.240005493164
1119.5530851,199.259994506836
1119.5687101,199.300003051758
1119.5843351,199.339996337891
1119.5999601,199.389999389648
1119.6155851,199.449996948242
1119.6312101,199.5
1119.6468351,199.570007324219
1119.6624601,199.630004882813
1119.6780851,199.699996948242
1119.6937101,199.779998779297
1119.7093351,199.850006103516
1119.7249601,199.919998168945
1119.7405851,200.0
1119.7562101,200.070007324219
1119.7718351,200.149993896484
1119.7874601,200.220001220703
1119.8030851,200.289993286133
1119.8187101,200.360000610352
1119.8343351,200.419998168945
1119.8499601,200.490005493164
1119.8655851,200.559997558594
1119.8812101,200.630004882813
1119.8968351,200.699996948242
1119.9124601,200.779998779297
1119.9280851,200.850006103516
1119.9437101,200.929992675781
1119.9593351,201.009994506836
1119.9749601,201.089996337891
1119.9905851,201.160003662109
1120.0062101,201.240005493164
1120.0218351,201.330001831055
1120.0374601,201.410003662109
1120.0530851,201.490005493164
1120.0687101,201.570007324219
1120.0843351,201.649993896484
1120.0999601,201.720001220703
1120.1155851,201.800003051758
1120.1312101,201.869995117188
1120.1468351,201.949996948242
1120.1624601,202.020004272461
1120.1780851,202.080001831055
1120.1937101,202.149993896484
1120.2093351,202.210006713867
1120.2249601,202.270004272461
1120.2405851,202.330001831055
1120.2562101,202.389999389648
1120.2718351,202.449996948242
1120.2874601,202.509994506836
1120.3030851,202.559997558594
1120.3187101,202.619995117188
1120.3343351,202.679992675781
1120.3499601,202.740005493164
1120.3655851,202.789993286133
1120.3812101,202.839996337891
1120.3968351,202.880004882813
1120.4124601,202.910003662109
1120.4280851,202.940002441406
1120.4437101,202.960006713867
1120.4593351,202.970001220703
1120.4749601,202.990005493164
1120.4905851,203.0
1120.5062101,203.009994506836
1120.5218351,203.020004272461
1120.5374601,203.020004272461
1120.5530851,203.029998779297
1120.5687101,203.029998779297
1120.5843351,203.029998779297
1120.5999601,203.029998779297
1120.6155851,203.020004272461
1120.6312101,203.0
1120.6468351,202.979995727539
1120.6624601,202.940002441406
1120.6780851,202.910003662109
1120.6937101,202.860000610352
1120.7093351,202.809997558594
1120.7249601,202.759994506836
1120.7405851,202.710006713867
1120.7562101,202.649993896484
1120.7718351,202.600006103516
1120.7874601,202.539993286133
1120.8030851,202.490005493164
1120.8187101,202.429992675781
1120.8343351,202.360000610352
1120.8499601,202.300003051758
1120.8655851,202.240005493164
1120.8812101,202.169998168945
1120.8968351,202.110000610352
1120.9124601,202.039993286133
1120.9280851,201.970001220703
1120.9437101,201.899993896484
1120.9593351,201.830001831055
1120.9749601,201.759994506836
1120.9905851,201.690002441406
1121.0062101,201.619995117188
1121.0218351,201.559997558594
1121.0374601,201.490005493164
1121.0530851,201.429992675781
1121.0687101,201.369995117188
1121.0843351,201.309997558594
1121.0999601,201.25
1121.1155851,201.190002441406
1121.1312101,201.139999389648
1121.1468351,201.089996337891
1121.1624601,201.039993286133
1121.1780851,201.0
1121.1937101,200.960006713867
1121.2093351,200.919998168945
1121.2249601,200.889999389648
1121.2405851,200.850006103516
1121.2562101,200.820007324219
1121.2718351,200.800003051758
1121.2874601,200.770004272461
1121.3030851,200.75
1121.3187101,200.729995727539
1121.3343351,200.720001220703
1121.3499601,200.699996948242
1121.3655851,200.690002441406
1121.3812101,200.679992675781
1121.3968351,200.669998168945
1121.4124601,200.649993896484
1121.4280851,200.630004882813
1121.4437101,200.600006103516
1121.4593351,200.559997558594
1121.4749601,200.520004272461
1121.4905851,200.479995727539
1121.5062101,200.429992675781
1121.5218351,200.389999389648
1121.5374601,200.339996337891
1121.5530851,200.300003051758
1121.5687101,200.259994506836
1121.5843351,200.229995727539
1121.5999601,200.199996948242
1121.6155851,200.179992675781
1121.6312101,200.160003662109
1121.6468351,200.149993896484
1121.6624601,200.139999389648
1121.6780851,200.139999389648
1121.6937101,200.139999389648
1121.7093351,200.139999389648
1121.7249601,200.139999389648
1121.7405851,200.139999389648
1121.7562101,200.139999389648
1121.7718351,200.139999389648
1121.7874601,200.139999389648
1121.8030851,200.149993896484
1121.8187101,200.149993896484
1121.8343351,200.149993896484
1121.8499601,200.149993896484
1121.8655851,200.149993896484
1121.8812101,200.160003662109
1121.8968351,200.160003662109
1121.9124601,200.160003662109
1121.9280851,200.169998168945
1121.9437101,200.169998168945
1121.9593351,200.179992675781
1121.9749601,200.190002441406
1121.9905851,200.190002441406
1122.0062101,200.199996948242
1122.0218351,200.210006713867
1122.0374601,200.220001220703
1122.0530851,200.220001220703
1122.0687101,200.220001220703
1122.0843351,200.229995727539
1122.0999601,200.229995727539
1122.1155851,200.220001220703
1122.1312101,200.220001220703
1122.1468351,200.210006713867
1122.1624601,200.199996948242
1122.1780851,200.190002441406
1122.1937101,200.169998168945
1122.2093351,200.160003662109
1122.2249601,200.139999389648
1122.2405851,200.110000610352
1122.2562101,200.089996337891
1122.2718351,200.070007324219
1122.2874601,200.059997558594
1122.3030851,200.050003051758
1122.3187101,200.039993286133
1122.3343351,200.029998779297
1122.3499601,200.020004272461
1122.3655851,200.020004272461
1122.3812101,200.009994506836
1122.3968351,200.0
1122.4124601,200.0
1122.4280851,199.990005493164
1122.4437101,199.979995727539
1122.4593351,199.970001220703
1122.4749601,199.949996948242
1122.4905851,199.940002441406
1122.5062101,199.929992675781
1122.5218351,199.919998168945
1122.5374601,199.910003662109
1122.5530851,199.899993896484
1122.5687101,199.889999389648
1122.5843351,199.880004882813
1122.5999601,199.860000610352
1122.6155851,199.850006103516
1122.6312101,199.839996337891
1122.6468351,199.830001831055
1122.6624601,199.820007324219
1122.6780851,199.809997558594
1122.6937101,199.800003051758
1122.7093351,199.789993286133
1122.7249601,199.779998779297
1122.7405851,199.770004272461
1122.7562101,199.759994506836
1122.7718351,199.75
1122.7874601,199.740005493164
1122.8030851,199.729995727539
1122.8187101,199.720001220703
1122.8343351,199.699996948242
1122.8499601,199.690002441406
1122.8655851,199.679992675781
1122.8812101,199.660003662109
1122.8968351,199.639999389648
1122.9124601,199.619995117188
1122.9280851,199.610000610352
1122.9437101,199.589996337891
1122.9593351,199.570007324219
1122.9749601,199.550003051758
1122.9905851,199.529998779297
1123.0062101,199.520004272461
1123.0218351,199.5
1123.0374601,199.490005493164
1123.0530851,199.479995727539
1123.0687101,199.460006713867
1123.0843351,199.449996948242
1123.0999601,199.449996948242
1123.1155851,199.440002441406
1123.1312101,199.440002441406
1123.1468351,199.449996948242
1123.1624601,199.449996948242
1123.1780851,199.460006713867
1123.1937101,199.470001220703
1123.2093351,199.479995727539
1123.2249601,199.490005493164
1123.2405851,199.5
1123.2562101,199.509994506836
1123.2718351,199.520004272461
1123.2874601,199.539993286133
1123.3030851,199.570007324219
1123.3187101,199.610000610352
1123.3343351,199.649993896484
1123.3499601,199.699996948242
1123.3655851,199.759994506836
1123.3812101,199.809997558594
1123.3968351,199.860000610352
1123.4124601,199.910003662109
1123.4280851,199.949996948242
1123.4437101,199.990005493164
1123.4593351,200.020004272461
1123.4749601,200.050003051758
1123.4905851,200.070007324219
1123.5062101,200.100006103516
1123.5218351,200.119995117188
1123.5374601,200.160003662109
1123.5530851,200.199996948242
1123.5687101,200.240005493164
1123.5843351,200.289993286133
1123.5999601,200.350006103516
1123.6155851,200.419998168945
1123.6312101,200.490005493164
1123.6468351,200.559997558594
1123.6624601,200.630004882813
1123.6780851,200.699996948242
1123.6937101,200.770004272461
1123.7093351,200.839996337891
1123.7249601,200.910003662109
1123.7405851,200.979995727539
1123.7562101,201.059997558594
1123.7718351,201.130004882813
1123.7874601,201.210006713867
1123.8030851,201.279998779297
1123.8187101,201.369995117188
1123.8343351,201.449996948242
1123.8499601,201.550003051758
1123.8655851,201.649993896484
1123.8812101,201.759994506836
1123.8968351,201.880004882813
1123.9124601,202.0
1123.9280851,202.130004882813
1123.9437101,202.25
1123.9593351,202.369995117188
1123.9749601,202.479995727539
1123.9905851,202.570007324219
1124.0062101,202.649993896484
1124.0218351,202.720001220703
1124.0374601,202.770004272461
1124.0530851,202.809997558594
1124.0687101,202.839996337891
1124.0843351,202.869995117188
1124.0999601,202.880004882813
1124.1155851,202.889999389648
1124.1312101,202.899993896484
1124.1468351,202.899993896484
1124.1624601,202.910003662109
1124.1780851,202.910003662109
1124.1937101,202.899993896484
1124.2093351,202.889999389648
1124.2249601,202.869995117188
1124.2405851,202.839996337891
1124.2562101,202.800003051758
1124.2718351,202.759994506836
1124.2874601,202.710006713867
1124.3030851,202.649993896484
1124.3187101,202.600006103516
1124.3343351,202.550003051758
1124.3499601,202.5
1124.3655851,202.460006713867
1124.3812101,202.419998168945
1124.3968351,202.389999389648
1124.4124601,202.350006103516
1124.4280851,202.320007324219
1124.4437101,202.279998779297
1124.4593351,202.240005493164
1124.4749601,202.199996948242
1124.4905851,202.149993896484
1124.5062101,202.089996337891
1124.5218351,202.029998779297
1124.5374601,201.970001220703
1124.5530851,201.899993896484
1124.5687101,201.830001831055
1124.5843351,201.759994506836
1124.5999601,201.679992675781
1124.6155851,201.610000610352
1124.6312101,201.539993286133
1124.6468351,201.470001220703
1124.6624601,201.399993896484
1124.6780851,201.330001831055
1124.6937101,201.259994506836
1124.7093351,201.190002441406
1124.7249601,201.119995117188
1124.7405851,201.050003051758
1124.7562101,200.970001220703
1124.7718351,200.889999389648
1124.7874601,200.800003051758
1124.8030851,200.710006713867
1124.8187101,200.600006103516
1124.8343351,200.490005493164
1124.8499601,200.369995117188
1124.8655851,200.25
1124.8812101,200.130004882813
1124.8968351,200.020004272461
1124.9124601,199.910003662109
1124.9280851,199.820007324219
1124.9437101,199.740005493164
1124.9593351,199.669998168945
1124.9749601,199.610000610352
1124.9905851,199.570007324219
1125.0062101,199.529998779297
1125.0218351,199.490005493164
1125.0374601,199.460006713867
1125.0530851,199.429992675781
1125.0687101,199.399993896484
1125.0843351,199.380004882813
1125.0999601,199.360000610352
1125.1155851,199.350006103516
1125.1312101,199.339996337891
1125.1468351,199.330001831055
1125.1624601,199.320007324219
1125.1780851,199.320007324219
1125.1937101,199.320007324219
1125.2093351,199.330001831055
1125.2249601,199.330001831055
1125.2405851,199.330001831055
1125.2562101,199.339996337891
1125.2718351,199.339996337891
1125.2874601,199.339996337891
1125.3030851,199.350006103516
1125.3187101,199.350006103516
1125.3343351,199.360000610352
1125.3499601,199.369995117188
1125.3655851,199.389999389648
1125.3812101,199.399993896484
1125.3968351,199.419998168945
1125.4124601,199.429992675781
1125.4280851,199.449996948242
1125.4437101,199.460006713867
1125.4593351,199.479995727539
1125.4749601,199.490005493164
1125.4905851,199.5
1125.5062101,199.5
1125.5218351,199.5
1125.5374601,199.509994506836
1125.5530851,199.509994506836
1125.5687101,199.509994506836
1125.5843351,199.509994506836
1125.5999601,199.509994506836
1125.6155851,199.509994506836
1125.6312101,199.509994506836
1125.6468351,199.509994506836
1125.6624601,199.5
1125.6780851,199.5
1125.6937101,199.5
1125.7093351,199.5
1125.7249601,199.5
1125.7405851,199.509994506836
1125.7562101,199.509994506836
1125.7718351,199.520004272461
1125.7874601,199.529998779297
1125.8030851,199.539993286133
1125.8187101,199.550003051758
1125.8343351,199.559997558594
1125.8499601,199.570007324219
1125.8655851,199.580001831055
1125.8812101,199.589996337891
1125.8968351,199.589996337891
1125.9124601,199.589996337891
1125.9280851,199.589996337891
1125.9437101,199.580001831055
1125.9593351,199.580001831055
1125.9749601,199.570007324219
1125.9905851,199.570007324219
1126.0062101,199.559997558594
1126.0218351,199.550003051758
1126.0374601,199.550003051758
1126.0530851,199.539993286133
1126.0687101,199.529998779297
1126.0843351,199.520004272461
1126.0999601,199.520004272461
1126.1155851,199.509994506836
1126.1312101,199.5
1126.1468351,199.490005493164
1126.1624601,199.470001220703
1126.1780851,199.460006713867
1126.1937101,199.449996948242
1126.2093351,199.440002441406
1126.2249601,199.429992675781
1126.2405851,199.410003662109
1126.2562101,199.399993896484
1126.2718351,199.389999389648
1126.2874601,199.380004882813
1126.3030851,199.369995117188
1126.3187101,199.360000610352
1126.3343351,199.350006103516
1126.3499601,199.339996337891
1126.3655851,199.330001831055
1126.3812101,199.320007324219
1126.3968351,199.309997558594
1126.4124601,199.300003051758
1126.4280851,199.300003051758
1126.4437101,199.289993286133
1126.4593351,199.289993286133
1126.4749601,199.289993286133
1126.4905851,199.279998779297
1126.5062101,199.279998779297
1126.5218351,199.279998779297
1126.5374601,199.270004272461
1126.5530851,199.270004272461
