Time(s),Value(%)
921.0089315,34.5800018310547
921.0245565,27.2000007629395
921.0401815,18.7299995422363
921.0558065,10.1599998474121
921.0714315,2.42000007629395
921.0870565,-4.05999994277954
921.1026815,-9.38000011444092
921.1183065,-14.039999961853
921.1339315,-18.6100006103516
921.1495565,-23.5200004577637
921.1651815,-28.8700008392334
921.1808065,-34.689998626709
921.1964315,-41.1300010681152
921.2120565,-48.2700004577637
921.2276815,-56.0400009155273
921.2433065,-63.6199989318848
921.2589315,-69.6699981689453
921.2745565,-73.0800018310547
921.2901815,-73.6600036621094
921.3058065,-72.0
921.3214315,-68.6600036621094
921.3370565,-63.6599998474121
921.3526815,-56.4300003051758
921.3683065,-46.4799995422363
921.3839315,-34.0699996948242
921.3995565,-20.1700000762939
921.4151815,-5.82000017166138
921.4308065,8.52999973297119
921.4464315,23.3199996948242
921.4620565,38.8499984741211
921.4776815,54.4900016784668
921.4933065,68.7900009155273
921.5089315,80.629997253418
921.5245565,89.7799987792969
921.5401815,96.7900009155273
921.5558065,102.269996643066
921.5714315,106.290000915527
921.5870565,108.580001831055
921.6026815,109.019996643066
921.6183065,107.98999786377
921.6339315,106.129997253418
921.6495565,104.110000610352
921.6651815,102.230003356934
921.6808065,100.300003051758
921.6964315,97.5899963378906
921.7120565,93.379997253418
921.7276815,87.4499969482422
921.7433065,80.0599975585938
921.7589315,71.5999984741211
921.7745565,62.4300003051758
921.7901815,52.9099998474121
921.8058065,43.6300010681152
921.8214315,35.25
921.8370565,28.1499996185303
921.8526815,22.1299991607666
921.8683065,16.7199993133545
921.8839315,11.6700000762939
921.8995565,6.96999979019165
921.9151815,2.42000007629395
921.9308065,-2.32999992370605
921.9464315,-7.51000022888184
921.9620565,-12.8699998855591
921.9776815,-17.7800006866455
921.9933065,-21.8099994659424
922.0089315,-25.0699996948242
922.0245565,-28.0200004577637
922.0401815,-30.7900009155273
922.0558065,-33.0999984741211
922.0714315,-34.6100006103516
922.0870565,-35.2400016784668
922.1026815,-35.060001373291
922.1183065,-33.810001373291
922.1339315,-30.6299991607666
922.1495565,-24.5799999237061
922.1651815,-15.5200004577637
922.1808065,-4.15000009536743
922.1964315,8.52000045776367
922.2120565,21.6000003814697
922.2276815,34.4000015258789
922.2433065,46.1599998474121
922.2589315,55.9700012207031
922.2745565,63.060001373291
922.2901815,67.25
922.3058065,68.9100036621094
922.3214315,68.5599975585938
922.3370565,66.7399978637695
922.3526815,63.9700012207031
922.3683065,60.7599983215332
922.3839315,57.4599990844727
922.3995565,54.1300010681152
922.4151815,50.4199981689453
922.4308065,45.9300003051758
922.4464315,40.4900016784668
922.4620565,34.1199989318848
922.4776815,26.8600006103516
922.4933065,18.7099990844727
922.5089315,9.9399995803833
922.5245565,1.21000003814697
922.5401815,-6.51000022888184
922.5558065,-12.7299995422363
922.5714315,-17.7199993133545
922.5870565,-22.2199993133545
922.6026815,-26.6100006103516
922.6183065,-30.6499996185303
922.6339315,-33.9500007629395
922.6495565,-36.310001373291
922.6651815,-37.8899993896484
922.6808065,-39.1800003051758
922.6964315,-40.810001373291
922.7120565,-43.25
922.7276815,-46.5699996948242
922.7433065,-50.4900016784668
922.7589315,-54.5800018310547
922.7745565,-58.5200004577637
922.7901815,-62.0400009155273
922.8058065,-64.629997253418
922.8214315,-65.3899993896484
922.8370565,-63.3400001525879
922.8526815,-58.0400009155273
922.8683065,-49.8699989318848
922.8839315,-39.8199996948242
922.8995565,-29.1200008392334
922.9151815,-18.7800006866455
922.9308065,-9.31999969482422
922.9464315,-0.839999973773956
922.9620565,6.82000017166138
922.9776815,13.8599996566772
922.9933065,20.3899993896484
923.0089315,26.4400005340576
923.0245565,31.9300003051758
923.0401815,36.6699981689453
923.0558065,40.5099983215332
923.0714315,43.4199981689453
923.0870565,45.4199981689453
923.1026815,46.4500007629395
923.1183065,46.2700004577637
923.1339315,44.7099990844727
923.1495565,41.8800010681152
923.1651815,38.3499984741211
923.1808065,34.8499984741211
923.1964315,31.9500007629395
923.2120565,29.75
923.2276815,28.0799999237061
923.2433065,26.4400005340576
923.2589315,24.1900005340576
923.2745565,20.8700008392334
923.2901815,16.3999996185303
923.3058065,10.9399995803833
923.3214315,4.55999994277954
923.3370565,-2.75999999046326
923.3526815,-10.7799997329712
923.3683065,-18.7399997711182
923.3839315,-25.5
923.3995565,-30.2800006866455
923.4151815,-33.2200012207031
923.4308065,-35.1100006103516
923.4464315,-36.4599990844727
923.4620565,-37.2999992370605
923.4776815,-37.4300003051758
923.4933065,-36.7999992370605
923.5089315,-35.5200004577637
923.5245565,-33.4799995422363
923.5401815,-30.1100006103516
923.5558065,-24.8199996948242
923.5714315,-17.4899997711182
923.5870565,-8.55000019073486
923.6026815,1.45000004768372
923.6183065,12.0500001907349
923.6339315,22.7900009155273
923.6495565,33.1199989318848
923.6651815,42.3600006103516
923.6808065,50.0699996948242
923.6964315,56.2700004577637
923.7120565,61.2299995422363
923.7276815,65.0899963378906
923.7433065,67.7200012207031
923.7589315,68.9899978637695
923.7745565,69.0199966430664
923.7901815,68.120002746582
923.8058065,66.6800003051758
923.8214315,64.8899993896484
923.8370565,62.6500015258789
923.8526815,59.7200012207031
923.8683065,55.9599990844727
923.8839315,51.5800018310547
923.8995565,47.0299987792969
923.9151815,42.7400016784668
923.9308065,38.9500007629395
923.9464315,35.5800018310547
923.9620565,32.310001373291
923.9776815,28.6100006103516
923.9933065,24.0599994659424
924.0089315,18.5799999237061
924.0245565,12.25
924.0401815,5.11999988555908
924.0558065,-2.79999995231628
924.0714315,-11.3100004196167
924.0870565,-19.7099990844727
924.1026815,-26.9899997711182
924.1183065,-32.4199981689453
924.1339315,-36.1699981689453
924.1495565,-38.939998626709
924.1651815,-41.2200012207031
924.1808065,-43.0299987792969
924.1964315,-44.189998626709
924.2120565,-44.6500015258789
924.2276815,-44.4799995422363
924.2433065,-43.5200004577637
924.2589315,-41.2200012207031
924.2745565,-36.9700012207031
924.2901815,-30.6399993896484
924.3058065,-22.6399993896484
924.3214315,-13.4399995803833
924.3370565,-3.44000005722046
924.3526815,6.92000007629395
924.3683065,17.0100002288818
924.3839315,26.0599994659424
924.3995565,33.560001373291
924.4151815,39.5699996948242
924.4308065,44.4099998474121
924.4464315,48.2000007629395
924.4620565,50.8300018310547
924.4776815,52.2200012207031
924.4933065,52.5800018310547
924.5089315,52.25
924.5245565,51.4500007629395
924.5401815,50.0499992370605
924.5558065,47.810001373291
924.5714315,44.6100006103516
924.5870565,40.5299987792969
924.6026815,35.6800003051758
924.6183065,30.2199993133545
924.6339315,24.3400001525879
924.6495565,18.3999996185303
924.6651815,12.7700004577637
924.6808065,7.57999992370605
924.6964315,2.51999998092651
924.7120565,-2.76999998092651
924.7276815,-8.3100004196167
924.7433065,-13.7299995422363
924.7589315,-18.5900001525879
924.7745565,-22.6800003051758
924.7901815,-26.1000003814697
924.8058065,-29.1700000762939
924.8214315,-32.2900009155273
924.8370565,-35.7599983215332
924.8526815,-39.6100006103516
924.8683065,-43.689998626709
924.8839315,-47.7700004577637
924.8995565,-51.6800003051758
924.9151815,-55.2599983215332
924.9308065,-58.2000007629395
924.9464315,-59.8899993896484
924.9620565,-59.5200004577637
924.9776815,-56.5
924.9933065,-50.7599983215332
925.0089315,-42.9599990844727
925.0245565,-34.1500015258789
925.0401815,-25.3899993896484
925.0558065,-17.3799991607666
925.0714315,-10.3100004196167
925.0870565,-3.97000002861023
925.1026815,2.07999992370605
925.1183065,8.23999977111816
925.1339315,14.6199998855591
925.1495565,21.0599994659424
925.1651815,27.2800006866455
925.1808065,33.0099983215332
925.1964315,38.060001373291
925.2120565,42.2299995422363
925.2276815,44.7099990844727
925.2433065,44.9099998474121
925.2589315,42.7999992370605
925.2745565,38.9599990844727
925.2901815,34.25
925.3058065,29.3600006103516
925.3214315,24.7099990844727
925.3370565,20.4099998474121
925.3526815,16.3500003814697
925.3683065,12.3000001907349
925.3839315,7.94000005722046
925.3995565,3.08999991416931
925.4151815,-2.13000011444092
925.4308065,-7.55000019073486
925.4464315,-13.1199998855591
925.4620565,-18.9400005340576
925.4776815,-25.0499992370605
925.4933065,-31.2199993133545
925.5089315,-36.9799995422363
925.5245565,-42.0699996948242
925.5401815,-46.689998626709
925.5558065,-51.25
925.5714315,-55.8199996948242
925.5870565,-60.1300010681152
925.6026815,-63.8600006103516
925.6183065,-66.8600006103516
925.6339315,-69.2099990844727
925.6495565,-70.9100036621094
925.6651815,-71.6900024414063
925.6808065,-71.0
925.6964315,-68.2600021362305
925.7120565,-63.2799987792969
925.7276815,-56.4599990844727
925.7433065,-48.6599998474121
925.7589315,-40.7900009155273
925.7745565,-33.5
925.7901815,-27.0300006866455
925.8058065,-21.2800006866455
925.8214315,-16.0100002288818
925.8370565,-10.9899997711182
925.8526815,-6.11999988555908
925.8683065,-1.4099999666214
925.8839315,3.04999995231628
925.8995565,7.19999980926514
925.9151815,10.9300003051758
925.9308065,13.9799995422363
925.9464315,15.8400001525879
925.9620565,15.9700002670288
925.9776815,14.25
925.9933065,11.0799999237061
926.0089315,7.15999984741211
926.0245565,3.20000004768372
926.0401815,-0.349999994039536
926.0558065,-3.39000010490417
926.0714315,-6.03000020980835
926.0870565,-8.61999988555908
926.1026815,-11.6099996566772
926.1183065,-15.3400001525879
926.1339315,-19.8199996948242
926.1495565,-24.7299995422363
926.1651815,-29.6399993896484
926.1808065,-34.189998626709
926.1964315,-38.2400016784668
926.2120565,-41.9500007629395
926.2276815,-45.5200004577637
926.2433065,-49.2099990844727
926.2589315,-53.0999984741211
926.2745565,-57.1399993896484
926.2901815,-61.2099990844727
926.3058065,-65.1999969482422
926.3214315,-68.9700012207031
926.3370565,-72.1399993896484
926.3526815,-74.0199966430664
926.3683065,-73.7900009155273
926.3839315,-70.8499984741211
926.3995565,-65.1600036621094
926.4151815,-57.2799987792969
926.4308065,-47.9900016784668
926.4464315,-37.8600006103516
926.4620565,-27.1299991607666
926.4776815,-16.0699996948242
926.4933065,-5.28000020980835
926.5089315,4.34000015258789
926.5245565,12.0799999237061
926.5401815,17.7900009155273
926.5558065,21.8099994659424
926.5714315,24.4799995422363
926.5870565,25.9400005340576
926.6026815,26.3799991607666
926.6183065,26.0699996948242
926.6339315,25.3799991607666
926.6495565,24.4899997711182
926.6651815,23.3500003814697
926.6808065,21.7700004577637
926.6964315,19.6399993896484
926.7120565,16.9599990844727
926.7276815,13.7299995422363
926.7433065,9.97000026702881
926.7589315,5.80999994277954
926.7745565,1.54999995231628
926.7901815,-2.46000003814697
926.8058065,-6.1100001335144
926.8214315,-9.57999992370605
926.8370565,-13.1599998474121
926.8526815,-16.8299999237061
926.8683065,-20.2800006866455
926.8839315,-23.1800003051758
926.8995565,-25.3899993896484
926.9151815,-27.0499992370605
926.9308065,-28.5
926.9464315,-30.1700000762939
926.9620565,-32.4099998474121
926.9776815,-35.2099990844727
926.9933065,-38.2400016784668
927.0089315,-40.939998626709
927.0245565,-42.8300018310547
927.0401815,-43.689998626709
927.0558065,-43.439998626709
927.0714315,-41.810001373291
927.0870565,-38.2799987792969
927.1026815,-32.3699989318848
927.1183065,-24.1100006103516
927.1339315,-14.2700004577637
927.1495565,-4.09999990463257
927.1651815,5.32000017166138
927.1808065,13.4799995422363
927.1964315,20.4400005340576
927.2120565,26.6700000762939
927.2276815,32.6199989318848
927.2433065,38.5999984741211
927.2589315,44.6699981689453
927.2745565,50.6800003051758
927.2901815,56.3600006103516
927.3058065,61.5499992370605
927.3214315,66.0999984741211
927.3370565,69.6999969482422
927.3526815,71.6900024414063
927.3683065,71.4100036621094
927.3839315,68.6699981689453
927.3995565,63.9300003051758
927.4151815,58.1399993896484
927.4308065,52.2200012207031
927.4464315,46.8199996948242
927.4620565,42.1199989318848
927.4776815,37.9799995422363
927.4933065,34.0
927.5089315,29.7099990844727
927.5245565,24.7700004577637
927.5401815,19.1399993896484
927.5558065,12.8999996185303
927.5714315,6.07000017166138
927.5870565,-1.38999998569489
927.6026815,-9.35000038146973
927.6183065,-17.2399997711182
927.6339315,-24.2600002288818
927.6495565,-29.8799991607666
927.6651815,-34.3199996948242
927.6808065,-38.1699981689453
927.6964315,-41.7200012207031
927.7120565,-44.7099990844727
927.7276815,-46.6300010681152
927.7433065,-47.1399993896484
927.7589315,-46.310001373291
927.7745565,-44.3699989318848
927.7901815,-41.3600006103516
927.8058065,-36.9300003051758
927.8214315,-30.5200004577637
927.8370565,-21.9500007629395
927.8526815,-11.8500003814697
927.8683065,-1.37999999523163
927.8839315,8.36999988555908
927.8995565,16.8299999237061
927.9151815,24.0100002288818
927.9308065,30.2199993133545
927.9464315,35.7900009155273
927.9620565,40.8899993896484
927.9776815,45.5699996948242
927.9933065,49.810001373291
928.0089315,53.5299987792969
928.0245565,56.689998626709
928.0401815,59.2700004577637
928.0558065,61.0699996948242
928.0714315,61.5900001525879
928.0870565,60.2900009155273
928.1026815,57.0099983215332
928.1183065,52.1199989318848
928.1339315,46.439998626709
928.1495565,40.810001373291
928.1651815,35.7799987792969
928.1808065,31.5
928.1964315,27.7800006866455
928.2120565,24.1700000762939
928.2276815,20.1200008392334
928.2433065,15.25
928.2589315,9.51000022888184
928.2745565,3.02999997138977
928.2901815,-4.11999988555908
928.3058065,-11.960000038147
928.3214315,-20.3099994659424
928.3370565,-28.5400009155273
928.3526815,-35.7700004577637
928.3683065,-41.3899993896484
928.3839315,-45.5699996948242
928.3995565,-48.9300003051758
928.4151815,-51.8400001525879
928.4308065,-54.2099990844727
928.4464315,-55.8199996948242
928.4620565,-56.6100006103516
928.4776815,-56.6399993896484
928.4933065,-55.7099990844727
928.5089315,-53.1100006103516
928.5245565,-48.060001373291
928.5401815,-40.4500007629395
928.5558065,-30.7700004577637
928.5714315,-19.6499996185303
928.5870565,-7.61999988555908
928.6026815,4.78000020980835
928.6183065,16.7700004577637
928.6339315,27.3799991607666
928.6495565,35.9300003051758
928.6651815,42.4799995422363
928.6808065,47.4700012207031
928.6964315,51.2000007629395
928.7120565,53.6800003051758
928.7276815,54.9099998474121
928.7433065,55.1199989318848
928.7589315,54.689998626709
928.7745565,53.9199981689453
928.7901815,52.8699989318848
928.8058065,51.4099998474121
928.8214315,49.4500007629395
928.8370565,46.9700012207031
928.8526815,44.0200004577637
928.8683065,40.6300010681152
928.8839315,36.9199981689453
928.8995565,33.0699996948242
928.9151815,29.2099990844727
928.9308065,25.3199996948242
928.9464315,21.1700000762939
928.9620565,16.6299991607666
928.9776815,11.8299999237061
928.9933065,7.1399998664856
929.0089315,2.9300000667572
929.0245565,-0.649999976158142
929.0401815,-3.72000002861023
929.0558065,-6.57999992370605
929.0714315,-9.64999961853027
929.0870565,-13.2700004577637
929.1026815,-17.4599990844727
929.1183065,-21.9200000762939
929.1339315,-26.2299995422363
929.1495565,-30.0
929.1651815,-33.0400009155273
929.1808065,-35.1699981689453
929.1964315,-36.0200004577637
929.2120565,-35.0299987792969
929.2276815,-31.7299995422363
929.2433065,-26.1299991607666
929.2589315,-18.8999996185303
929.2745565,-11.0799999237061
929.2901815,-3.61999988555908
929.3058065,2.9300000667572
929.3214315,8.52000045776367
929.3370565,13.289999961853
929.3526815,17.3999996185303
929.3683065,20.8799991607666
929.3839315,23.7900009155273
929.3995565,26.1100006103516
929.4151815,27.7800006866455
929.4308065,28.7700004577637
929.4464315,29.0799999237061
929.4620565,28.7199993133545
929.4776815,27.5
929.4933065,25.1000003814697
929.5089315,21.2600002288818
929.5245565,16.0799999237061
929.5401815,10.1599998474121
929.5558065,4.30000019073486
929.5714315,-0.829999983310699
929.5870565,-5.05999994277954
929.6026815,-8.56999969482422
929.6183065,-11.8900003433228
929.6339315,-15.7600002288818
929.6495565,-20.7099990844727
929.6651815,-26.8400001525879
929.6808065,-33.9900016784668
929.6964315,-42.0800018310547
929.7120565,-51.1199989318848
929.7276815,-60.8400001525879
929.7433065,-70.3600006103516
929.7589315,-78.379997253418
929.7745565,-84.0
929.7901815,-87.4100036621094
929.8058065,-89.5100021362305
929.8214315,-90.9400024414063
929.8370565,-91.7200012207031
929.8526815,-91.620002746582
929.8683065,-90.5800018310547
929.8839315,-88.6999969482422
929.8995565,-85.8000030517578
929.9151815,-81.1800003051758
929.9308065,-74.0500030517578
929.9464315,-64.2900009155273
929.9620565,-52.4000015258789
929.9776815,-39.0400009155273
929.9933065,-24.7600002288818
930.0089315,-10.1099996566772
930.0245565,4.13000011444092
930.0401815,17.0300006866455
930.0558065,27.9500007629395
930.0714315,36.8699989318848
930.0870565,44.1399993896484
930.1026815,49.9500007629395
930.1183065,54.189998626709
930.1339315,56.8199996948242
930.1495565,58.1100006103516
930.1651815,58.5099983215332
930.1808065,58.4500007629395
930.1964315,58.060001373291
930.2120565,57.2099990844727
930.2276815,55.6599998474121
930.2433065,53.3300018310547
930.2589315,50.4300003051758
930.2745565,47.3300018310547
930.2901815,44.3899993896484
930.3058065,41.7799987792969
930.3214315,39.4799995422363
930.3370565,37.2400016784668
930.3526815,34.7099990844727
930.3683065,31.5699996948242
930.3839315,27.7399997711182
930.3995565,23.3199996948242
930.4151815,18.3299999237061
930.4308065,12.8000001907349
930.4464315,6.8899998664856
930.4620565,1.05999994277954
930.4776815,-3.95000004768372
930.4933065,-7.65999984741211
930.5089315,-10.1400003433228
930.5245565,-11.8000001907349
930.5401815,-13.0
930.5558065,-13.7799997329712
930.5714315,-14.0900001525879
930.5870565,-13.9200000762939
930.6026815,-13.3100004196167
930.6183065,-11.8900003433228
930.6339315,-8.72999954223633
930.6495565,-2.91000008583069
930.6651815,5.73000001907349
930.6808065,16.6299991607666
930.6964315,29.0300006866455
930.7120565,42.3300018310547
930.7276815,55.9000015258789
930.7433065,68.7600021362305
930.7589315,79.620002746582
930.7745565,87.5100021362305
930.7901815,92.4499969482422
930.8058065,95.120002746582
930.8214315,96.1399993896484
930.8370565,95.7799987792969
930.8526815,94.2099990844727
930.8683065,91.7200012207031
930.8839315,88.6800003051758
930.8995565,85.3199996948242
930.9151815,81.5400009155273
930.9308065,77.120002746582
930.9464315,71.9300003051758
930.9620565,66.0400009155273
930.9776815,59.5400009155273
930.9933065,52.5499992370605
931.0089315,45.2400016784668
931.0245565,37.9199981689453
931.0401815,30.8799991607666
931.0558065,24.2000007629395
931.0714315,17.6100006103516
931.0870565,10.8199996948242
931.1026815,3.86999988555908
931.1183065,-2.83999991416931
931.1339315,-8.92000007629395
931.1495565,-14.1700000762939
931.1651815,-18.7199993133545
931.1808065,-22.9799995422363
931.1964315,-27.5499992370605
931.2120565,-32.8499984741211
931.2276815,-38.9500007629395
931.2433065,-45.439998626709
931.2589315,-51.7700004577637
931.2745565,-57.4300003051758
931.2901815,-62.1500015258789
931.3058065,-65.6600036621094
931.3214315,-67.4199981689453
931.3370565,-66.75
931.3526815,-63.2099990844727
931.3683065,-57.0099983215332
931.3839315,-49.0699996948242
931.3995565,-40.5999984741211
931.4151815,-32.6300010681152
931.4308065,-25.6700000762939
931.4464315,-19.7199993133545
931.4620565,-14.5900001525879
931.4776815,-10.1199998855591
931.4933065,-6.26999998092651
931.5089315,-3.03999996185303
931.5245565,-0.370000004768372
931.5401815,1.77999997138977
931.5558065,3.49000000953674
931.5714315,4.80000019073486
931.5870565,5.65999984741211
931.6026815,5.82999992370605
931.6183065,4.96000003814697
931.6339315,2.86999988555908
931.6495565,-0.330000013113022
931.6651815,-4.19000005722046
931.6808065,-8.06999969482422
931.6964315,-11.5299997329712
931.7120565,-14.3999996185303
931.7276815,-16.7800006866455
931.7433065,-19.0
