Time(s),Value(%)
921.0089315,-12.1999998092651
921.0245565,-14.0799999237061
921.0401815,-16.2000007629395
921.0558065,-18.3400001525879
921.0714315,-19.9400005340576
921.0870565,-20.6499996185303
921.1026815,-20.5599994659424
921.1183065,-19.8799991607666
921.1339315,-18.7199993133545
921.1495565,-17.1200008392334
921.1651815,-15.3800001144409
921.1808065,-14.0799999237061
921.1964315,-13.5200004577637
921.2120565,-13.25
921.2276815,-12.3400001525879
921.2433065,-10.1000003814697
921.2589315,-6.65000009536743
921.2745565,-2.54999995231628
921.2901815,1.87999999523163
921.3058065,6.82000017166138
921.3214315,12.1899995803833
921.3370565,17.3700008392334
921.3526815,21.6900005340576
921.3683065,25.1100006103516
921.3839315,28.2099990844727
921.3995565,31.5499992370605
921.4151815,35.0800018310547
921.4308065,38.0299987792969
921.4464315,39.2900009155273
921.4620565,38.2099990844727
921.4776815,35.0400009155273
921.4933065,30.6299991607666
921.5089315,25.6599998474121
921.5245565,20.3199996948242
921.5401815,14.5600004196167
921.5558065,8.55000019073486
921.5714315,2.77999997138977
921.5870565,-2.26999998092651
921.6026815,-6.42000007629395
921.6183065,-9.73999977111816
921.6339315,-12.5699996948242
921.6495565,-15.4799995422363
921.6651815,-18.9099998474121
921.6808065,-22.8999996185303
921.6964315,-27.0799999237061
921.7120565,-30.7600002288818
921.7276815,-33.1100006103516
921.7433065,-33.4700012207031
921.7589315,-31.7800006866455
921.7745565,-28.6599998474121
921.7901815,-25.2399997711182
921.8058065,-22.7399997711182
921.8214315,-21.9599990844727
921.8370565,-22.8299999237061
921.8526815,-24.4599990844727
921.8683065,-25.6800003051758
921.8839315,-25.8400001525879
921.8995565,-25.1100006103516
921.9151815,-23.9099998474121
921.9308065,-22.3899993896484
921.9464315,-20.6399993896484
921.9620565,-18.9099998474121
921.9776815,-17.4500007629395
921.9933065,-16.1000003814697
922.0089315,-14.3100004196167
922.0245565,-11.2299995422363
922.0401815,-5.92999982833862
922.0558065,1.85000002384186
922.0714315,11.1599998474121
922.0870565,20.1200008392334
922.1026815,27.0900001525879
922.1183065,31.5200004577637
922.1339315,33.9300003051758
922.1495565,35.2099990844727
922.1651815,35.8199996948242
922.1808065,35.6699981689453
922.1964315,34.6500015258789
922.2120565,33.1399993896484
922.2276815,31.7900009155273
922.2433065,30.7999992370605
922.2589315,29.3500003814697
922.2745565,25.9899997711182
922.2901815,19.9099998474121
922.3058065,11.8800001144409
922.3214315,3.97000002861023
922.3370565,-1.82000005245209
922.3526815,-4.94000005722046
922.3683065,-6.3899998664856
922.3839315,-7.98999977111816
922.3995565,-11.0299997329712
922.4151815,-15.539999961853
922.4308065,-20.5300006866455
922.4464315,-24.6200008392334
922.4620565,-26.5400009155273
922.4776815,-25.6700000762939
922.4933065,-22.5200004577637
922.5089315,-18.6499996185303
922.5245565,-15.8199996948242
922.5401815,-15.0100002288818
922.5558065,-15.960000038147
922.5714315,-17.5900001525879
922.5870565,-18.8199996948242
922.6026815,-19.0200004577637
922.6183065,-18.1299991607666
922.6339315,-16.5599994659424
922.6495565,-14.8699998855591
922.6651815,-13.3999996185303
922.6808065,-12.1800003051758
922.6964315,-11.0799999237061
922.7120565,-10.0200004577637
922.7276815,-8.76000022888184
922.7433065,-6.67999982833862
922.7589315,-2.83999991416931
922.7745565,3.22000002861023
922.7901815,10.8599996566772
922.8058065,18.4699993133545
922.8214315,24.4200000762939
922.8370565,27.8600006103516
922.8526815,29.0
922.8683065,28.7099990844727
922.8839315,27.9200000762939
922.8995565,27.1800003051758
922.9151815,26.6399993896484
922.9308065,26.0200004577637
922.9464315,24.8099994659424
922.9620565,22.3199996948242
922.9776815,17.8700008392334
922.9933065,11.460000038147
923.0089315,4.21000003814697
923.0245565,-1.95000004768372
923.0401815,-5.57000017166138
923.0558065,-6.53999996185303
923.0714315,-6.09000015258789
923.0870565,-5.80000019073486
923.1026815,-6.73000001907349
923.1183065,-8.85999965667725
923.1339315,-11.4099998474121
923.1495565,-13.4799995422363
923.1651815,-14.6499996185303
923.1808065,-14.9499998092651
923.1964315,-14.6800003051758
923.2120565,-14.1599998474121
923.2276815,-13.75
923.2433065,-13.6499996185303
923.2589315,-13.6800003051758
923.2745565,-13.460000038147
923.2901815,-12.8199996948242
923.3058065,-12.1499996185303
923.3214315,-12.0200004577637
923.3370565,-12.7399997711182
923.3526815,-14.1899995803833
923.3683065,-15.9499998092651
923.3839315,-17.5699996948242
923.3995565,-18.6800003051758
923.4151815,-19.0499992370605
923.4308065,-18.3199996948242
923.4464315,-15.789999961853
923.4620565,-10.7200002670288
923.4776815,-2.95000004768372
923.4933065,6.63000011444092
923.5089315,16.3299999237061
923.5245565,24.3600006103516
923.5401815,29.7099990844727
923.5558065,32.3600006103516
923.5714315,33.060001373291
923.5870565,32.8400001525879
923.6026815,32.5400009155273
923.6183065,32.3899993896484
923.6339315,32.0900001525879
923.6495565,31.0599994659424
923.6651815,28.6599998474121
923.6808065,24.5
923.6964315,18.7199993133545
923.7120565,12.1499996185303
923.7276815,5.82000017166138
923.7433065,0.469999998807907
923.7589315,-3.4300000667572
923.7745565,-5.51999998092651
923.7901815,-5.6399998664856
923.8058065,-4.25
923.8214315,-2.47000002861023
923.8370565,-1.61000001430511
923.8526815,-2.54999995231628
923.8683065,-5.46000003814697
923.8839315,-9.65999984741211
923.8995565,-13.8699998855591
923.9151815,-16.8799991607666
923.9308065,-18.2700004577637
923.9464315,-18.3799991607666
923.9620565,-17.9599990844727
923.9776815,-17.5599994659424
923.9933065,-17.3299999237061
924.0089315,-17.0799999237061
924.0245565,-16.6599998474121
924.0401815,-16.0699996948242
924.0558065,-15.3199996948242
924.0714315,-14.289999961853
924.0870565,-12.9099998474121
924.1026815,-11.1999998092651
924.1183065,-9.21000003814697
924.1339315,-7.05000019073486
924.1495565,-4.92999982833862
924.1651815,-2.86999988555908
924.1808065,-0.219999998807907
924.1964315,4.1100001335144
924.2120565,10.9099998474121
924.2276815,19.75
924.2433065,28.8700008392334
924.2589315,36.0200004577637
924.2745565,39.8400001525879
924.2901815,40.4900016784668
924.3058065,39.0699996948242
924.3214315,36.7400016784668
924.3370565,34.439998626709
924.3526815,32.7200012207031
924.3683065,31.5699996948242
924.3839315,30.3199996948242
924.3995565,28.1499996185303
924.4151815,24.5200004577637
924.4308065,19.3099994659424
924.4464315,12.8599996566772
924.4620565,5.65999984741211
924.4776815,-1.75
924.4933065,-8.77999973297119
924.5089315,-14.8299999237061
924.5245565,-19.5400009155273
924.5401815,-22.9599990844727
924.5558065,-25.1800003051758
924.5714315,-26.2299995422363
924.5870565,-26.2000007629395
924.6026815,-25.2800006866455
924.6183065,-23.6499996185303
924.6339315,-21.5
924.6495565,-19.0599994659424
924.6651815,-16.5599994659424
924.6808065,-14.210000038147
924.6964315,-12.4099998474121
924.7120565,-11.8100004196167
924.7276815,-12.7799997329712
924.7433065,-15.0900001525879
924.7589315,-17.8500003814697
924.7745565,-19.7399997711182
924.7901815,-19.6299991607666
924.8058065,-17.4099998474121
924.8214315,-14.1899995803833
924.8370565,-11.4499998092651
924.8526815,-9.98999977111816
924.8683065,-9.53999996185303
924.8839315,-9.0
924.8995565,-7.01000022888184
924.9151815,-2.74000000953674
924.9308065,3.67000007629395
924.9464315,11.1700000762939
924.9620565,18.3099994659424
924.9776815,23.9699993133545
924.9933065,27.6900005340576
925.0089315,29.7000007629395
925.0245565,30.5499992370605
925.0401815,30.7800006866455
925.0558065,30.6800003051758
925.0714315,30.2900009155273
925.0870565,29.4200000762939
925.1026815,27.7600002288818
925.1183065,25.0100002288818
925.1339315,21.25
925.1495565,17.0900001525879
925.1651815,13.210000038147
925.1808065,9.76000022888184
925.1964315,6.26000022888184
925.2120565,2.19000005722046
925.2276815,-2.50999999046326
925.2433065,-7.42999982833862
925.2589315,-12.0
925.2745565,-15.8900003433228
925.2901815,-19.2099990844727
925.3058065,-22.4300003051758
925.3214315,-25.8700008392334
925.3370565,-29.1499996185303
925.3526815,-31.2099990844727
925.3683065,-30.9599990844727
925.3839315,-28.2299995422363
925.3995565,-24.0300006866455
925.4151815,-19.9500007629395
925.4308065,-17.2700004577637
925.4464315,-16.6200008392334
925.4620565,-18.0400009155273
925.4776815,-21.0499992370605
925.4933065,-24.6599998474121
925.5089315,-27.4500007629395
925.5245565,-28.0900001525879
925.5401815,-26.2600002288818
925.5558065,-22.8999996185303
925.5714315,-19.4099998474121
925.5870565,-16.4200000762939
925.6026815,-13.3699998855591
925.6183065,-9.07999992370605
925.6339315,-2.73000001907349
925.6495565,5.44999980926514
925.6651815,14.1800003051758
925.6808065,21.7399997711182
925.6964315,27.0799999237061
925.7120565,30.2199993133545
925.7276815,31.9300003051758
925.7433065,33.0499992370605
925.7589315,33.9199981689453
925.7745565,34.2400016784668
925.7901815,33.4199981689453
925.8058065,30.9099998474121
925.8214315,26.4300003051758
925.8370565,20.1499996185303
925.8526815,12.7700004577637
925.8683065,5.34999990463257
925.8839315,-0.959999978542328
925.8995565,-5.36999988555908
925.9151815,-7.65999984741211
925.9308065,-7.96999979019165
925.9464315,-6.65999984741211
925.9620565,-4.46000003814697
925.9776815,-2.58999991416931
925.9933065,-2.17000007629395
926.0089315,-3.63000011444092
926.0245565,-6.78999996185303
926.0401815,-11.2799997329712
926.0558065,-16.5400009155273
926.0714315,-21.5300006866455
926.0870565,-24.9799995422363
926.1026815,-26.0699996948242
926.1183065,-24.9300003051758
926.1339315,-22.5200004577637
926.1495565,-19.9899997711182
926.1651815,-17.9599990844727
926.1808065,-16.3999996185303
926.1964315,-14.8299999237061
926.2120565,-12.9200000762939
926.2276815,-10.8599996566772
926.2433065,-9.18000030517578
926.2589315,-8.22000026702881
926.2745565,-7.76999998092651
926.2901815,-6.78999996185303
926.3058065,-3.91000008583069
926.3214315,1.36000001430511
926.3370565,8.02999973297119
926.3526815,14.1999998092651
926.3683065,18.2800006866455
926.3839315,19.8999996185303
926.3995565,19.8899993896484
926.4151815,19.6299991607666
926.4308065,20.2000007629395
926.4464315,21.9099998474121
926.4620565,24.2999992370605
926.4776815,26.3299999237061
926.4933065,26.8899993896484
926.5089315,25.3999996185303
926.5245565,22.0
926.5401815,17.2999992370605
926.5558065,12.1099996566772
926.5714315,7.17999982833862
926.5870565,3.01999998092651
926.6026815,-0.200000002980232
926.6183065,-2.5699999332428
926.6339315,-4.28000020980835
926.6495565,-5.71000003814697
926.6651815,-7.36999988555908
926.6808065,-9.59000015258789
926.6964315,-12.2799997329712
926.7120565,-14.9099998474121
926.7276815,-16.7299995422363
926.7433065,-17.1100006103516
926.7589315,-15.9700002670288
926.7745565,-14.0100002288818
926.7901815,-12.1800003051758
926.8058065,-11.0
926.8214315,-10.4499998092651
926.8370565,-10.1800003051758
926.8526815,-9.77000045776367
926.8683065,-8.96000003814697
926.8839315,-7.92999982833862
926.8995565,-7.30999994277954
926.9151815,-7.65000009536743
926.9308065,-8.80000019073486
926.9464315,-10.0799999237061
926.9620565,-10.8000001907349
926.9776815,-10.5600004196167
926.9933065,-8.78999996185303
927.0089315,-4.82999992370605
927.0245565,1.45000004768372
927.0401815,9.19999980926514
927.0558065,16.8400001525879
927.0714315,23.0400009155273
927.0870565,27.3999996185303
927.1026815,30.4400005340576
927.1183065,32.9199981689453
927.1339315,35.2000007629395
927.1495565,37.1500015258789
927.1651815,38.4799995422363
927.1808065,38.8400001525879
927.1964315,37.75
927.2120565,34.6800003051758
927.2276815,29.3999996185303
927.2433065,22.2000007629395
927.2589315,14.0200004577637
927.2745565,6.46000003814697
927.2901815,1.14999997615814
927.3058065,-1.37999999523163
927.3214315,-2.16000008583069
927.3370565,-2.89000010490417
927.3526815,-4.69999980926514
927.3683065,-7.53999996185303
927.3839315,-10.6899995803833
927.3995565,-13.5699996948242
927.4151815,-15.8599996566772
927.4308065,-17.4099998474121
927.4464315,-18.2700004577637
927.4620565,-18.7600002288818
927.4776815,-19.3400001525879
927.4933065,-20.2399997711182
927.5089315,-21.1499996185303
927.5245565,-21.3199996948242
927.5401815,-20.0599994659424
927.5558065,-17.4400005340576
927.5714315,-14.1099996566772
927.5870565,-10.9200000762939
927.6026815,-8.68000030517578
927.6183065,-8.21000003814697
927.6339315,-10.0299997329712
927.6495565,-13.7600002288818
927.6651815,-18.0599994659424
927.6808065,-21.0300006866455
927.6964315,-21.0
927.7120565,-17.0900001525879
927.7276815,-9.64999961853027
927.7433065,-0.189999997615814
927.7589315,9.22999954223633
927.7745565,16.9899997711182
927.7901815,22.4699993133545
927.8058065,25.9899997711182
927.8214315,28.2199993133545
927.8370565,29.6299991607666
927.8526815,30.5599994659424
927.8683065,31.2700004577637
927.8839315,31.7700004577637
927.8995565,31.7800006866455
927.9151815,30.7900009155273
927.9308065,28.2399997711182
927.9464315,23.8799991607666
927.9620565,18.0699996948242
927.9776815,11.6400003433228
927.9933065,5.53000020980835
928.0089315,0.360000014305115
928.0245565,-3.63000011444092
928.0401815,-6.71999979019165
928.0558065,-9.38000011444092
928.0714315,-11.8999996185303
928.0870565,-14.2700004577637
928.1026815,-16.2999992370605
928.1183065,-18.0
928.1339315,-19.4899997711182
928.1495565,-20.8600006103516
928.1651815,-22.1399993896484
928.1808065,-23.5100002288818
928.1964315,-25.2299995422363
928.2120565,-27.2099990844727
928.2276815,-28.9599990844727
928.2433065,-29.8700008392334
928.2589315,-29.4699993133545
928.2745565,-27.6299991607666
928.2901815,-24.8400001525879
928.3058065,-22.1399993896484
928.3214315,-20.4099998474121
928.3370565,-19.75
928.3526815,-19.5900001525879
928.3683065,-19.2600002288818
928.3839315,-18.2999992370605
928.3995565,-16.5100002288818
928.4151815,-13.8299999237061
928.4308065,-10.2700004577637
928.4464315,-5.73999977111816
928.4620565,-0.239999994635582
928.4776815,6.07999992370605
928.4933065,12.8699998855591
928.5089315,19.5499992370605
928.5245565,25.4400005340576
928.5401815,29.8799991607666
928.5558065,32.6599998474121
928.5714315,34.1699981689453
928.5870565,35.0900001525879
928.6026815,35.75
928.6183065,35.939998626709
928.6339315,35.1599998474121
928.6495565,32.7999992370605
928.6651815,28.2999992370605
928.6808065,21.5799999237061
928.6964315,13.5500001907349
928.7120565,5.90999984741211
928.7276815,0.259999990463257
928.7433065,-2.83999991416931
928.7589315,-4.07999992370605
928.7745565,-4.82999992370605
928.7901815,-6.26999998092651
928.8058065,-8.8100004196167
928.8214315,-12.1599998474121
928.8370565,-15.5799999237061
928.8526815,-18.0599994659424
928.8683065,-18.7900009155273
928.8839315,-17.7600002288818
928.8995565,-15.8299999237061
928.9151815,-14.3699998855591
928.9308065,-14.3800001144409
928.9464315,-15.8900003433228
928.9620565,-18.1299991607666
928.9776815,-20.1399993896484
928.9933065,-21.2199993133545
929.0089315,-21.0799999237061
929.0245565,-20.0
929.0401815,-18.7099990844727
929.0558065,-17.9500007629395
929.0714315,-17.8099994659424
929.0870565,-17.7999992370605
929.1026815,-17.1800003051758
929.1183065,-15.1199998855591
929.1339315,-10.8400001525879
929.1495565,-4.09000015258789
929.1651815,4.34999990463257
929.1808065,12.9399995803833
929.1964315,20.1700000762939
929.2120565,25.4599990844727
929.2276815,29.3400001525879
929.2433065,32.8600006103516
929.2589315,36.6699981689453
929.2745565,40.560001373291
929.2901815,43.8800010681152
929.3058065,46.0900001525879
929.3214315,46.6500015258789
929.3370565,45.0
929.3526815,40.8400001525879
929.3683065,34.4500007629395
929.3839315,26.6100006103516
929.3995565,18.3199996948242
929.4151815,10.5799999237061
929.4308065,4.21000003814697
929.4464315,-0.340000003576279
929.4620565,-3.42000007629395
929.4776815,-6.09000015258789
929.4933065,-9.22000026702881
929.5089315,-12.789999961853
929.5245565,-16.1200008392334
929.5401815,-18.7199993133545
929.5558065,-20.4500007629395
929.5714315,-21.2600002288818
929.5870565,-21.1200008392334
929.6026815,-20.2199993133545
929.6183065,-19.0
929.6339315,-17.9400005340576
929.6495565,-17.2399997711182
929.6651815,-16.8799991607666
929.6808065,-16.7000007629395
929.6964315,-16.5799999237061
929.7120565,-16.4899997711182
929.7276815,-16.6900005340576
929.7433065,-17.5
929.7589315,-18.8500003814697
929.7745565,-20.0400009155273
929.7901815,-20.1499996185303
929.8058065,-18.7099990844727
929.8214315,-15.8699998855591
929.8370565,-12.0200004577637
929.8526815,-7.23999977111816
929.8683065,-1.23000001907349
929.8839315,6.17000007629395
929.8995565,14.3999996185303
929.9151815,22.1800003051758
929.9308065,28.3600006103516
929.9464315,32.6800003051758
929.9620565,35.7999992370605
929.9776815,38.5299987792969
929.9933065,40.9900016784668
930.0089315,42.4900016784668
930.0245565,41.9900016784668
930.0401815,38.7700004577637
930.0558065,32.75
930.0714315,24.6000003814697
930.0870565,15.5
930.1026815,6.73999977111816
930.1183065,-0.779999971389771
930.1339315,-6.8600001335144
930.1495565,-11.5900001525879
930.1651815,-14.960000038147
930.1808065,-16.8899993896484
930.1964315,-17.5100002288818
930.2120565,-17.2399997711182
930.2276815,-16.6700000762939
930.2433065,-16.4400005340576
930.2589315,-17.0400009155273
930.2745565,-18.8600006103516
930.2901815,-22.0499992370605
930.3058065,-26.2000007629395
930.3214315,-30.1800003051758
930.3370565,-32.560001373291
930.3526815,-32.3300018310547
930.3683065,-29.6000003814697
930.3839315,-25.6299991607666
930.3995565,-22.1800003051758
930.4151815,-20.4899997711182
930.4308065,-20.7399997711182
930.4464315,-22.3600006103516
930.4620565,-24.5799999237061
930.4776815,-26.5499992370605
930.4933065,-27.2700004577637
930.5089315,-25.8099994659424
930.5245565,-21.6000003814697
930.5401815,-14.3999996185303
930.5558065,-4.46000003814697
930.5714315,7.30999994277954
930.5870565,19.6200008392334
930.6026815,31.0900001525879
930.6183065,40.5499992370605
930.6339315,47.1599998474121
930.6495565,50.6800003051758
930.6651815,51.560001373291
930.6808065,50.7599983215332
930.6964315,49.2700004577637
930.7120565,47.6800003051758
930.7276815,45.9300003051758
930.7433065,43.3600006103516
930.7589315,38.8699989318848
930.7745565,31.6200008392334
930.7901815,21.8400001525879
930.8058065,11.1999998092651
930.8214315,2.13000011444092
930.8370565,-3.54999995231628
930.8526815,-5.69999980926514
930.8683065,-5.65999984741211
930.8839315,-5.19999980926514
930.8995565,-5.53999996185303
930.9151815,-7.15000009536743
930.9308065,-9.88000011444092
930.9464315,-13.2799997329712
930.9620565,-16.7299995422363
930.9776815,-19.7000007629395
930.9933065,-21.8799991607666
931.0089315,-23.2800006866455
931.0245565,-24.0900001525879
931.0401815,-24.6900005340576
931.0558065,-25.3899993896484
931.0714315,-26.2000007629395
931.0870565,-26.6800003051758
931.1026815,-26.4699993133545
931.1183065,-25.9400005340576
931.1339315,-26.0
931.1495565,-27.1100006103516
931.1651815,-28.8299999237061
931.1808065,-30.2800006866455
931.1964315,-30.8199996948242
931.2120565,-30.1200008392334
931.2276815,-27.7199993133545
931.2433065,-22.8400001525879
931.2589315,-14.9200000762939
931.2745565,-4.19999980926514
931.2901815,7.94000005722046
931.3058065,19.4300003051758
931.3214315,28.3500003814697
931.3370565,33.8800010681152
931.3526815,36.4900016784668
931.3683065,37.4300003051758
931.3839315,37.9599990844727
931.3995565,38.8499984741211
931.4151815,40.310001373291
931.4308065,41.939998626709
931.4464315,42.75
931.4620565,41.2900009155273
931.4776815,36.1699981689453
931.4933065,27.1499996185303
931.5089315,15.8000001907349
931.5245565,4.90000009536743
931.5401815,-3.14000010490417
931.5558065,-7.53000020980835
931.5714315,-8.9399995803833
931.5870565,-8.65999984741211
931.6026815,-8.05000019073486
931.6183065,-8.25
931.6339315,-9.85000038146973
931.6495565,-12.6300001144409
931.6651815,-15.8699998855591
931.6808065,-18.8999996185303
931.6964315,-21.3400001525879
