Time(s),Value(%)
572.0071752,62.5499992370605
572.0228002,55.0299987792969
572.0384252,48.3899993896484
572.0540502,43.4099998474121
572.0696752,39.7900009155273
572.0853002,36.7000007629395
572.1009252,33.7000007629395
572.1165502,31.0
572.1321752,29.0400009155273
572.1478002,28.0
572.1634252,27.6700000762939
572.1790502,27.5400009155273
572.1946752,26.9699993133545
572.2103002,25.4899997711182
572.2259252,23.0499992370605
572.2415502,19.8500003814697
572.2571752,16.1200008392334
572.2728002,12.0299997329712
572.2884252,7.82000017166138
572.3040502,4.15000009536743
572.3196752,2.13000011444092
572.3353002,2.74000000953674
572.3509252,6.19000005722046
572.3665502,11.8299999237061
572.3821752,18.6399993896484
572.3978002,25.6800003051758
572.4134252,32.25
572.4290502,37.9799995422363
572.4446752,42.810001373291
572.4603002,46.9099998474121
572.4759252,50.4599990844727
572.4915502,53.5
572.5071752,55.8600006103516
572.5228002,57.3600006103516
572.5384252,58.1100006103516
572.5540502,58.4300003051758
572.5696752,58.7000007629395
572.5853002,59.1100006103516
572.6009252,59.5999984741211
572.6165502,59.8199996948242
572.6321752,59.1399993896484
572.6478002,57.0200004577637
572.6634252,53.3400001525879
572.6790502,48.25
572.6946752,41.7700004577637
572.7103002,33.9099998474121
572.7259252,24.9699993133545
572.7415502,15.8800001144409
572.7571752,7.98000001907349
572.7728002,2.14000010490417
572.7884252,-1.95000004768372
572.8040502,-5.28000020980835
572.8196752,-8.39000034332275
572.8353002,-11.1300001144409
572.8509252,-13.0799999237061
572.8665502,-14.0600004196167
572.8821752,-14.3199996948242
572.8978002,-14.6599998474121
572.9134252,-16.2099990844727
572.9290502,-19.8799991607666
572.9446752,-25.8600006103516
572.9603002,-33.8600006103516
572.9759252,-43.6699981689453
572.9915502,-55.189998626709
573.0071752,-67.9100036621094
573.0228002,-80.3399963378906
573.0384252,-90.2099990844727
573.0540502,-95.879997253418
573.0696752,-97.5800018310547
573.0853002,-96.8499984741211
573.1009252,-94.9400024414063
573.1165502,-92.2300033569336
573.1321752,-88.5999984741211
573.1478002,-84.0100021362305
573.1634252,-78.7900009155273
573.1790502,-73.5199966430664
573.1946752,-68.9300003051758
573.2103002,-65.5299987792969
573.2259252,-63.4500007629395
573.2415502,-62.7400016784668
573.2571752,-63.7299995422363
573.2728002,-66.75
573.2884252,-71.5699996948242
573.3040502,-76.9300003051758
573.3196752,-80.8300018310547
573.3353002,-81.8199996948242
573.3509252,-80.0100021362305
573.3665502,-76.5400009155273
573.3821752,-72.2600021362305
573.3978002,-67.2799987792969
573.4134252,-61.3699989318848
573.4290502,-54.560001373291
573.4446752,-47.2400016784668
573.4603002,-40.1100006103516
573.4759252,-33.9700012207031
573.4915502,-29.3999996185303
573.5071752,-26.4799995422363
573.5228002,-25.1800003051758
573.5384252,-25.6599998474121
573.5540502,-28.1800003051758
573.5696752,-32.4599990844727
573.5853002,-37.2400016784668
573.6009252,-40.6100006103516
573.6165502,-41.2599983215332
573.6321752,-39.5200004577637
573.6478002,-36.7200012207031
573.6634252,-33.7400016784668
573.6790502,-30.5200004577637
573.6946752,-26.5799999237061
573.7103002,-21.7000007629395
573.7259252,-16.1499996185303
573.7415502,-10.6199998855591
573.7571752,-6.0
573.7728002,-2.97000002861023
573.7884252,-1.62999999523163
573.8040502,-1.75999999046326
573.8196752,-3.13000011444092
573.8353002,-5.6100001335144
573.8509252,-8.81999969482422
573.8665502,-11.6999998092651
573.8821752,-12.4700002670288
573.8978002,-9.65999984741211
573.9134252,-3.19000005722046
573.9290502,5.84000015258789
573.9446752,16.0799999237061
573.9603002,26.5799999237061
573.9759252,36.8800010681152
573.9915502,46.7900009155273
574.0071752,56.189998626709
574.0228002,64.9000015258789
574.0384252,72.6699981689453
574.0540502,79.2699966430664
574.0696752,84.620002746582
574.0853002,88.6999969482422
574.1009252,91.370002746582
574.1165502,92.4499969482422
574.1321752,92.0999984741211
574.1478002,91.0
574.1634252,90.1100006103516
574.1790502,90.0199966430664
574.1946752,90.4599990844727
574.2103002,90.7099990844727
574.2259252,90.5100021362305
574.2415502,90.1500015258789
574.2571752,90.120002746582
574.2728002,90.6699981689453
574.2884252,91.629997253418
574.3040502,92.4700012207031
574.3196752,92.4499969482422
574.3353002,91.0100021362305
574.3509252,88.0199966430664
574.3665502,83.5299987792969
574.3821752,77.4499969482422
574.3978002,69.5999984741211
574.4134252,60.2799987792969
574.4290502,50.6500015258789
574.4446752,42.4700012207031
574.4603002,36.9199981689453
574.4759252,33.7200012207031
574.4915502,31.6200008392334
574.5071752,29.8199996948242
574.5228002,28.3299999237061
574.5384252,27.5699996948242
574.5540502,27.7299995422363
574.5696752,28.6100006103516
574.5853002,29.7399997711182
574.6009252,30.6599998474121
574.6165502,31.0499992370605
574.6321752,30.8799991607666
574.6478002,30.2999992370605
574.6634252,29.4799995422363
574.6790502,28.5699996948242
574.6946752,27.7000007629395
574.7103002,27.3500003814697
574.7259252,28.3700008392334
574.7415502,31.5699996948242
574.7571752,37.0800018310547
574.7728002,44.1800003051758
574.7884252,51.8199996948242
574.8040502,59.0299987792969
574.8196752,65.3199996948242
574.8353002,70.5899963378906
574.8509252,75.0199966430664
574.8665502,78.7200012207031
574.8821752,81.5400009155273
574.8978002,83.2699966430664
574.9134252,83.8099975585938
574.9290502,83.25
574.9446752,81.6600036621094
574.9603002,79.1500015258789
574.9759252,75.9199981689453
574.9915502,72.379997253418
575.0071752,69.0699996948242
575.0228002,66.25
575.0384252,63.6399993896484
575.0540502,60.75
575.0696752,57.3400001525879
575.0853002,53.3800010681152
575.1009252,48.7599983215332
575.1165502,43.2299995422363
575.1321752,36.7799987792969
575.1478002,29.8799991607666
575.1634252,23.3600006103516
575.1790502,17.7700004577637
575.1946752,12.8900003433228
575.2103002,8.15999984741211
575.2259252,3.39000010490417
575.2415502,-1.02999997138977
575.2571752,-4.69000005722046
575.2728002,-7.42999982833862
575.2884252,-9.47999954223633
575.3040502,-11.3400001525879
575.3196752,-13.539999961853
575.3353002,-16.4300003051758
575.3509252,-20.0300006866455
575.3665502,-24.0200004577637
575.3821752,-27.9699993133545
575.3978002,-31.5100002288818
575.4134252,-34.439998626709
575.4290502,-36.4500007629395
575.4446752,-36.939998626709
575.4603002,-35.25
575.4759252,-31.0799999237061
575.4915502,-24.8500003814697
575.5071752,-17.5499992370605
575.5228002,-10.3000001907349
575.5384252,-3.91000008583069
575.5540502,1.3400000333786
575.5696752,5.59999990463257
575.5853002,9.14000034332275
575.6009252,12.1000003814697
575.6165502,14.5299997329712
575.6321752,16.3899993896484
575.6478002,17.6900005340576
575.6634252,18.4300003051758
575.6790502,18.6399993896484
575.6946752,18.3899993896484
575.7103002,17.6900005340576
575.7259252,16.4799995422363
575.7415502,14.6000003814697
575.7571752,11.960000038147
575.7728002,8.61999988555908
575.7884252,4.86999988555908
575.8040502,1.11000001430511
575.8196752,-2.39000010490417
575.8353002,-5.55999994277954
575.8509252,-8.48999977111816
575.8665502,-11.5
575.8821752,-15.0100002288818
575.8978002,-19.3799991607666
575.9134252,-24.6599998474121
575.9290502,-30.7199993133545
575.9446752,-37.4799995422363
575.9603002,-44.9000015258789
575.9759252,-52.7999992370605
575.9915502,-60.6300010681152
576.0071752,-67.5599975585938
576.0228002,-72.8399963378906
576.0384252,-76.1900024414063
576.0540502,-77.7699966430664
576.0696752,-77.879997253418
576.0853002,-76.8300018310547
576.1009252,-74.9899978637695
576.1165502,-72.7600021362305
576.1321752,-70.4499969482422
576.1478002,-67.9100036621094
576.1634252,-64.5299987792969
576.1790502,-59.5999984741211
576.1946752,-52.9500007629395
576.2103002,-45.0400009155273
576.2259252,-36.560001373291
576.2415502,-28.1499996185303
576.2571752,-20.2800006866455
576.2728002,-13.5200004577637
576.2884252,-8.71000003814697
576.3040502,-6.69000005722046
576.3196752,-7.84999990463257
576.3353002,-11.9200000762939
576.3509252,-18.0799999237061
576.3665502,-25.2999992370605
576.3821752,-32.6800003051758
576.3978002,-39.6300010681152
576.4134252,-46.0200004577637
576.4290502,-52.2599983215332
576.4446752,-59.2900009155273
576.4603002,-67.9400024414063
576.4759252,-78.4499969482422
576.4915502,-90.620002746582
576.5071752,-104.290000915527
576.5228002,-119.400001525879
576.5384252,-135.470001220703
576.5540502,-151.179992675781
576.5696752,-164.570007324219
576.5853002,-174.220001220703
576.6009252,-180.210006713867
576.6165502,-183.639999389648
576.6321752,-185.389999389648
576.6478002,-185.669998168945
576.6634252,-184.419998168945
576.6790502,-181.830001831055
576.6946752,-178.320007324219
576.7103002,-174.389999389648
576.7259252,-170.309997558594
576.7415502,-166.160003662109
576.7571752,-161.860000610352
576.7728002,-157.220001220703
576.7884252,-151.929992675781
576.8040502,-145.770004272461
576.8196752,-138.729995727539
576.8353002,-130.869995117188
576.8509252,-122.120002746582
576.8665502,-112.139999389648
576.8821752,-100.589996337891
576.8978002,-87.5500030517578
576.9134252,-73.8199996948242
576.9290502,-60.5099983215332
576.9446752,-48.4900016784668
576.9603002,-38.0299987792969
576.9759252,-28.8500003814697
576.9915502,-20.3700008392334
577.0071752,-11.960000038147
577.0228002,-3.24000000953674
577.0384252,5.84999990463257
577.0540502,15.2799997329712
577.0696752,25.1900005340576
577.0853002,35.75
577.1009252,46.8400001525879
577.1165502,57.7000007629395
577.1321752,67.1699981689453
577.1478002,74.4199981689453
577.1634252,79.6500015258789
577.1790502,83.6999969482422
577.1946752,87.1500015258789
577.2103002,90.0299987792969
577.2259252,92.1100006103516
577.2415502,93.2799987792969
577.2571752,93.6699981689453
577.2728002,93.5699996948242
577.2884252,93.2399978637695
577.3040502,92.8099975585938
577.3196752,92.3399963378906
577.3353002,91.9000015258789
577.3509252,91.6100006103516
577.3665502,91.6399993896484
577.3821752,91.9400024414063
577.3978002,92.120002746582
577.4134252,91.4599990844727
577.4290502,89.4100036621094
577.4446752,85.9899978637695
577.4603002,81.7200012207031
577.4759252,77.2200012207031
577.4915502,73.2099990844727
577.5071752,70.629997253418
577.5228002,70.1999969482422
577.5384252,71.9800033569336
577.5540502,75.1500015258789
577.5696752,78.5899963378906
577.5853002,81.6600036621094
577.6009252,84.6999969482422
577.6165502,88.2399978637695
577.6321752,92.0100021362305
577.6478002,94.9599990844727
577.6634252,96.1600036621094
577.6790502,95.4300003051758
577.6946752,93.25
577.7103002,90.4100036621094
577.7259252,87.5
577.7415502,84.8000030517578
577.7571752,82.3000030517578
577.7728002,79.9700012207031
577.7884252,77.9199981689453
577.8040502,75.9599990844727
577.8196752,74.4300003051758
577.8353002,72.7600021362305
577.8509252,69.870002746582
577.8665502,64.7799987792969
577.8821752,57.310001373291
577.8978002,48.060001373291
577.9134252,37.9099998474121
577.9290502,27.6100006103516
577.9446752,17.6000003814697
577.9603002,8.09000015258789
577.9759252,-0.889999985694885
577.9915502,-9.64000034332275
578.0071752,-18.6100006103516
578.0228002,-28.2299995422363
578.0384252,-38.6100006103516
578.0540502,-49.7099990844727
578.0696752,-61.5900001525879
578.0853002,-74.3600006103516
578.1009252,-87.8099975585938
578.1165502,-101.209999084473
578.1321752,-113.559997558594
578.1478002,-124.269996643066
578.1634252,-133.570007324219
578.1790502,-142.039993286133
578.1946752,-149.809997558594
578.2103002,-156.460006713867
578.2259252,-161.550003051758
578.2415502,-165.039993286133
578.2571752,-167.190002441406
578.2728002,-168.149993896484
578.2884252,-167.570007324219
578.3040502,-164.970001220703
578.3196752,-160.270004272461
578.3353002,-154.0
578.3509252,-147.029998779297
578.3665502,-140.100006103516
578.3821752,-133.679992675781
578.3978002,-127.910003662109
578.4134252,-122.839996337891
578.4290502,-118.599998474121
578.4446752,-115.349998474121
578.4603002,-113.150001525879
578.4759252,-111.830001831055
578.4915502,-111.019996643066
578.5071752,-110.279998779297
578.5228002,-109.300003051758
578.5384252,-107.970001220703
578.5540502,-106.480003356934
578.5696752,-105.199996948242
578.5853002,-104.519996643066
578.6009252,-104.569999694824
578.6165502,-105.440002441406
578.6321752,-107.370002746582
578.6478002,-110.580001831055
578.6634252,-114.910003662109
578.6790502,-119.519996643066
578.6946752,-123.199996948242
578.7103002,-125.199996948242
578.7259252,-125.839996337891
578.7415502,-125.959999084473
578.7571752,-125.919998168945
578.7728002,-125.379997253418
578.7884252,-123.819999694824
578.8040502,-120.029998779297
578.8196752,-115.349998474121
578.8353002,-110.080001831055
578.8509252,-104.349998474121
578.8665502,-98.120002746582
578.8821752,-91.3399963378906
578.8978002,-83.9400024414063
578.9134252,-75.7300033569336
578.9290502,-66.5500030517578
578.9446752,-56.4799995422363
578.9603002,-45.7400016784668
578.9759252,-34.4500007629395
578.9915502,-22.4500007629395
579.0071752,-9.47000026702881
579.0228002,4.3600001335144
579.0384252,18.3299999237061
579.0540502,31.3600006103516
579.0696752,42.7200012207031
579.0853002,52.2999992370605
579.1009252,60.4599990844727
579.1165502,67.5699996948242
579.1321752,73.6800003051758
579.1478002,78.5999984741211
579.1634252,82.2300033569336
579.1790502,84.6100006103516
579.1946752,85.8000030517578
579.2103002,85.879997253418
579.2259252,85.0699996948242
579.2415502,83.6999969482422
579.2571752,82.0599975585938
579.2728002,80.2200012207031
579.2884252,77.9499969482422
579.3040502,75.120002746582
579.3196752,72.0100021362305
579.3353002,69.2099990844727
579.3509252,67.1999969482422
579.3665502,66.0800018310547
579.3821752,65.5999984741211
579.3978002,65.3499984741211
579.4134252,64.9599990844727
579.4290502,64.2200012207031
579.4446752,63.1399993896484
579.4603002,61.7700004577637
579.4759252,60.1300010681152
579.4915502,58.1699981689453
579.5071752,55.9700012207031
579.5228002,53.8800010681152
579.5384252,52.5499992370605
579.5540502,52.7400016784668
579.5696752,55.0400009155273
579.5853002,59.5499992370605
579.6009252,65.8899993896484
579.6165502,73.3199996948242
579.6321752,81.0
579.6478002,88.2799987792969
579.6634252,94.870002746582
579.6790502,100.870002746582
579.6946752,106.75
579.7103002,112.980003356934
579.7259252,119.720001220703
579.7415502,126.76000213623
579.7571752,133.720001220703
579.7728002,140.289993286133
579.7884252,146.179992675781
579.8040502,149.080001831055
579.8196752,150.179992675781
579.8353002,148.880004882813
579.8509252,145.139999389648
579.8665502,139.559997558594
579.8821752,133.029998779297
579.8978002,126.319999694824
579.9134252,119.819999694824
579.9290502,113.610000610352
579.9446752,107.599998474121
579.9603002,101.76000213623
579.9759252,96.1699981689453
579.9915502,90.870002746582
580.0071752,85.7300033569336
580.0228002,80.5800018310547
580.0384252,75.370002746582
580.0540502,70.2600021362305
580.0696752,65.4199981689453
580.0853002,60.9500007629395
580.1009252,56.8400001525879
580.1165502,52.9500007629395
580.1321752,49.0900001525879
580.1478002,45.1300010681152
580.1634252,41.0400009155273
580.1790502,36.9300003051758
580.1946752,33.0
580.2103002,29.3899993896484
580.2259252,26.1900005340576
580.2415502,23.4899997711182
580.2571752,21.5200004577637
580.2728002,20.7299995422363
580.2884252,21.6900005340576
580.3040502,24.6399993896484
580.3196752,29.2600002288818
580.3353002,34.689998626709
580.3509252,40.0299987792969
580.3665502,44.6500015258789
580.3821752,48.4099998474121
580.3978002,51.5200004577637
580.4134252,54.4599990844727
580.4290502,57.6100006103516
580.4446752,61.0900001525879
580.4603002,64.7600021362305
580.4759252,68.4100036621094
580.4915502,71.8099975585938
580.5071752,74.7900009155273
580.5228002,76.8899993896484
580.5384252,77.3499984741211
580.5540502,75.4000015258789
580.5696752,70.8899993896484
580.5853002,64.3399963378906
580.6009252,56.7099990844727
580.6165502,48.8899993896484
580.6321752,41.4799995422363
580.6478002,34.6800003051758
580.6634252,28.3899993896484
580.6790502,22.3099994659424
580.6946752,16.0100002288818
580.7103002,9.1899995803833
580.7259252,1.77999997138977
580.7415502,-6.09000015258789
580.7571752,-14.4099998474121
580.7728002,-23.1599998474121
580.7884252,-32.2000007629395
580.8040502,-40.689998626709
580.8196752,-48.2099990844727
580.8353002,-54.3300018310547
580.8509252,-59.25
580.8665502,-63.4599990844727
580.8821752,-67.25
580.8978002,-70.5599975585938
580.9134252,-73.1999969482422
580.9290502,-75.1399993896484
580.9446752,-76.4300003051758
580.9603002,-76.9899978637695
580.9759252,-76.4100036621094
580.9915502,-74.2399978637695
581.0071752,-70.4100036621094
581.0228002,-65.1800003051758
581.0384252,-58.8600006103516
581.0540502,-51.6500015258789
581.0696752,-43.9099998474121
581.0853002,-36.1699981689453
581.1009252,-29.1200008392334
581.1165502,-23.2299995422363
581.1321752,-18.4799995422363
581.1478002,-14.6400003433228
581.1634252,-11.6599998474121
581.1790502,-9.68000030517578
581.1946752,-8.76000022888184
581.2103002,-8.6899995803833
581.2259252,-9.14999961853027
581.2415502,-9.93000030517578
581.2571752,-11.1599998474121
581.2728002,-13.0900001525879
581.2884252,-15.8400001525879
581.3040502,-19.2999992370605
581.3196752,-23.2900009155273
581.3353002,-27.6499996185303
581.3509252,-32.1599998474121
581.3665502,-36.5400009155273
581.3821752,-40.4700012207031
581.3978002,-43.810001373291
581.4134252,-46.7599983215332
581.4290502,-49.6500015258789
581.4446752,-52.5400009155273
581.4603002,-55.2400016784668
581.4759252,-57.5099983215332
581.4915502,-59.2299995422363
581.5071752,-60.4799995422363
581.5228002,-61.5499992370605
581.5384252,-62.8499984741211
581.5540502,-64.6800003051758
581.5696752,-67.0899963378906
581.5853002,-69.8399963378906
581.6009252,-72.6100006103516
581.6165502,-75.1100006103516
581.6321752,-77.1699981689453
581.6478002,-78.5100021362305
581.6634252,-78.6600036621094
581.6790502,-77.0299987792969
581.6946752,-73.1800003051758
581.7103002,-67.1600036621094
581.7259252,-59.560001373291
581.7415502,-51.2900009155273
581.7571752,-43.1800003051758
581.7728002,-35.7299995422363
581.7884252,-29.0599994659424
581.8040502,-23.0200004577637
581.8196752,-17.4099998474121
581.8353002,-12.0699996948242
581.8509252,-6.92999982833862
581.8665502,-2.00999999046326
581.8821752,2.65000009536743
581.8978002,7.01000022888184
581.9134252,11.0200004577637
581.9290502,14.4700002670288
581.9446752,16.9500007629395
581.9603002,18.0900001525879
581.9759252,17.8500003814697
581.9915502,16.5499992370605
582.0071752,14.5900001525879
582.0228002,12.3400001525879
582.0384252,10.0200004577637
582.0540502,7.78000020980835
582.0696752,5.67999982833862
582.0853002,3.60999989509583
582.1009252,1.37000000476837
582.1165502,-1.20000004768372
582.1321752,-4.05000019073486
582.1478002,-6.98999977111816
582.1634252,-9.98999977111816
582.1790502,-13.1499996185303
582.1946752,-16.5400009155273
582.2103002,-19.9799995422363
582.2259252,-23.0699996948242
582.2415502,-25.4899997711182
582.2571752,-27.2800006866455
582.2728002,-28.6499996185303
582.2884252,-29.6599998474121
582.3040502,-30.1100006103516
582.3196752,-29.6800003051758
582.3353002,-28.1900005340576
582.3509252,-25.7600002288818
582.3665502,-22.6800003051758
582.3821752,-19.1299991607666
582.3978002,-15.0699996948242
582.4134252,-10.2600002288818
582.4290502,-4.6399998664856
582.4446752,1.46000003814697
582.4603002,7.42000007629395
582.4759252,12.6899995803833
582.4915502,17.0900001525879
582.5071752,20.7399997711182
582.5228002,23.8600006103516
582.5384252,26.6399993896484
582.5540502,29.1200008392334
582.5696752,31.3099994659424
582.5853002,33.2799987792969
582.6009252,35.1399993896484
582.6165502,37.0200004577637
582.6321752,38.9599990844727
582.6478002,40.7900009155273
582.6634252,42.1500015258789
582.6790502,42.7900009155273
582.6946752,42.7599983215332
582.7103002,42.3499984741211
582.7259252,41.8600006103516
