Time(s),Value(℃)
572.0071752,7.67999982833862
572.0228002,7.61999988555908
572.0384252,7.55999994277954
572.0540502,7.51000022888184
572.0696752,7.44999980926514
572.0853002,7.3899998664856
572.1009252,7.34000015258789
572.1165502,7.28999996185303
572.1321752,7.23999977111816
572.1478002,7.19000005722046
572.1634252,7.1399998664856
572.1790502,7.09000015258789
572.1946752,7.03000020980835
572.2103002,6.96999979019165
572.2259252,6.90999984741211
572.2415502,6.84999990463257
572.2571752,6.78000020980835
572.2728002,6.71000003814697
572.2884252,6.6399998664856
572.3040502,6.57000017166138
572.3196752,6.51000022888184
572.3353002,6.44000005722046
572.3509252,6.38000011444092
572.3665502,6.32000017166138
572.3821752,6.26000022888184
572.3978002,6.19000005722046
572.4134252,6.13000011444092
572.4290502,6.05999994277954
572.4446752,5.98000001907349
572.4603002,5.90999984741211
572.4759252,5.82999992370605
572.4915502,5.75
572.5071752,5.67000007629395
572.5228002,5.59000015258789
572.5384252,5.5
572.5540502,5.40999984741211
572.5696752,5.30999994277954
572.5853002,5.21000003814697
572.6009252,5.09999990463257
572.6165502,4.98999977111816
572.6321752,4.88000011444092
572.6478002,4.78000020980835
572.6634252,4.67999982833862
572.6790502,4.57999992370605
572.6946752,4.48999977111816
572.7103002,4.3899998664856
572.7259252,4.30000019073486
572.7415502,4.21000003814697
572.7571752,4.11999988555908
572.7728002,4.03000020980835
572.7884252,3.95000004768372
572.8040502,3.85999989509583
572.8196752,3.78999996185303
572.8353002,3.72000002861023
572.8509252,3.66000008583069
572.8665502,3.61999988555908
572.8821752,3.58999991416931
572.8978002,3.5699999332428
572.9134252,3.55999994277954
572.9290502,3.54999995231628
572.9446752,3.54999995231628
572.9603002,3.54999995231628
572.9759252,3.54999995231628
572.9915502,3.53999996185303
573.0071752,3.53999996185303
573.0228002,3.52999997138977
573.0384252,3.52999997138977
573.0540502,3.51999998092651
573.0696752,3.52999997138977
573.0853002,3.52999997138977
573.1009252,3.54999995231628
573.1165502,3.5699999332428
573.1321752,3.59999990463257
573.1478002,3.64000010490417
573.1634252,3.69000005722046
573.1790502,3.75
573.1946752,3.80999994277954
573.2103002,3.88000011444092
573.2259252,3.95000004768372
573.2415502,4.03000020980835
573.2571752,4.1100001335144
573.2728002,4.19999980926514
573.2884252,4.30000019073486
573.3040502,4.3899998664856
573.3196752,4.48000001907349
573.3353002,4.57999992370605
573.3509252,4.67000007629395
573.3665502,4.76000022888184
573.3821752,4.84000015258789
573.3978002,4.92999982833862
573.4134252,5.01000022888184
573.4290502,5.09000015258789
573.4446752,5.17999982833862
573.4603002,5.26999998092651
573.4759252,5.3600001335144
573.4915502,5.46000003814697
573.5071752,5.55999994277954
573.5228002,5.67000007629395
573.5384252,5.80000019073486
573.5540502,5.92999982833862
573.5696752,6.05999994277954
573.5853002,6.21000003814697
573.6009252,6.34999990463257
573.6165502,6.5
573.6321752,6.65000009536743
573.6478002,6.78999996185303
573.6634252,6.92000007629395
573.6790502,7.03000020980835
573.6946752,7.13000011444092
573.7103002,7.21999979019165
573.7259252,7.28999996185303
573.7415502,7.34000015258789
573.7571752,7.38000011444092
573.7728002,7.40999984741211
573.7884252,7.42000007629395
573.8040502,7.42999982833862
573.8196752,7.44000005722046
573.8353002,7.42999982833862
573.8509252,7.42999982833862
573.8665502,7.44000005722046
573.8821752,7.44000005722046
573.8978002,7.44999980926514
573.9134252,7.46999979019165
573.9290502,7.48999977111816
573.9446752,7.51999998092651
573.9603002,7.53999996185303
573.9759252,7.57000017166138
573.9915502,7.57999992370605
574.0071752,7.59000015258789
574.0228002,7.59000015258789
574.0384252,7.57000017166138
574.0540502,7.55000019073486
574.0696752,7.51000022888184
574.0853002,7.46999979019165
574.1009252,7.42000007629395
574.1165502,7.3600001335144
574.1321752,7.30000019073486
574.1478002,7.23999977111816
574.1634252,7.17000007629395
574.1790502,7.09999990463257
574.1946752,7.03000020980835
574.2103002,6.96000003814697
574.2259252,6.88000011444092
574.2415502,6.80999994277954
574.2571752,6.73999977111816
574.2728002,6.67000007629395
574.2884252,6.6100001335144
574.3040502,6.53999996185303
574.3196752,6.48000001907349
574.3353002,6.42999982833862
574.3509252,6.36999988555908
574.3665502,6.30999994277954
574.3821752,6.25
574.3978002,6.19000005722046
574.4134252,6.11999988555908
574.4290502,6.05000019073486
574.4446752,5.96999979019165
574.4603002,5.8899998664856
574.4759252,5.78999996185303
574.4915502,5.69000005722046
574.5071752,5.57999992370605
574.5228002,5.46000003814697
574.5384252,5.34000015258789
574.5540502,5.21999979019165
574.5696752,5.09999990463257
574.5853002,4.98000001907349
574.6009252,4.86999988555908
574.6165502,4.76999998092651
574.6321752,4.69000005722046
574.6478002,4.61999988555908
574.6634252,4.57000017166138
574.6790502,4.53000020980835
574.6946752,4.5
574.7103002,4.48999977111816
574.7259252,4.48000001907349
574.7415502,4.48000001907349
574.7571752,4.48000001907349
574.7728002,4.48999977111816
574.7884252,4.5
574.8040502,4.5
574.8196752,4.51000022888184
574.8353002,4.5
574.8509252,4.5
574.8665502,4.48999977111816
574.8821752,4.48000001907349
574.8978002,4.46000003814697
574.9134252,4.44000005722046
574.9290502,4.42000007629395
574.9446752,4.40999984741211
574.9603002,4.40000009536743
574.9759252,4.3899998664856
574.9915502,4.3899998664856
575.0071752,4.3899998664856
575.0228002,4.3899998664856
575.0384252,4.3899998664856
575.0540502,4.40000009536743
575.0696752,4.40999984741211
575.0853002,4.40999984741211
575.1009252,4.42000007629395
575.1165502,4.42000007629395
575.1321752,4.40999984741211
575.1478002,4.40999984741211
575.1634252,4.40000009536743
575.1790502,4.3899998664856
575.1946752,4.38000011444092
575.2103002,4.3600001335144
575.2259252,4.34999990463257
575.2415502,4.34000015258789
575.2571752,4.32999992370605
575.2728002,4.30999994277954
575.2884252,4.30000019073486
575.3040502,4.30000019073486
575.3196752,4.28999996185303
575.3353002,4.28000020980835
575.3509252,4.28000020980835
575.3665502,4.26999998092651
575.3821752,4.26000022888184
575.3978002,4.25
575.4134252,4.23999977111816
575.4290502,4.21999979019165
575.4446752,4.19000005722046
575.4603002,4.15000009536743
575.4759252,4.1100001335144
575.4915502,4.07000017166138
575.5071752,4.03000020980835
575.5228002,3.98000001907349
575.5384252,3.9300000667572
575.5540502,3.89000010490417
575.5696752,3.83999991416931
575.5853002,3.79999995231628
575.6009252,3.75
575.6165502,3.70000004768372
575.6321752,3.66000008583069
575.6478002,3.60999989509583
575.6634252,3.55999994277954
575.6790502,3.50999999046326
575.6946752,3.46000003814697
575.7103002,3.42000007629395
575.7259252,3.38000011444092
575.7415502,3.33999991416931
575.7571752,3.29999995231628
575.7728002,3.26999998092651
575.7884252,3.24000000953674
575.8040502,3.21000003814697
575.8196752,3.19000005722046
575.8353002,3.17000007629395
575.8509252,3.15000009536743
575.8665502,3.13000011444092
575.8821752,3.10999989509583
575.8978002,3.08999991416931
575.9134252,3.05999994277954
575.9290502,3.01999998092651
575.9446752,2.97000002861023
575.9603002,2.92000007629395
575.9759252,2.84999990463257
575.9915502,2.76999998092651
576.0071752,2.69000005722046
576.0228002,2.60999989509583
576.0384252,2.52999997138977
576.0540502,2.45000004768372
576.0696752,2.36999988555908
576.0853002,2.29999995231628
576.1009252,2.24000000953674
576.1165502,2.1800000667572
576.1321752,2.11999988555908
576.1478002,2.0699999332428
576.1634252,2.01999998092651
576.1790502,1.97000002861023
576.1946752,1.91999995708466
576.2103002,1.86000001430511
576.2259252,1.80999994277954
576.2415502,1.75
576.2571752,1.70000004768372
576.2728002,1.63999998569489
576.2884252,1.57000005245209
576.3040502,1.50999999046326
576.3196752,1.46000003814697
576.3353002,1.4099999666214
576.3509252,1.36000001430511
576.3665502,1.33000004291534
576.3821752,1.30999994277954
576.3978002,1.28999996185303
576.4134252,1.27999997138977
576.4290502,1.26999998092651
576.4446752,1.26999998092651
576.4603002,1.25999999046326
576.4759252,1.25
576.4915502,1.23000001907349
576.5071752,1.21000003814697
576.5228002,1.19000005722046
576.5384252,1.16999995708466
576.5540502,1.14999997615814
576.5696752,1.12999999523163
576.5853002,1.12000000476837
576.6009252,1.10000002384186
576.6165502,1.08000004291534
576.6321752,1.05999994277954
576.6478002,1.02999997138977
576.6634252,0.990000009536743
576.6790502,0.949999988079071
576.6946752,0.910000026226044
576.7103002,0.860000014305115
576.7259252,0.810000002384186
576.7415502,0.75
576.7571752,0.699999988079071
576.7728002,0.639999985694885
576.7884252,0.589999973773956
576.8040502,0.529999971389771
576.8196752,0.479999989271164
576.8353002,0.430000007152557
576.8509252,0.389999985694885
576.8665502,0.360000014305115
576.8821752,0.330000013113022
576.8978002,0.310000002384186
576.9134252,0.300000011920929
576.9290502,0.300000011920929
576.9446752,0.310000002384186
576.9603002,0.319999992847443
576.9759252,0.330000013113022
576.9915502,0.340000003576279
577.0071752,0.360000014305115
577.0228002,0.370000004768372
577.0384252,0.370000004768372
577.0540502,0.370000004768372
577.0696752,0.360000014305115
577.0853002,0.349999994039536
577.1009252,0.330000013113022
577.1165502,0.300000011920929
577.1321752,0.270000010728836
577.1478002,0.239999994635582
577.1634252,0.209999993443489
577.1790502,0.180000007152557
577.1946752,0.150000005960464
577.2103002,0.119999997317791
577.2259252,0.0900000035762787
577.2415502,0.0599999986588955
577.2571752,0.0299999993294477
577.2728002,0.0
577.2884252,0.0
577.3040502,0.0
577.3196752,0.0
577.3353002,0.0
577.3509252,0.0
577.3665502,0.0
577.3821752,0.0
577.3978002,0.0
577.4134252,0.0
577.4290502,0.0
577.4446752,0.0
577.4603002,0.0
577.4759252,0.0
577.4915502,0.0
577.5071752,0.0
577.5228002,0.0
577.5384252,0.0
577.5540502,0.0
577.5696752,0.0
577.5853002,0.0
577.6009252,0.0
577.6165502,0.0
577.6321752,0.0
577.6478002,0.0
577.6634252,0.0
577.6790502,0.0
577.6946752,0.0
577.7103002,0.0
577.7259252,0.0
577.7415502,0.0
577.7571752,0.0
577.7728002,0.0
577.7884252,0.0
577.8040502,0.0
577.8196752,0.0
577.8353002,0.0
577.8509252,0.0
577.8665502,0.0
577.8821752,0.0
577.8978002,0.0
577.9134252,0.0
577.9290502,0.0
577.9446752,0.0
577.9603002,0.0
577.9759252,0.0
577.9915502,0.0
578.0071752,0.0
578.0228002,0.0
578.0384252,0.0
578.0540502,0.0
578.0696752,0.0
578.0853002,0.0
578.1009252,0.0
578.1165502,0.0
578.1321752,0.0
578.1478002,0.0
578.1634252,0.0
578.1790502,0.0
578.1946752,0.0
578.2103002,0.0
578.2259252,0.0
578.2415502,0.0
578.2571752,0.0
578.2728002,0.0
578.2884252,0.0
578.3040502,0.0
578.3196752,0.0
578.3353002,0.0
578.3509252,0.0
578.3665502,0.0
578.3821752,0.0
578.3978002,0.0
578.4134252,0.0
578.4290502,0.0
578.4446752,0.0
578.4603002,0.0
578.4759252,0.0
578.4915502,0.0
578.5071752,0.0
578.5228002,0.0
578.5384252,0.0
578.5540502,0.0
578.5696752,0.0
578.5853002,0.0
578.6009252,0.0
578.6165502,0.0
578.6321752,0.0
578.6478002,0.0
578.6634252,0.0
578.6790502,0.0
578.6946752,0.0
578.7103002,0.0
578.7259252,0.0
578.7415502,0.0
578.7571752,0.0
578.7728002,0.0
578.7884252,0.0
578.8040502,0.0
578.8196752,0.0
578.8353002,0.0
578.8509252,0.0
578.8665502,0.0
578.8821752,0.0
578.8978002,0.0
578.9134252,0.0
578.9290502,0.0
578.9446752,0.0
578.9603002,0.0
578.9759252,0.0
578.9915502,0.0
579.0071752,0.0
579.0228002,0.0
579.0384252,0.0
579.0540502,0.0
579.0696752,0.0
579.0853002,0.0
579.1009252,0.0
579.1165502,0.0
579.1321752,0.0
579.1478002,0.0
579.1634252,0.0
579.1790502,0.0
579.1946752,0.0
579.2103002,0.0
579.2259252,0.0
579.2415502,0.0
579.2571752,0.0
579.2728002,0.0
579.2884252,0.0
579.3040502,0.0
579.3196752,0.0
579.3353002,0.0
579.3509252,0.0
579.3665502,0.0
579.3821752,0.0
579.3978002,0.0
579.4134252,0.0
579.4290502,0.0
579.4446752,0.0
579.4603002,0.0
579.4759252,0.0
579.4915502,0.0
579.5071752,0.0
579.5228002,0.0
579.5384252,0.0
579.5540502,0.0
579.5696752,0.0
579.5853002,0.0
579.6009252,0.0
579.6165502,0.0
579.6321752,0.0399999991059303
579.6478002,0.140000000596046
579.6634252,0.25
579.6790502,0.360000014305115
579.6946752,0.479999989271164
579.7103002,0.589999973773956
579.7259252,0.699999988079071
579.7415502,0.819999992847443
579.7571752,0.939999997615814
579.7728002,1.05999994277954
579.7884252,1.19000005722046
579.8040502,1.33000004291534
579.8196752,1.47000002861023
579.8353002,1.62000000476837
579.8509252,1.76999998092651
579.8665502,1.91999995708466
579.8821752,2.07999992370605
579.8978002,2.23000001907349
579.9134252,2.39000010490417
579.9290502,2.54999995231628
579.9446752,2.71000003814697
579.9603002,2.86999988555908
579.9759252,3.02999997138977
579.9915502,3.1800000667572
580.0071752,3.33999991416931
580.0228002,3.49000000953674
580.0384252,3.64000010490417
580.0540502,3.78999996185303
580.0696752,3.94000005722046
580.0853002,4.07999992370605
580.1009252,4.21999979019165
580.1165502,4.3600001335144
580.1321752,4.48999977111816
580.1478002,4.61999988555908
580.1634252,4.75
580.1790502,4.86999988555908
580.1946752,4.98000001907349
580.2103002,5.07000017166138
580.2259252,5.15999984741211
580.2415502,5.23999977111816
580.2571752,5.30000019073486
580.2728002,5.3600001335144
580.2884252,5.40999984741211
580.3040502,5.44999980926514
580.3196752,5.48999977111816
580.3353002,5.53000020980835
580.3509252,5.55999994277954
580.3665502,5.59000015258789
580.3821752,5.6100001335144
580.3978002,5.61999988555908
580.4134252,5.63000011444092
580.4290502,5.6399998664856
580.4446752,5.6399998664856
580.4603002,5.6399998664856
580.4759252,5.65000009536743
580.4915502,5.67000007629395
580.5071752,5.69999980926514
580.5228002,5.73000001907349
580.5384252,5.78000020980835
580.5540502,5.82999992370605
580.5696752,5.88000011444092
580.5853002,5.92999982833862
580.6009252,5.98999977111816
580.6165502,6.03999996185303
580.6321752,6.09000015258789
580.6478002,6.1399998664856
580.6634252,6.19000005722046
580.6790502,6.23999977111816
580.6946752,6.28000020980835
580.7103002,6.32999992370605
580.7259252,6.3600001335144
580.7415502,6.40000009536743
580.7571752,6.42000007629395
580.7728002,6.44999980926514
580.7884252,6.46000003814697
580.8040502,6.48000001907349
580.8196752,6.48999977111816
580.8353002,6.5
580.8509252,6.5
580.8665502,6.51000022888184
580.8821752,6.51000022888184
580.8978002,6.51000022888184
580.9134252,6.51999998092651
580.9290502,6.51999998092651
580.9446752,6.51999998092651
580.9603002,6.53000020980835
580.9759252,6.53999996185303
580.9915502,6.53999996185303
581.0071752,6.55000019073486
581.0228002,6.57000017166138
581.0384252,6.57999992370605
581.0540502,6.59000015258789
581.0696752,6.6100001335144
581.0853002,6.61999988555908
581.1009252,6.6399998664856
581.1165502,6.65999984741211
581.1321752,6.67000007629395
581.1478002,6.69000005722046
581.1634252,6.71000003814697
581.1790502,6.73000001907349
581.1946752,6.75
581.2103002,6.76999998092651
581.2259252,6.78999996185303
581.2415502,6.80999994277954
581.2571752,6.82000017166138
581.2728002,6.84000015258789
581.2884252,6.8600001335144
581.3040502,6.88000011444092
581.3196752,6.90000009536743
581.3353002,6.92000007629395
581.3509252,6.94999980926514
581.3665502,6.98000001907349
581.3821752,7.0
581.3978002,7.03000020980835
581.4134252,7.05000019073486
581.4290502,7.07000017166138
581.4446752,7.07999992370605
581.4603002,7.07999992370605
581.4759252,7.09000015258789
581.4915502,7.09000015258789
581.5071752,7.07999992370605
581.5228002,7.07999992370605
581.5384252,7.07999992370605
581.5540502,7.07000017166138
581.5696752,7.05999994277954
581.5853002,7.05000019073486
581.6009252,7.03999996185303
581.6165502,7.03000020980835
581.6321752,7.01999998092651
581.6478002,7.0
581.6634252,6.98999977111816
581.6790502,6.96999979019165
581.6946752,6.94999980926514
581.7103002,6.94000005722046
581.7259252,6.92000007629395
581.7415502,6.90999984741211
581.7571752,6.8899998664856
581.7728002,6.88000011444092
581.7884252,6.86999988555908
581.8040502,6.8600001335144
581.8196752,6.84999990463257
581.8353002,6.84000015258789
581.8509252,6.82999992370605
581.8665502,6.82999992370605
581.8821752,6.82000017166138
581.8978002,6.82000017166138
581.9134252,6.80999994277954
581.9290502,6.80999994277954
581.9446752,6.80999994277954
581.9603002,6.80999994277954
581.9759252,6.80999994277954
581.9915502,6.80999994277954
582.0071752,6.82000017166138
582.0228002,6.82000017166138
582.0384252,6.82999992370605
582.0540502,6.82999992370605
582.0696752,6.84000015258789
582.0853002,6.84000015258789
582.1009252,6.84999990463257
582.1165502,6.84999990463257
582.1321752,6.84999990463257
582.1478002,6.8600001335144
582.1634252,6.8600001335144
582.1790502,6.8600001335144
582.1946752,6.8600001335144
582.2103002,6.8600001335144
582.2259252,6.8600001335144
582.2415502,6.84999990463257
582.2571752,6.84000015258789
582.2728002,6.82999992370605
582.2884252,6.82000017166138
582.3040502,6.80000019073486
582.3196752,6.78000020980835
582.3353002,6.76999998092651
582.3509252,6.76000022888184
582.3665502,6.73999977111816
582.3821752,6.73000001907349
582.3978002,6.71999979019165
582.4134252,6.71000003814697
582.4290502,6.69999980926514
582.4446752,6.69000005722046
582.4603002,6.67999982833862
582.4759252,6.67000007629395
582.4915502,6.67000007629395
582.5071752,6.65999984741211
582.5228002,6.65999984741211
582.5384252,6.67000007629395
582.5540502,6.67999982833862
582.5696752,6.69000005722046
582.5853002,6.69999980926514
582.6009252,6.71999979019165
582.6165502,6.73000001907349
582.6321752,6.75
582.6478002,6.76000022888184
582.6634252,6.76999998092651
582.6790502,6.78000020980835
582.6946752,6.78000020980835
582.7103002,6.78000020980835
582.7259252,6.78999996185303
582.7415502,6.78999996185303
582.7571752,6.80000019073486
582.7728002,6.80999994277954
582.7884252,6.82999992370605
582.8040502,6.84000015258789
582.8196752,6.8600001335144
582.8353002,6.88000011444092
582.8509252,6.90000009536743
582.8665502,6.90999984741211
582.8821752,6.92999982833862
582.8978002,6.94999980926514
582.9134252,6.96999979019165
582.9290502,6.98999977111816
582.9446752,7.01000022888184
582.9603002,7.03999996185303
582.9759252,7.07999992370605
582.9915502,7.11999988555908
583.0071752,7.15999984741211
583.0228002,7.19999980926514
583.0384252,7.23999977111816
583.0540502,7.28000020980835
583.0696752,7.32000017166138
583.0853002,7.3600001335144
583.1009252,7.40000009536743
583.1165502,7.44999980926514
583.1321752,7.48999977111816
583.1478002,7.53000020980835
583.1634252,7.57999992370605
583.1790502,7.61999988555908
583.1946752,7.67000007629395
583.2103002,7.71000003814697
583.2259252,7.76000022888184
583.2415502,7.80000019073486
583.2571752,7.84000015258789
583.2728002,7.8899998664856
583.2884252,7.92999982833862
583.3040502,7.98000001907349
583.3196752,8.02999973297119
583.3353002,8.09000015258789
583.3509252,8.14999961853027
583.3665502,8.21000003814697
583.3821752,8.27000045776367
583.3978002,8.34000015258789
583.4134252,8.40999984741211
583.4290502,8.47999954223633
583.4446752,8.55000019073486
583.4603002,8.61999988555908
583.4759252,8.68000030517578
583.4915502,8.72999954223633
583.5071752,8.78999996185303
583.5228002,8.82999992370605
583.5384252,8.86999988555908
583.5540502,8.90999984741211
583.5696752,8.94999980926514
583.5853002,8.98999977111816
583.6009252,9.02999973297119
583.6165502,9.06999969482422
583.6321752,9.11999988555908
583.6478002,9.17000007629395
583.6634252,9.22000026702881
583.6790502,9.27000045776367
583.6946752,9.32999992370605
583.7103002,9.39000034332275
583.7259252,9.4399995803833
583.7415502,9.5
583.7571752,9.5600004196167
583.7728002,9.61999988555908
583.7884252,9.67000007629395
583.8040502,9.72999954223633
583.8196752,9.78999996185303
583.8353002,9.84000015258789
583.8509252,9.89999961853027
583.8665502,9.96000003814697
583.8821752,10.0100002288818
583.8978002,10.0699996948242
583.9134252,10.1199998855591
583.9290502,10.1700000762939
583.9446752,10.2200002670288
583.9603002,10.2700004577637
583.9759252,10.3199996948242
