Time(s),Value(%)
420.0047644,114.440002441406
420.0203894,106.51000213623
420.0360144,95.9300003051758
420.0516394,84.1999969482422
420.0672644,71.75
420.0828894,58.5200004577637
420.0985144,44.5900001525879
420.1141394,30.5400009155273
420.1297644,17.3799991607666
420.1453894,6.11999988555908
420.1610144,-2.70000004768372
420.1766394,-9.35000038146973
420.1922644,-14.6000003814697
420.2078894,-19.3999996185303
420.2235144,-24.5300006866455
420.2391394,-30.0400009155273
420.2547644,-35.189998626709
420.2703894,-38.9700012207031
420.2860144,-40.810001373291
420.3016394,-40.8300018310547
420.3172644,-39.5999984741211
420.3328894,-37.810001373291
420.3485144,-35.9700012207031
420.3641394,-34.3800010681152
420.3797644,-33.1500015258789
420.3953894,-32.1500015258789
420.4110144,-30.8099994659424
420.4266394,-27.9200000762939
420.4422644,-21.7700004577637
420.4578894,-11.1700000762939
420.4735144,3.89000010490417
420.4891394,22.4599990844727
420.5047644,43.0299987792969
420.5203894,64.0400009155273
420.5360144,84.1800003051758
420.5516394,102.379997253418
420.5672644,117.319999694824
420.5828894,126.800003051758
420.5985144,127.980003356934
420.6141394,119.050003051758
420.6297644,100.459999084473
420.6453894,74.75
420.6610144,45.2799987792969
420.6766394,14.9399995803833
420.6922644,-14.2799997329712
420.7078894,-40.9599990844727
420.7235144,-64.1500015258789
420.7391394,-83.4000015258789
420.7547644,-98.7600021362305
420.7703894,-110.51000213623
420.7860144,-119.050003051758
420.8016394,-124.790000915527
420.8172644,-128.220001220703
420.8328894,-129.779998779297
420.8485144,-129.839996337891
420.8641394,-128.770004272461
420.8797644,-126.98999786377
420.8953894,-124.809997558594
420.9110144,-122.48999786377
420.9266394,-120.23999786377
420.9422644,-117.98999786377
420.9578894,-115.199996948242
420.9735144,-111.040000915527
420.9891394,-104.839996337891
421.0047644,-96.3300018310547
421.0203894,-85.8300018310547
421.0360144,-73.7600021362305
421.0516394,-59.7999992370605
421.0672644,-42.3199996948242
421.0828894,-19.4500007629395
421.0985144,9.19999980926514
421.1141394,41.5900001525879
421.1297644,73.6900024414063
421.1453894,101.040000915527
421.1610144,120.709999084473
421.1766394,132.429992675781
421.1922644,137.779998779297
421.2078894,138.520004272461
421.2235144,135.520004272461
421.2391394,128.899993896484
421.2547644,118.690002441406
421.2703894,105.269996643066
421.2860144,89.5299987792969
421.3016394,72.8899993896484
421.3172644,57.060001373291
421.3328894,43.6300010681152
421.3485144,33.5999984741211
421.3641394,27.2099990844727
421.3797644,24.0200004577637
421.3953894,23.1100006103516
421.4110144,22.9699993133545
421.4266394,21.4599990844727
421.4422644,16.8700008392334
421.4578894,8.93000030517578
421.4735144,-1.03999996185303
421.4891394,-11.0900001525879
421.5047644,-19.5499992370605
421.5203894,-25.6499996185303
421.5360144,-29.6499996185303
421.5516394,-32.6100006103516
421.5672644,-35.8600006103516
421.5828894,-39.9599990844727
421.5985144,-44.3199996948242
421.6141394,-47.6800003051758
421.6297644,-48.7400016784668
421.6453894,-46.3800010681152
421.6610144,-39.4099998474121
421.6766394,-26.2399997711182
421.6922644,-5.96000003814697
421.7078894,20.0799999237061
421.7235144,47.9599990844727
421.7391394,72.629997253418
421.7547644,90.0299987792969
421.7703894,98.6699981689453
421.7860144,99.8099975585938
421.8016394,96.2099990844727
421.8172644,90.6100006103516
421.8328894,84.4800033569336
421.8485144,77.7900009155273
421.8641394,69.629997253418
421.8797644,59.0900001525879
421.8953894,46.2000007629395
421.9110144,32.0699996948242
421.9266394,18.4400005340576
421.9422644,6.94000005722046
421.9578894,-1.48000001907349
421.9735144,-7.17999982833862
421.9891394,-11.5600004196167
422.0047644,-16.0
422.0203894,-20.9599990844727
422.0360144,-26.0699996948242
422.0516394,-30.8400001525879
422.0672644,-35.2099990844727
422.0828894,-39.4300003051758
422.0985144,-43.6500015258789
422.1141394,-47.6100006103516
422.1297644,-50.9700012207031
422.1453894,-53.5699996948242
422.1610144,-55.5200004577637
422.1766394,-57.0200004577637
422.1922644,-58.2599983215332
422.2078894,-59.060001373291
422.2235144,-58.7400016784668
422.2391394,-56.3600006103516
422.2547644,-51.0800018310547
422.2703894,-42.2700004577637
422.2860144,-29.6499996185303
422.3016394,-13.6099996566772
422.3172644,4.07999992370605
422.3328894,21.0799999237061
422.3485144,35.939998626709
422.3641394,48.4199981689453
422.3797644,58.3600006103516
422.3953894,65.2799987792969
422.4110144,68.6800003051758
422.4266394,68.3099975585938
422.4422644,64.1800003051758
422.4578894,56.5999984741211
422.4735144,46.1699981689453
422.4891394,33.9199981689453
422.5047644,21.1399993896484
422.5203894,8.96000003814697
422.5360144,-1.76999998092651
422.5516394,-10.5
422.5672644,-16.8999996185303
422.5828894,-21.1399993896484
422.5985144,-23.9799995422363
422.6141394,-26.4200000762939
422.6297644,-29.25
422.6453894,-32.7700004577637
422.6610144,-36.7599983215332
422.6766394,-40.75
422.6922644,-44.1399993896484
422.7078894,-46.5800018310547
422.7235144,-48.1399993896484
422.7391394,-49.1399993896484
422.7547644,-49.9799995422363
422.7703894,-50.9099998474121
422.7860144,-52.0400009155273
422.8016394,-53.2400016784668
422.8172644,-54.1300010681152
422.8328894,-53.8800010681152
422.8485144,-51.1100006103516
422.8641394,-44.3400001525879
422.8797644,-32.5999984741211
422.8953894,-16.1299991607666
422.9110144,3.50999999046326
422.9266394,24.0200004577637
422.9422644,43.1800003051758
422.9578894,59.3199996948242
422.9735144,71.2799987792969
422.9891394,78.4599990844727
423.0047644,80.9899978637695
423.0203894,79.8199996948242
423.0360144,76.8199996948242
423.0516394,75.25
423.0672644,78.8600006103516
423.0828894,88.4100036621094
423.0985144,99.1500015258789
423.1141394,103.360000610352
423.1297644,95.4700012207031
423.1453894,75.1500015258789
423.1610144,46.9099998474121
423.1766394,17.4500007629395
423.1922644,-7.21000003814697
423.2078894,-23.7700004577637
423.2235144,-32.3499984741211
423.2391394,-35.9500007629395
423.2547644,-38.6699981689453
423.2703894,-43.7799987792969
423.2860144,-52.8300018310547
423.3016394,-65.8000030517578
423.3172644,-81.4800033569336
423.3328894,-97.8300018310547
423.3485144,-112.720001220703
423.3641394,-124.639999389648
423.3797644,-132.899993896484
423.3953894,-137.259994506836
423.4110144,-137.259994506836
423.4266394,-132.360000610352
423.4422644,-122.76000213623
423.4578894,-109.180000305176
423.4735144,-92.2300033569336
423.4891394,-72.5800018310547
423.5047644,-51.5800018310547
423.5203894,-30.9799995422363
423.5360144,-12.3400001525879
423.5516394,3.0699999332428
423.5672644,13.9399995803833
423.5828894,19.3899993896484
423.5985144,20.0100002288818
423.6141394,18.1299991607666
423.6297644,16.6200008392334
423.6453894,17.2299995422363
423.6610144,19.8199996948242
423.6766394,22.9300003051758
423.6922644,24.9099998474121
423.7078894,24.8799991607666
423.7235144,23.0599994659424
423.7391394,20.5799999237061
423.7547644,18.8099994659424
423.7703894,18.6900005340576
423.7860144,20.4400005340576
423.8016394,23.6100006103516
423.8172644,27.25
423.8328894,30.1700000762939
423.8485144,31.3899993896484
423.8641394,30.4500007629395
423.8797644,27.7199993133545
423.8953894,24.2299995422363
423.9110144,21.2600002288818
423.9266394,19.9500007629395
423.9422644,21.0599994659424
423.9578894,24.6499996185303
423.9735144,29.9400005340576
423.9891394,35.8400001525879
424.0047644,41.5999984741211
424.0203894,46.7999992370605
424.0360144,51.0999984741211
424.0516394,54.4599990844727
424.0672644,57.4199981689453
424.0828894,60.7799987792969
424.0985144,64.9000015258789
424.1141394,69.3300018310547
424.1297644,73.3300018310547
424.1453894,76.4800033569336
424.1610144,78.5899963378906
424.1766394,78.9599990844727
424.1922644,76.4300003051758
424.2078894,70.3499984741211
424.2235144,61.6300010681152
424.2391394,52.4300003051758
424.2547644,44.7700004577637
424.2703894,39.1500015258789
424.2860144,34.2400016784668
424.3016394,27.9899997711182
424.3172644,19.3099994659424
424.3328894,9.14999961853027
424.3485144,-0.129999995231628
424.3641394,-6.84000015258789
424.3797644,-11.1300001144409
424.3953894,-14.5799999237061
424.4110144,-18.7099990844727
424.4266394,-24.2199993133545
424.4422644,-31.4400005340576
424.4578894,-40.9000015258789
424.4735144,-52.560001373291
424.4891394,-64.4100036621094
424.5047644,-72.870002746582
424.5203894,-75.4800033569336
424.5360144,-72.9300003051758
424.5516394,-68.6999969482422
424.5672644,-67.0400009155273
424.5828894,-70.6100006103516
424.5985144,-78.9499969482422
424.6141394,-88.129997253418
424.6297644,-92.4000015258789
424.6453894,-87.3899993896484
424.6610144,-72.4499969482422
424.6766394,-50.5800018310547
424.6922644,-26.4799995422363
424.7078894,-4.38000011444092
424.7235144,13.6000003814697
424.7391394,27.8999996185303
424.7547644,40.5
424.7703894,52.8800010681152
424.7860144,64.7300033569336
424.8016394,74.129997253418
424.8172644,78.9199981689453
424.8328894,78.129997253418
424.8485144,72.5400009155273
424.8641394,64.1100006103516
424.8797644,55.0699996948242
424.8953894,46.9900016784668
424.9110144,40.439998626709
424.9266394,35.1300010681152
424.9422644,30.3999996185303
424.9578894,25.7000007629395
424.9735144,20.9300003051758
424.9891394,16.3899993896484
425.0047644,12.4300003051758
425.0203894,8.88000011444092
425.0360144,5.09999990463257
425.0516394,0.469999998807907
425.0672644,-4.88000011444092
425.0828894,-10.0799999237061
425.0985144,-14.0299997329712
425.1141394,-16.2399997711182
425.1297644,-17.0400009155273
425.1453894,-17.3600006103516
425.1610144,-18.1299991607666
425.1766394,-19.9400005340576
425.1922644,-22.9699993133545
425.2078894,-27.25
425.2235144,-32.5900001525879
425.2391394,-38.0999984741211
425.2547644,-42.0800018310547
425.2703894,-42.8499984741211
425.2860144,-39.7999992370605
425.3016394,-33.9199981689453
425.3172644,-27.2600002288818
425.3328894,-21.8700008392334
425.3485144,-18.6399993896484
425.3641394,-16.9599990844727
425.3797644,-15.4700002670288
425.3953894,-13.0100002288818
425.4110144,-8.89000034332275
425.4266394,-3.03999996185303
425.4422644,3.6800000667572
425.4578894,9.25
425.4735144,11.3199996948242
425.4891394,8.71000003814697
425.5047644,1.88999998569489
425.5203894,-7.78000020980835
425.5360144,-19.3600006103516
425.5516394,-32.9300003051758
425.5672644,-48.9599990844727
425.5828894,-66.9599990844727
425.5985144,-84.5699996948242
425.6141394,-98.870002746582
425.6297644,-108.440002441406
425.6453894,-113.160003662109
425.6610144,-112.790000915527
425.6766394,-107.419998168945
425.6922644,-98.7699966430664
425.7078894,-89.9899978637695
425.7235144,-84.0
425.7391394,-81.9700012207031
425.7547644,-82.7799987792969
425.7703894,-83.5100021362305
425.7860144,-81.0899963378906
425.8016394,-73.9000015258789
425.8172644,-62.2099990844727
425.8328894,-47.7099990844727
425.8485144,-32.5499992370605
425.8641394,-18.4799995422363
425.8797644,-6.40999984741211
425.8953894,3.76999998092651
425.9110144,13.039999961853
425.9266394,22.6299991607666
425.9422644,33.3199996948242
425.9578894,44.9199981689453
425.9735144,56.3600006103516
425.9891394,66.25
426.0047644,73.6399993896484
426.0203894,78.4499969482422
426.0360144,81.379997253418
426.0516394,83.5599975585938
426.0672644,85.9100036621094
426.0828894,88.7699966430664
426.0985144,91.9800033569336
426.1141394,95.1699981689453
426.1297644,97.8399963378906
426.1453894,99.4499969482422
426.1610144,99.5500030517578
426.1766394,97.9599990844727
426.1922644,94.8199996948242
426.2078894,90.5599975585938
426.2235144,85.6399993896484
426.2391394,80.4899978637695
426.2547644,75.3499984741211
426.2703894,70.1999969482422
426.2860144,64.8399963378906
426.3016394,59.2599983215332
426.3172644,53.9300003051758
426.3328894,49.5200004577637
426.3485144,46.4500007629395
426.3641394,44.9300003051758
426.3797644,45.2099990844727
426.3953894,47.3800010681152
426.4110144,50.8800010681152
426.4266394,54.3899993896484
426.4422644,56.6699981689453
426.4578894,57.5699996948242
426.4735144,58.0900001525879
426.4891394,59.7799987792969
426.5047644,63.5999984741211
426.5203894,69.2399978637695
426.5360144,75.3000030517578
426.5516394,80.0599975585938
426.5672644,82.120002746582
426.5828894,80.75
426.5985144,75.7399978637695
426.6141394,67.0199966430664
426.6297644,54.6199989318848
426.6453894,39.2200012207031
426.6610144,22.3799991607666
426.6766394,6.13000011444092
426.6922644,-7.86999988555908
426.7078894,-18.8899993896484
426.7235144,-27.0900001525879
426.7391394,-33.3199996948242
426.7547644,-38.5299987792969
426.7703894,-43.439998626709
426.7860144,-48.4300003051758
426.8016394,-53.7799987792969
426.8172644,-59.6599998474121
426.8328894,-65.9300003051758
426.8485144,-72.0899963378906
426.8641394,-77.620002746582
426.8797644,-82.4000015258789
426.8953894,-86.5699996948242
426.9110144,-90.1900024414063
426.9266394,-93.1999969482422
426.9422644,-95.2799987792969
426.9578894,-95.7099990844727
426.9735144,-93.620002746582
426.9891394,-88.6100006103516
427.0047644,-81.1900024414063
427.0203894,-72.6900024414063
427.0360144,-64.4899978637695
427.0516394,-57.439998626709
427.0672644,-51.7900009155273
427.0828894,-47.3800010681152
427.0985144,-43.8199996948242
427.1141394,-40.4599990844727
427.1297644,-36.5499992370605
427.1453894,-31.75
427.1610144,-26.5100002288818
427.1766394,-21.6299991607666
427.1922644,-17.5499992370605
427.2078894,-13.9799995422363
427.2235144,-10.210000038147
427.2391394,-5.67000007629395
427.2547644,-0.490000009536743
427.2703894,4.53000020980835
427.2860144,8.39000034332275
427.3016394,10.4799995422363
427.3172644,10.9200000762939
427.3328894,10.3000001907349
427.3485144,9.30000019073486
427.3641394,8.39999961853027
427.3797644,7.94000005722046
427.3953894,8.27000045776367
427.4110144,9.65999984741211
427.4266394,12.0299997329712
427.4422644,14.5799999237061
427.4578894,15.8400001525879
427.4735144,14.3599996566772
427.4891394,9.27999973297119
427.5047644,0.439999997615814
427.5203894,-11.3199996948242
427.5360144,-24.1299991607666
427.5516394,-35.6100006103516
427.5672644,-43.9199981689453
427.5828894,-48.75
427.5985144,-51.3600006103516
427.6141394,-53.2599983215332
427.6297644,-54.9300003051758
427.6453894,-55.5299987792969
427.6610144,-53.7400016784668
427.6766394,-48.810001373291
427.6922644,-41.189998626709
427.7078894,-32.2299995422363
427.7235144,-23.6399993896484
427.7391394,-17.0900001525879
427.7547644,-13.6999998092651
427.7703894,-13.8199996948242
427.7860144,-16.8199996948242
427.8016394,-21.4099998474121
427.8172644,-26.0300006866455
427.8328894,-29.2600002288818
427.8485144,-30.25
427.8641394,-29.0
427.8797644,-26.3700008392334
427.8953894,-23.6100006103516
427.9110144,-21.8400001525879
427.9266394,-21.3500003814697
427.9422644,-21.4599990844727
427.9578894,-20.9400005340576
427.9735144,-18.9500007629395
427.9891394,-15.4099998474121
428.0047644,-10.8599996566772
428.0203894,-5.96000003814697
428.0360144,-1.26999998092651
428.0516394,3.02999997138977
428.0672644,7.3600001335144
428.0828894,12.789999961853
428.0985144,20.5799999237061
428.1141394,31.1499996185303
428.1297644,43.4599990844727
428.1453894,55.2999992370605
428.1610144,64.4100036621094
428.1766394,69.6500015258789
428.1922644,71.1800003051758
428.2078894,69.9700012207031
428.2235144,67.4400024414063
428.2391394,65.0100021362305
428.2547644,63.5699996948242
428.2703894,63.2200012207031
428.2860144,63.4099998474121
428.3016394,63.4000015258789
428.3172644,62.7599983215332
428.3328894,61.5900001525879
428.3485144,60.4199981689453
428.3641394,60.0
428.3797644,60.7799987792969
428.3953894,62.5200004577637
428.4110144,64.25
428.4266394,64.9300003051758
428.4422644,63.939998626709
428.4578894,61.2999992370605
428.4735144,57.5099983215332
428.4891394,53.1599998474121
428.5047644,48.5499992370605
428.5203894,43.689998626709
428.5360144,38.5299987792969
428.5516394,33.1599998474121
428.5672644,27.7999992370605
428.5828894,22.5599994659424
428.5985144,17.4300003051758
428.6141394,12.5
428.6297644,8.03999996185303
428.6453894,4.42999982833862
428.6610144,2.08999991416931
428.6766394,1.35000002384186
428.6922644,2.08999991416931
428.7078894,3.58999991416931
428.7235144,4.69999980926514
428.7391394,4.38000011444092
428.7547644,2.09999990463257
428.7703894,-1.94000005722046
428.7860144,-6.88000011444092
428.8016394,-11.6199998855591
428.8172644,-15.3299999237061
428.8328894,-17.8099994659424
428.8485144,-19.3799991607666
428.8641394,-20.5900001525879
428.8797644,-21.9699993133545
428.8953894,-23.7999992370605
428.9110144,-25.9899997711182
428.9266394,-28.1800003051758
428.9422644,-29.9200000762939
428.9578894,-30.9300003051758
428.9735144,-31.2600002288818
428.9891394,-31.0699996948242
429.0047644,-30.6100006103516
429.0203894,-30.2000007629395
429.0360144,-30.0599994659424
429.0516394,-30.2600002288818
429.0672644,-30.8500003814697
429.0828894,-31.8799991607666
429.0985144,-33.3400001525879
429.1141394,-35.0400009155273
429.1297644,-36.7700004577637
429.1453894,-38.3600006103516
429.1610144,-39.5900001525879
429.1766394,-40.310001373291
429.1922644,-40.439998626709
429.2078894,-39.9199981689453
429.2235144,-38.5
429.2391394,-35.689998626709
429.2547644,-30.9300003051758
429.2703894,-24.0799999237061
429.2860144,-15.9399995803833
429.3016394,-8.07999992370605
429.3172644,-2.10999989509583
429.3328894,1.12999999523163
429.3485144,1.9099999666214
429.3641394,1.28999996185303
429.3797644,0.629999995231628
429.3953894,1.03999996185303
429.4110144,3.16000008583069
429.4266394,6.92000007629395
429.4422644,11.5299997329712
429.4578894,15.9399995803833
429.4735144,19.3400001525879
429.4891394,21.4899997711182
429.5047644,22.5499992370605
429.5203894,22.6700000762939
429.5360144,21.5699996948242
429.5516394,18.6800003051758
429.5672644,13.6300001144409
429.5828894,6.61999988555908
429.5985144,-1.58000004291534
429.6141394,-10.039999961853
429.6297644,-17.9799995422363
429.6453894,-25.0
429.6610144,-31.0200004577637
429.6766394,-36.1300010681152
429.6922644,-40.4700012207031
429.7078894,-44.1199989318848
429.7235144,-47.0400009155273
429.7391394,-49.1800003051758
429.7547644,-50.6300010681152
429.7703894,-51.5999984741211
429.7860144,-51.9000015258789
429.8016394,-50.7599983215332
429.8172644,-47.2900009155273
429.8328894,-41.2200012207031
429.8485144,-33.3499984741211
429.8641394,-25.1599998474121
429.8797644,-18.1200008392334
429.8953894,-12.8400001525879
429.9110144,-8.9399995803833
429.9266394,-5.48000001907349
429.9422644,-1.62999999523163
429.9578894,3.05999994277954
429.9735144,8.60999965667725
429.9891394,14.6800003051758
430.0047644,20.75
430.0203894,26.2000007629395
430.0360144,30.4699993133545
430.0516394,33.2999992370605
430.0672644,34.7999992370605
430.0828894,35.2599983215332
430.0985144,34.9799995422363
430.1141394,34.1599998474121
430.1297644,32.8600006103516
430.1453894,31.0200004577637
430.1610144,28.6399993896484
430.1766394,25.8099994659424
430.1922644,22.6599998474121
430.2078894,19.2199993133545
430.2235144,15.5500001907349
430.2391394,11.8100004196167
430.2547644,8.22000026702881
430.2703894,4.92999982833862
430.2860144,2.00999999046326
430.3016394,-0.46000000834465
430.3172644,-2.33999991416931
430.3328894,-3.49000000953674
430.3485144,-3.73000001907349
430.3641394,-2.65000009536743
430.3797644,0.230000004172325
430.3953894,4.90000009536743
430.4110144,10.5100002288818
430.4266394,15.8999996185303
430.4422644,20.2099990844727
430.4578894,23.3700008392334
430.4735144,25.8799991607666
430.4891394,28.3899993896484
430.5047644,31.2999992370605
430.5203894,34.5900001525879
430.5360144,37.7599983215332
430.5516394,39.9300003051758
430.5672644,40.3499984741211
430.5828894,38.7900009155273
430.5985144,35.5900001525879
430.6141394,31.4300003051758
430.6297644,27.0400009155273
430.6453894,22.8299999237061
430.6610144,18.8400001525879
430.6766394,14.8699998855591
430.6922644,10.6199998855591
430.7078894,5.8899998664856
430.7235144,0.639999985694885
430.7391394,-4.86999988555908
