Time(s),Value(%)
1152.0047644,-34.5699996948242
1152.0203894,-20.8299999237061
1152.0360144,-0.819999992847443
1152.0516394,23.9200000762939
1152.0672644,50.2200012207031
1152.0828894,74.0100021362305
1152.0985144,91.5699996948242
1152.1141394,100.779998779297
1152.1297644,101.830001831055
1152.1453894,96.6699981689453
1152.1610144,87.8399963378906
1152.1766394,77.379997253418
1152.1922644,66.25
1152.2078894,54.6100006103516
1152.2235144,42.3899993896484
1152.2391394,29.7099990844727
1152.2547644,17.0200004577637
1152.2703894,4.98999977111816
1152.2860144,-5.61999988555908
1152.3016394,-14.2700004577637
1152.3172644,-20.8799991607666
1152.3328894,-25.7399997711182
1152.3485144,-29.3500003814697
1152.3641394,-32.310001373291
1152.3797644,-35.2000007629395
1152.3953894,-38.310001373291
1152.4110144,-41.6800003051758
1152.4266394,-45.2599983215332
1152.4422644,-48.8300018310547
1152.4578894,-51.9799995422363
1152.4735144,-54.2900009155273
1152.4891394,-55.5299987792969
1152.5047644,-55.7799987792969
1152.5203894,-55.439998626709
1152.5360144,-54.8899993896484
1152.5516394,-54.2799987792969
1152.5672644,-53.439998626709
1152.5828894,-51.8499984741211
1152.5985144,-48.4300003051758
1152.6141394,-41.3400001525879
1152.6297644,-28.5499992370605
1152.6453894,-8.98999977111816
1152.6610144,16.3400001525879
1152.6766394,44.4599990844727
1152.6922644,70.9400024414063
1152.7078894,91.2600021362305
1152.7235144,102.599998474121
1152.7391394,104.830001831055
1152.7547644,100.01000213623
1152.7703894,91.0299987792969
1152.7860144,80.2399978637695
1152.8016394,68.8600006103516
1152.8172644,57.0299987792969
1152.8328894,44.4000015258789
1152.8485144,30.8999996185303
1152.8641394,17.0100002288818
1152.8797644,3.66000008583069
1152.8953894,-8.17000007629395
1152.9110144,-17.7900009155273
1152.9266394,-24.9500007629395
1152.9422644,-29.8899993896484
1152.9578894,-33.2000007629395
1152.9735144,-35.6500015258789
1152.9891394,-38.0299987792969
1153.0047644,-40.8199996948242
1153.0203894,-44.0200004577637
1153.0360144,-47.2400016784668
1153.0516394,-50.1699981689453
1153.0672644,-52.7999992370605
1153.0828894,-55.1800003051758
1153.0985144,-57.1500015258789
1153.1141394,-58.3899993896484
1153.1297644,-58.6599998474121
1153.1453894,-57.939998626709
1153.1610144,-56.5499992370605
1153.1766394,-54.9700012207031
1153.1922644,-53.439998626709
1153.2078894,-51.4500007629395
1153.2235144,-47.6500015258789
1153.2391394,-39.9099998474121
1153.2547644,-26.0799999237061
1153.2703894,-5.17000007629395
1153.2860144,21.5300006866455
1153.3016394,50.5699996948242
1153.3172644,77.4700012207031
1153.3328894,98.3099975585938
1153.3485144,110.73999786377
1153.3641394,114.449996948242
1153.3797644,110.970001220703
1153.3953894,102.75
1153.4110144,92.0599975585938
1153.4266394,80.2300033569336
1153.4422644,67.5699996948242
1153.4578894,53.9700012207031
1153.4735144,39.5299987792969
1153.4891394,24.9500007629395
1153.5047644,11.2700004577637
1153.5203894,-0.579999983310699
1153.5360144,-10.0500001907349
1153.5516394,-17.1200008392334
1153.5672644,-22.2600002288818
1153.5828894,-26.2199993133545
1153.5985144,-29.6900005340576
1153.6141394,-33.1599998474121
1153.6297644,-36.8699989318848
1153.6453894,-40.7299995422363
1153.6610144,-44.5299987792969
1153.6766394,-48.0800018310547
1153.6922644,-51.2700004577637
1153.7078894,-53.939998626709
1153.7235144,-55.9199981689453
1153.7391394,-57.0999984741211
1153.7547644,-57.4799995422363
1153.7703894,-57.189998626709
1153.7860144,-56.3800010681152
1153.8016394,-55.2599983215332
1153.8172644,-54.0900001525879
1153.8328894,-52.75
1153.8485144,-50.4799995422363
1153.8641394,-45.8300018310547
1153.8797644,-36.8899993896484
1153.8953894,-21.7999992370605
1153.9110144,0.300000011920929
1153.9266394,28.4200000762939
1153.9422644,59.060001373291
1153.9578894,86.9000015258789
1153.9735144,107.029998779297
1153.9891394,117.059997558594
1154.0047644,117.580001831055
1154.0203894,111.23999786377
1154.0360144,101.180000305176
1154.0516394,89.7799987792969
1154.0672644,77.9400024414063
1154.0828894,65.5299987792969
1154.0985144,52.1599998474121
1154.1141394,37.939998626709
1154.1297644,23.5300006866455
1154.1453894,9.89999961853027
1154.1610144,-2.02999997138977
1154.1766394,-11.7700004577637
1154.1922644,-19.2800006866455
1154.2078894,-24.9200000762939
1154.2235144,-29.3299999237061
1154.2391394,-33.2400016784668
1154.2547644,-37.2000007629395
1154.2703894,-41.4500007629395
1154.2860144,-45.8600006103516
1154.3016394,-50.0999984741211
1154.3172644,-53.9599990844727
1154.3328894,-57.3300018310547
1154.3485144,-60.1500015258789
1154.3641394,-62.3600006103516
1154.3797644,-63.9000015258789
1154.3953894,-64.6900024414063
1154.4110144,-64.6800003051758
1154.4266394,-63.9300003051758
1154.4422644,-62.5
1154.4578894,-60.2999992370605
1154.4735144,-56.9099998474121
1154.4891394,-51.3199996948242
1154.5047644,-41.7200012207031
1154.5203894,-26.1100006103516
1154.5360144,-3.5
1154.5516394,24.8299999237061
1154.5672644,55.3600006103516
1154.5828894,83.1900024414063
1154.5985144,103.639999389648
1154.6141394,114.050003051758
1154.6297644,114.669998168945
1154.6453894,107.900001525879
1154.6610144,96.75
1154.6766394,83.5100021362305
1154.6922644,69.4300003051758
1154.7078894,55.0499992370605
1154.7235144,40.6100006103516
1154.7391394,26.5100002288818
1154.7547644,13.3199996948242
1154.7703894,1.71000003814697
1154.7860144,-7.67999982833862
1154.8016394,-14.5799999237061
1154.8172644,-19.0799999237061
1154.8328894,-21.7399997711182
1154.8485144,-23.3899993896484
1154.8641394,-24.8999996185303
1154.8797644,-26.8400001525879
1154.8953894,-29.4400005340576
1154.9110144,-32.7000007629395
1154.9266394,-36.3600006103516
1154.9422644,-40.0800018310547
1154.9578894,-43.5499992370605
1154.9735144,-46.4900016784668
1154.9891394,-48.7400016784668
1155.0047644,-50.2900009155273
1155.0203894,-51.2599983215332
1155.0360144,-51.7000007629395
1155.0516394,-51.6399993896484
1155.0672644,-51.1199989318848
1155.0828894,-50.1800003051758
1155.0985144,-48.4500007629395
1155.1141394,-44.7099990844727
1155.1297644,-36.7700004577637
1155.1453894,-22.2399997711182
1155.1610144,0.0500000007450581
1155.1766394,28.9599990844727
1155.1922644,61.0800018310547
1155.2078894,91.3899993896484
1155.2235144,114.669998168945
1155.2391394,127.589996337891
1155.2547644,130.0
1155.2703894,124.300003051758
1155.2860144,113.620002746582
1155.3016394,100.440002441406
1155.3172644,86.1999969482422
1155.3328894,71.4300003051758
1155.3485144,55.8899993896484
1155.3641394,39.1399993896484
1155.3797644,21.3999996185303
1155.3953894,3.74000000953674
1155.4110144,-12.4200000762939
1155.4266394,-25.9699993133545
1155.4422644,-36.4300003051758
1155.4578894,-44.0499992370605
1155.4735144,-49.4799995422363
1155.4891394,-53.4500007629395
1155.5047644,-56.5499992370605
1155.5203894,-59.25
1155.5360144,-61.8199996948242
1155.5516394,-64.25
1155.5672644,-66.4400024414063
1155.5828894,-68.4100036621094
1155.5985144,-70.370002746582
1155.6141394,-72.5199966430664
1155.6297644,-74.7200012207031
1155.6453894,-76.629997253418
1155.6610144,-77.8899993896484
1155.6766394,-78.2600021362305
1155.6922644,-77.7200012207031
1155.7078894,-76.5100021362305
1155.7235144,-74.8300018310547
1155.7391394,-72.2099990844727
1155.7547644,-67.1399993896484
1155.7703894,-57.2000007629395
1155.7860144,-39.9099998474121
1155.8016394,-14.2200002670288
1155.8172644,18.2199993133545
1155.8328894,53.2000007629395
1155.8485144,85.3199996948242
1155.8641394,109.860000610352
1155.8797644,124.01000213623
1155.8953894,127.580001831055
1155.9110144,122.699996948242
1155.9266394,112.449996948242
1155.9422644,99.4300003051758
1155.9578894,85.0
1155.9735144,69.5
1155.9891394,53.1199989318848
1156.0047644,36.3300018310547
1156.0203894,20.0400009155273
1156.0360144,5.42999982833862
1156.0516394,-6.40000009536743
1156.0672644,-14.8299999237061
1156.0828894,-20.0699996948242
1156.0985144,-23.1299991607666
1156.1141394,-25.3400001525879
1156.1297644,-27.75
1156.1453894,-30.8600006103516
1156.1610144,-34.7099990844727
1156.1766394,-38.939998626709
1156.1922644,-43.0400009155273
1156.2078894,-46.6500015258789
1156.2235144,-49.7099990844727
1156.2391394,-52.1699981689453
1156.2547644,-53.8899993896484
1156.2703894,-54.7400016784668
1156.2860144,-54.6100006103516
1156.3016394,-53.5
1156.3172644,-51.4900016784668
1156.3328894,-48.8600006103516
1156.3485144,-45.810001373291
1156.3641394,-41.6500015258789
1156.3797644,-34.189998626709
1156.3953894,-20.3199996948242
1156.4110144,2.19000005722046
1156.4266394,32.9000015258789
1156.4422644,68.1600036621094
1156.4578894,102.550003051758
1156.4735144,130.639999389648
1156.4891394,148.440002441406
1156.5047644,154.570007324219
1156.5203894,150.449996948242
1156.5360144,139.229995727539
1156.5516394,124.150001525879
1156.5672644,107.349998474121
1156.5828894,89.5299987792969
1156.5985144,70.4300003051758
1156.6141394,50.0
1156.6297644,29.1499996185303
1156.6453894,9.52999973297119
1156.6610144,-7.30999994277954
1156.6766394,-20.5599994659424
1156.6922644,-30.2299995422363
1156.7078894,-36.9900016784668
1156.7235144,-41.9000015258789
1156.7391394,-46.0499992370605
1156.7547644,-50.2999992370605
1156.7703894,-54.9700012207031
1156.7860144,-59.9300003051758
1156.8016394,-64.7900009155273
1156.8172644,-69.1699981689453
1156.8328894,-72.7900009155273
1156.8485144,-75.5699996948242
1156.8641394,-77.5699996948242
1156.8797644,-78.8399963378906
1156.8953894,-79.370002746582
1156.9110144,-79.1900024414063
1156.9266394,-78.3399963378906
1156.9422644,-76.9700012207031
1156.9578894,-75.2600021362305
1156.9735144,-72.9499969482422
1156.9891394,-68.5800018310547
1157.0047644,-59.5800018310547
1157.0203894,-43.1399993896484
1157.0360144,-17.7600002288818
1157.0516394,15.210000038147
1157.0672644,51.4000015258789
1157.0828894,84.8099975585938
1157.0985144,110.209999084473
1157.1141394,124.819999694824
1157.1297644,128.610000610352
1157.1453894,123.580001831055
1157.1610144,112.709999084473
1157.1766394,98.5899963378906
1157.1922644,82.7600021362305
1157.2078894,65.6500015258789
1157.2235144,47.3699989318848
1157.2391394,28.4699993133545
1157.2547644,10.1199998855591
1157.2703894,-6.21000003814697
1157.2860144,-19.3500003814697
1157.3016394,-28.8299999237061
1157.3172644,-34.9700012207031
1157.3328894,-38.6599998474121
1157.3485144,-41.060001373291
1157.3641394,-43.3499984741211
1157.3797644,-46.2900009155273
1157.3953894,-50.0999984741211
1157.4110144,-54.4799995422363
1157.4266394,-58.9099998474121
1157.4422644,-62.9900016784668
1157.4578894,-66.5999984741211
1157.4735144,-69.629997253418
1157.4891394,-71.7600021362305
1157.5047644,-72.6800003051758
1157.5203894,-72.3600006103516
1157.5360144,-71.0999984741211
1157.5516394,-69.25
1157.5672644,-67.0699996948242
1157.5828894,-64.4499969482422
1157.5985144,-60.4900016784668
1157.6141394,-53.1100006103516
1157.6297644,-39.5
1157.6453894,-17.4899997711182
1157.6610144,12.6999998092651
1157.6766394,47.7700004577637
1157.6922644,82.2399978637695
1157.7078894,110.529998779297
1157.7235144,128.779998779297
1157.7391394,135.740005493164
1157.7547644,132.759994506836
1157.7703894,122.809997558594
1157.7860144,108.980003356934
1157.8016394,93.4300003051758
1157.8172644,77.120002746582
1157.8328894,60.2599983215332
1157.8485144,42.7799987792969
1157.8641394,25.0499992370605
1157.8797644,8.14000034332275
1157.8953894,-6.46000003814697
1157.9110144,-17.5900001525879
1157.9266394,-24.8999996185303
1157.9422644,-29.0799999237061
1157.9578894,-31.5
1157.9735144,-33.6300010681152
1157.9891394,-36.3600006103516
1158.0047644,-39.9199981689453
1158.0203894,-44.060001373291
1158.0360144,-48.310001373291
1158.0516394,-52.1599998474121
1158.0672644,-55.2200012207031
1158.0828894,-57.3300018310547
1158.0985144,-58.3600006103516
1158.1141394,-58.25
1158.1297644,-57.0900001525879
1158.1453894,-55.3699989318848
1158.1610144,-53.6699981689453
1158.1766394,-52.4000015258789
1158.1922644,-51.4500007629395
1158.2078894,-50.2799987792969
1158.2235144,-47.9000015258789
1158.2391394,-42.6599998474121
1158.2547644,-32.0900001525879
1158.2703894,-13.7200002670288
1158.2860144,13.3199996948242
1158.3016394,47.0099983215332
1158.3172644,82.4400024414063
1158.3328894,113.370002746582
1158.3485144,134.759994506836
1158.3641394,144.570007324219
1158.3797644,143.899993896484
1158.3953894,135.619995117188
1158.4110144,122.839996337891
1158.4266394,107.779998779297
1158.4422644,91.5299987792969
1158.4578894,74.3000030517578
1158.4735144,55.9599990844727
1158.4891394,36.6699981689453
1158.5047644,17.5200004577637
1158.5203894,0.150000005960464
1158.5360144,-14.0
1158.5516394,-24.3099994659424
1158.5672644,-31.0300006866455
1158.5828894,-34.9799995422363
1158.5985144,-37.2000007629395
1158.6141394,-38.6399993896484
1158.6297644,-40.2799987792969
1158.6453894,-42.9900016784668
1158.6610144,-47.0299987792969
1158.6766394,-51.939998626709
1158.6922644,-56.9000015258789
1158.7078894,-61.189998626709
1158.7235144,-64.5599975585938
1158.7391394,-67.1699981689453
1158.7547644,-69.2699966430664
1158.7703894,-70.8099975585938
1158.7860144,-71.5899963378906
1158.8016394,-71.4199981689453
1158.8172644,-70.2600021362305
1158.8328894,-68.1699981689453
1158.8485144,-65.25
1158.8641394,-61.2599983215332
1158.8797644,-54.939998626709
1158.8953894,-43.7299995422363
1158.9110144,-24.7600002288818
1158.9266394,3.21000003814697
1158.9422644,38.1599998474121
1158.9578894,74.9199981689453
1158.9735144,107.199996948242
1158.9891394,130.070007324219
1159.0047644,141.440002441406
1159.0203894,141.970001220703
1159.0360144,134.259994506836
1159.0516394,121.580001831055
1159.0672644,106.540000915527
1159.0828894,90.5100021362305
1159.0985144,73.7300033569336
1159.1141394,55.9300003051758
1159.1297644,37.0400009155273
1159.1453894,17.6900005340576
1159.1610144,-0.629999995231628
1159.1766394,-16.25
1159.1922644,-28.0100002288818
1159.2078894,-35.75
1159.2235144,-40.310001373291
1159.2391394,-43.1699981689453
1159.2547644,-45.689998626709
1159.2703894,-48.6800003051758
1159.2860144,-52.3300018310547
1159.3016394,-56.4500007629395
1159.3172644,-60.7000007629395
1159.3328894,-64.6100006103516
1159.3485144,-67.8399963378906
1159.3641394,-70.2099990844727
1159.3797644,-71.8399963378906
1159.3953894,-73.0100021362305
1159.4110144,-73.7200012207031
1159.4266394,-73.7600021362305
1159.4422644,-72.8499984741211
1159.4578894,-70.9000015258789
1159.4735144,-68.0299987792969
1159.4891394,-64.5500030517578
1159.5047644,-60.189998626709
1159.5203894,-53.3300018310547
1159.5360144,-41.0
1159.5516394,-20.2600002288818
1159.5672644,9.73999977111816
1159.5828894,46.3600006103516
1159.5985144,83.9300003051758
1159.6141394,116.0
1159.6297644,137.869995117188
1159.6453894,147.929992675781
1159.6610144,147.289993286133
1159.6766394,138.679992675781
1159.6922644,125.23999786377
1159.7078894,109.339996337891
1159.7235144,92.2099990844727
1159.7391394,74.0199966430664
1159.7547644,54.7000007629395
1159.7703894,34.6399993896484
1159.7860144,14.9499998092651
1159.8016394,-2.82999992370605
1159.8172644,-17.3199996948242
1159.8328894,-27.7299995422363
1159.8485144,-34.2599983215332
1159.8641394,-38.0
1159.8797644,-40.5200004577637
1159.8953894,-43.1599998474121
1159.9110144,-46.6100006103516
1159.9266394,-50.8400001525879
1159.9422644,-55.4799995422363
1159.9578894,-60.060001373291
1159.9735144,-64.2699966430664
1159.9891394,-68.0400009155273
1160.0047644,-71.2300033569336
1160.0203894,-73.5199966430664
1160.0360144,-74.5400009155273
1160.0516394,-74.1699981689453
1160.0672644,-72.6699981689453
1160.0828894,-70.4700012207031
1160.0985144,-67.9300003051758
1160.1141394,-65.2900009155273
1160.1297644,-62.8199996948242
1160.1453894,-60.189998626709
1160.1610144,-55.7599983215332
1160.1766394,-46.6100006103516
1160.1922644,-29.5400009155273
1160.2078894,-2.98000001907349
1160.2235144,31.5599994659424
1160.2391394,69.5899963378906
1160.2547644,104.800003051758
1160.2703894,131.070007324219
1160.2860144,144.850006103516
1160.3016394,146.270004272461
1160.3172644,138.309997558594
1160.3328894,124.690002441406
1160.3485144,108.400001525879
1160.3641394,91.0
1160.3797644,72.870002746582
1160.3953894,53.9099998474121
1160.4110144,34.2999992370605
1160.4266394,14.8100004196167
1160.4422644,-3.26999998092651
1160.4578894,-18.6000003814697
1160.4735144,-30.2299995422363
1160.4891394,-38.1300010681152
1160.5047644,-43.1300010681152
1160.5203894,-46.3899993896484
1160.5360144,-48.8600006103516
1160.5516394,-51.0400009155273
1160.5672644,-53.1100006103516
1160.5828894,-55.1100006103516
1160.5985144,-57.1399993896484
1160.6141394,-59.2599983215332
1160.6297644,-61.3800010681152
1160.6453894,-62.9599990844727
1160.6610144,-63.1100006103516
1160.6766394,-61.060001373291
1160.6922644,-56.7599983215332
1160.7078894,-51.1399993896484
1160.7235144,-45.810001373291
1160.7391394,-42.2400016784668
1160.7547644,-40.7700004577637
1160.7703894,-40.189998626709
1160.7860144,-38.25
1160.8016394,-32.2900009155273
1160.8172644,-19.8899993896484
1160.8328894,0.259999990463257
1160.8485144,27.5
1160.8641394,58.6100006103516
1160.8797644,88.7600021362305
1160.8953894,113.059997558594
1160.9110144,128.169998168945
1160.9266394,133.350006103516
1160.9422644,130.270004272461
1160.9578894,121.639999389648
1160.9735144,109.76000213623
1160.9891394,95.8899993896484
1161.0047644,80.5299987792969
1161.0203894,64.1699981689453
1161.0360144,47.5900001525879
1161.0516394,31.6200008392334
1161.0672644,16.9200000762939
1161.0828894,3.92000007629395
1161.0985144,-7.01999998092651
1161.1141394,-15.6800003051758
1161.1297644,-22.1499996185303
1161.1453894,-26.9699993133545
1161.1610144,-30.8999996185303
1161.1766394,-34.560001373291
1161.1922644,-38.2900009155273
1161.2078894,-42.0699996948242
1161.2235144,-45.7900009155273
1161.2391394,-49.4199981689453
1161.2547644,-52.8699989318848
1161.2703894,-55.8899993896484
1161.2860144,-58.2400016784668
1161.3016394,-59.8600006103516
1161.3172644,-60.9099998474121
1161.3328894,-61.4700012207031
1161.3485144,-61.5
1161.3641394,-60.9500007629395
1161.3797644,-59.6699981689453
1161.3953894,-57.5299987792969
1161.4110144,-54.4900016784668
1161.4266394,-50.2700004577637
1161.4422644,-43.560001373291
1161.4578894,-31.9400005340576
1161.4735144,-13.039999961853
1161.4891394,13.6499996185303
1161.5047644,46.0099983215332
1161.5203894,79.1800003051758
1161.5360144,106.959999084473
1161.5516394,124.48999786377
1161.5672644,130.279998779297
1161.5828894,126.169998168945
1161.5985144,115.73999786377
1161.6141394,102.410003662109
1161.6297644,88.120002746582
1161.6453894,73.2200012207031
1161.6610144,57.3600006103516
1161.6766394,40.5299987792969
1161.6922644,23.3700008392334
1161.7078894,6.94999980926514
1161.7235144,-7.65999984741211
1161.7391394,-19.7800006866455
1161.7547644,-29.1700000762939
1161.7703894,-36.0499992370605
1161.7860144,-40.8600006103516
1161.8016394,-44.2299995422363
1161.8172644,-46.8699989318848
1161.8328894,-49.4099998474121
1161.8485144,-52.2900009155273
1161.8641394,-55.5200004577637
1161.8797644,-58.560001373291
1161.8953894,-60.7999992370605
1161.9110144,-62.2200012207031
1161.9266394,-63.4000015258789
1161.9422644,-64.7300033569336
1161.9578894,-66.1100006103516
1161.9735144,-67.1399993896484
1161.9891394,-67.4100036621094
1162.0047644,-66.7399978637695
1162.0203894,-65.379997253418
1162.0360144,-63.810001373291
1162.0516394,-62.2599983215332
1162.0672644,-60.1100006103516
1162.0828894,-55.6199989318848
1162.0985144,-46.2900009155273
1162.1141394,-29.7999992370605
1162.1297644,-5.42000007629395
1162.1453894,25.1900005340576
1162.1610144,58.2599983215332
1162.1766394,88.7600021362305
1162.1922644,111.73999786377
1162.2078894,124.150001525879
1162.2235144,125.800003051758
1162.2391394,118.980003356934
1162.2547644,106.930000305176
1162.2703894,92.3099975585938
1162.2860144,76.5400009155273
1162.3016394,60.1500015258789
1162.3172644,43.3699989318848
1162.3328894,26.5200004577637
1162.3485144,10.2299995422363
1162.3641394,-4.55000019073486
1162.3797644,-16.8700008392334
