Time(s),Value(%)
479.0123722,-32.7200012207031
479.0279972,-35.7999992370605
479.0436222,-38.2799987792969
479.0592472,-40.0499992370605
479.0748722,-41.0999984741211
479.0904972,-41.6300010681152
479.1061222,-41.7999992370605
479.1217472,-41.6399993896484
479.1373722,-41.0
479.1529972,-39.7299995422363
479.1686222,-37.8300018310547
479.1842472,-35.5200004577637
479.1998722,-33.2099990844727
479.2154972,-31.1000003814697
479.2311222,-29.0499992370605
479.2467472,-26.7600002288818
479.2623722,-24.0100002288818
479.2779972,-20.7999992370605
479.2936222,-17.2399997711182
479.3092472,-13.4200000762939
479.3248722,-9.1899995803833
479.3404972,-4.34999990463257
479.3561222,1.22000002861023
479.3717472,7.80999994277954
479.3873722,15.8400001525879
479.4029972,25.6700000762939
479.4186222,37.0999984741211
479.4342472,49.4199981689453
479.4498722,61.6599998474121
479.4654972,72.8300018310547
479.4811222,81.9899978637695
479.4967472,88.1800003051758
479.5123722,90.879997253418
479.5279972,90.3600006103516
479.5436222,87.4400024414063
479.5592472,83.0500030517578
479.5748722,77.8199996948242
479.5904972,71.9400024414063
479.6061222,65.2399978637695
479.6217472,57.4099998474121
479.6373722,48.1800003051758
479.6529972,37.689998626709
479.6686222,26.4699993133545
479.6842472,15.25
479.6998722,4.69000005722046
479.7154972,-4.84000015258789
479.7311222,-13.3100004196167
479.7467472,-20.8999996185303
479.7623722,-27.7999992370605
479.7779972,-34.0299987792969
479.7936222,-39.6199989318848
479.8092472,-44.6699981689453
479.8248722,-49.1699981689453
479.8404972,-52.939998626709
479.8561222,-55.7700004577637
479.8717472,-57.810001373291
479.8873722,-59.4700012207031
479.9029972,-61.1599998474121
479.9186222,-63.0400009155273
479.9342472,-64.9300003051758
479.9498722,-66.370002746582
479.9654972,-67.0100021362305
479.9811222,-66.8300018310547
479.9967472,-66.0500030517578
480.0123722,-64.879997253418
480.0279972,-63.4099998474121
480.0436222,-61.6399993896484
480.0592472,-59.560001373291
480.0748722,-57.2700004577637
480.0904972,-54.9000015258789
480.1061222,-52.5999984741211
480.1217472,-50.4700012207031
480.1373722,-48.4199981689453
480.1529972,-46.1599998474121
480.1686222,-43.4700012207031
480.1842472,-40.310001373291
480.1998722,-36.7200012207031
480.2154972,-32.6800003051758
480.2311222,-27.8600006103516
480.2467472,-21.6200008392334
480.2623722,-13.1499996185303
480.2779972,-2.03999996185303
480.2936222,11.3299999237061
480.3092472,25.8199996948242
480.3248722,39.9799995422363
480.3404972,52.5
480.3561222,62.5499992370605
480.3717472,70.0400009155273
480.3873722,75.4400024414063
480.4029972,79.1999969482422
480.4186222,81.379997253418
480.4342472,81.9100036621094
480.4498722,80.8600006103516
480.4654972,78.4199981689453
480.4811222,74.75
480.4967472,69.9400024414063
480.5123722,64.1699981689453
480.5279972,57.6800003051758
480.5436222,50.810001373291
480.5592472,43.9599990844727
480.5748722,37.5200004577637
480.5904972,31.7900009155273
480.6061222,26.8400001525879
480.6217472,22.5
480.6373722,18.4899997711182
480.6529972,14.6999998092651
480.6686222,11.1300001144409
480.6842472,7.76999998092651
480.6998722,4.53000020980835
480.7154972,1.23000001907349
480.7311222,-2.1800000667572
480.7467472,-5.59999990463257
480.7623722,-8.78999996185303
480.7779972,-11.6099996566772
480.7936222,-13.9899997711182
480.8092472,-15.8999996185303
480.8248722,-17.3400001525879
480.8404972,-18.4300003051758
480.8561222,-19.3099994659424
480.8717472,-20.1700000762939
480.8873722,-21.0599994659424
480.9029972,-21.8799991607666
480.9186222,-22.4099998474121
480.9342472,-22.4200000762939
480.9498722,-21.8299999237061
480.9654972,-20.8700008392334
480.9811222,-19.9200000762939
480.9967472,-19.2099990844727
481.0123722,-18.7000007629395
481.0279972,-18.1399993896484
481.0436222,-17.2700004577637
481.0592472,-15.8199996948242
481.0748722,-13.4799995422363
481.0904972,-9.77000045776367
481.1061222,-4.23000001907349
481.1217472,3.44000005722046
481.1373722,13.0299997329712
481.1529972,23.6499996185303
481.1686222,34.0999984741211
481.1842472,43.2900009155273
481.1998722,50.5099983215332
481.2154972,55.5299987792969
481.2311222,58.4700012207031
481.2467472,59.6399993896484
481.2623722,59.310001373291
481.2779972,57.7200012207031
481.2936222,54.9900016784668
481.3092472,51.1300010681152
481.3248722,46.0999984741211
481.3404972,39.9900016784668
481.3561222,33.0499992370605
481.3717472,25.5699996948242
481.3873722,17.9400005340576
481.4029972,10.5600004196167
481.4186222,3.82999992370605
481.4342472,-2.03999996185303
481.4498722,-7.01999998092651
481.4654972,-11.2399997711182
481.4811222,-15.0200004577637
481.4967472,-18.6900005340576
481.5123722,-22.3700008392334
481.5279972,-25.8700008392334
481.5436222,-28.8600006103516
481.5592472,-31.2399997711182
481.5748722,-33.2299995422363
481.5904972,-35.1699981689453
481.6061222,-37.2599983215332
481.6217472,-39.4700012207031
481.6373722,-41.5699996948242
481.6529972,-43.2099990844727
481.6686222,-44.1800003051758
481.6842472,-44.5499992370605
481.6998722,-44.4799995422363
481.7154972,-44.1500015258789
481.7311222,-43.7200012207031
481.7467472,-43.3400001525879
481.7623722,-43.0
481.7779972,-42.5400009155273
481.7936222,-41.7999992370605
481.8092472,-40.7599983215332
481.8248722,-39.4500007629395
481.8404972,-37.8400001525879
481.8561222,-35.7900009155273
481.8717472,-32.939998626709
481.8873722,-28.7199993133545
481.9029972,-22.5100002288818
481.9186222,-14.0299997329712
481.9342472,-3.60999989509583
481.9498722,7.92000007629395
481.9654972,19.6200008392334
481.9811222,30.5799999237061
481.9967472,40.0499992370605
482.0123722,47.3899993896484
482.0279972,52.2299995422363
482.0436222,54.5999984741211
482.0592472,54.9500007629395
482.0748722,53.8499984741211
482.0904972,51.7200012207031
482.1061222,48.7400016784668
482.1217472,44.939998626709
482.1373722,40.2400016784668
482.1529972,34.5900001525879
482.1686222,28.1599998474121
482.1842472,21.3299999237061
482.1998722,14.539999961853
482.2154972,8.25
482.2311222,2.75999999046326
482.2467472,-1.77999997138977
482.2623722,-5.46999979019165
482.2779972,-8.53999996185303
482.2936222,-11.3199996948242
482.3092472,-14.1000003814697
482.3248722,-17.0100002288818
482.3404972,-19.9899997711182
482.3561222,-22.8799991607666
482.3717472,-25.5499992370605
482.3873722,-27.9300003051758
482.4029972,-29.9300003051758
482.4186222,-31.5
482.4342472,-32.6199989318848
482.4498722,-33.3199996948242
482.4654972,-33.6100006103516
482.4811222,-33.5200004577637
482.4967472,-33.2299995422363
482.5123722,-32.9599990844727
482.5279972,-32.7700004577637
482.5436222,-32.5299987792969
482.5592472,-32.060001373291
482.5748722,-31.2000007629395
482.5904972,-29.8999996185303
482.6061222,-28.2399997711182
482.6217472,-26.4899997711182
482.6373722,-24.8999996185303
482.6529972,-23.5599994659424
482.6686222,-22.3600006103516
482.6842472,-21.0499992370605
482.6998722,-19.2999992370605
482.7154972,-16.5699996948242
482.7311222,-12.1800003051758
482.7467472,-5.55999994277954
482.7623722,3.44000005722046
482.7779972,14.4799995422363
482.7936222,26.6900005340576
482.8092472,38.9799995422363
482.8248722,50.2299995422363
482.8404972,59.4900016784668
482.8561222,66.1900024414063
482.8717472,70.1900024414063
482.8873722,71.7099990844727
482.9029972,71.2900009155273
482.9186222,69.6600036621094
482.9342472,67.4899978637695
482.9498722,64.9899978637695
482.9654972,61.9500007629395
482.9811222,57.939998626709
482.9967472,52.5900001525879
483.0123722,45.8800010681152
483.0279972,38.2200012207031
483.0436222,30.2999992370605
483.0592472,22.7600002288818
483.0748722,15.9300003051758
483.0904972,9.85999965667725
483.1061222,4.44999980926514
483.1217472,-0.419999986886978
483.1373722,-4.92000007629395
483.1529972,-9.14000034332275
483.1686222,-13.0799999237061
483.1842472,-16.7000007629395
483.1998722,-19.9599990844727
483.2154972,-22.9099998474121
483.2311222,-25.7299995422363
483.2467472,-28.6100006103516
483.2623722,-31.5400009155273
483.2779972,-34.2799987792969
483.2936222,-36.5699996948242
483.3092472,-38.2900009155273
483.3248722,-39.4599990844727
483.3404972,-40.1500015258789
483.3561222,-40.3600006103516
483.3717472,-39.9799995422363
483.3873722,-38.939998626709
483.4029972,-37.5299987792969
483.4186222,-36.189998626709
483.4342472,-35.2400016784668
483.4498722,-34.6599998474121
483.4654972,-34.189998626709
483.4811222,-33.4599990844727
483.4967472,-32.3499984741211
483.5123722,-31.0
483.5279972,-29.6100006103516
483.5436222,-28.2000007629395
483.5592472,-26.6000003814697
483.5748722,-24.4799995422363
483.5904972,-21.4200000762939
483.6061222,-16.9300003051758
483.6217472,-10.6099996566772
483.6373722,-2.19000005722046
483.6529972,8.38000011444092
483.6686222,20.7800006866455
483.6842472,33.9799995422363
483.6998722,46.5299987792969
483.7154972,57.0299987792969
483.7311222,64.5899963378906
483.7467472,69.0800018310547
483.7623722,71.0899963378906
483.7779972,71.4300003051758
483.7936222,70.4899978637695
483.8092472,68.2799987792969
483.8248722,64.6800003051758
483.8404972,59.6699981689453
483.8561222,53.3300018310547
483.8717472,45.8899993896484
483.8873722,37.689998626709
483.9029972,29.1000003814697
483.9186222,20.6000003814697
483.9342472,12.6800003051758
483.9498722,5.69000005722046
483.9654972,-0.310000002384186
483.9811222,-5.53000020980835
483.9967472,-10.2200002670288
484.0123722,-14.5500001907349
484.0279972,-18.5900001525879
484.0436222,-22.3799991607666
484.0592472,-25.8600006103516
484.0748722,-29.0499992370605
484.0904972,-31.9799995422363
484.1061222,-34.6199989318848
484.1217472,-36.8400001525879
484.1373722,-38.6300010681152
484.1529972,-40.0900001525879
484.1686222,-41.2700004577637
484.1842472,-42.1300010681152
484.1998722,-42.5900001525879
484.2154972,-42.6599998474121
484.2311222,-42.3499984741211
484.2467472,-41.7000007629395
484.2623722,-40.8400001525879
484.2779972,-39.9500007629395
484.2936222,-39.0800018310547
484.3092472,-38.1599998474121
484.3248722,-37.0999984741211
484.3404972,-35.8600006103516
484.3561222,-34.3300018310547
484.3717472,-32.3699989318848
484.3873722,-29.7199993133545
484.4029972,-25.9500007629395
484.4186222,-20.4099998474121
484.4342472,-12.4899997711182
484.4498722,-2.02999997138977
484.4654972,10.3999996185303
484.4811222,23.6399993896484
484.4967472,36.2799987792969
484.5123722,47.1399993896484
484.5279972,55.439998626709
484.5436222,60.8400001525879
484.5592472,63.3899993896484
484.5748722,63.5900001525879
484.5904972,62.0800018310547
484.6061222,59.4199981689453
484.6217472,55.8600006103516
484.6373722,51.3300018310547
484.6529972,45.6300010681152
484.6686222,38.6800003051758
484.6842472,30.7900009155273
484.6998722,22.6399993896484
484.7154972,14.9799995422363
484.7311222,8.35000038146973
484.7467472,2.94000005722046
484.7623722,-1.54999995231628
484.7779972,-5.6399998664856
484.7936222,-9.59000015258789
484.8092472,-13.4300003051758
484.8248722,-17.0599994659424
484.8404972,-20.4200000762939
484.8561222,-23.5499992370605
484.8717472,-26.4899997711182
484.8873722,-29.2600002288818
484.9029972,-31.8099994659424
484.9186222,-34.0999984741211
484.9342472,-35.9900016784668
484.9498722,-37.3400001525879
484.9654972,-38.1599998474121
484.9811222,-38.5900001525879
484.9967472,-38.810001373291
485.0123722,-38.9000015258789
485.0279972,-38.7900009155273
485.0436222,-38.3300018310547
485.0592472,-37.3499984741211
485.0748722,-35.9099998474121
485.0904972,-34.189998626709
485.1061222,-32.310001373291
485.1217472,-30.3700008392334
485.1373722,-28.4200000762939
485.1529972,-26.5300006866455
485.1686222,-24.5599994659424
485.1842472,-22.0400009155273
485.1998722,-18.2000007629395
485.2154972,-12.2700004577637
485.2311222,-3.74000000953674
485.2467472,7.46000003814697
485.2623722,21.0200004577637
485.2779972,36.0099983215332
485.2936222,50.9000015258789
485.3092472,63.9799995422363
485.3248722,74.0299987792969
485.3404972,80.4899978637695
485.3561222,83.5800018310547
485.3717472,84.0199966430664
485.3873722,82.6900024414063
485.4029972,80.2900009155273
485.4186222,77.129997253418
485.4342472,73.0400009155273
485.4498722,67.5699996948242
485.4654972,60.3400001525879
485.4811222,51.4099998474121
485.4967472,41.3899993896484
485.5123722,31.1900005340576
485.5279972,21.6200008392334
485.5436222,13.1099996566772
485.5592472,5.71999979019165
485.5748722,-0.680000007152557
485.5904972,-6.30000019073486
485.6061222,-11.3100004196167
485.6217472,-15.9300003051758
485.6373722,-20.3700008392334
485.6529972,-24.7999992370605
485.6686222,-29.3099994659424
485.6842472,-33.7900009155273
485.6998722,-37.9500007629395
485.7154972,-41.4900016784668
485.7311222,-44.2400016784668
485.7467472,-46.2799987792969
485.7623722,-47.8699989318848
485.7779972,-49.2700004577637
485.7936222,-50.4799995422363
485.8092472,-51.2900009155273
485.8248722,-51.5499992370605
485.8404972,-51.2700004577637
485.8561222,-50.4599990844727
485.8717472,-49.0999984741211
485.8873722,-47.2799987792969
485.9029972,-45.3300018310547
485.9186222,-43.5800018310547
485.9342472,-42.0699996948242
485.9498722,-40.6100006103516
485.9654972,-38.9000015258789
485.9811222,-36.75
485.9967472,-34.0299987792969
486.0123722,-30.4699993133545
486.0279972,-25.5300006866455
486.0436222,-18.3799991607666
486.0592472,-8.35000038146973
486.0748722,4.73999977111816
486.0904972,20.3400001525879
486.1061222,37.0400009155273
486.1217472,52.939998626709
486.1373722,66.2399978637695
486.1529972,75.6999969482422
486.1686222,80.870002746582
486.1842472,82.4199981689453
486.1998722,81.8300018310547
486.2154972,80.5299987792969
486.2311222,79.1800003051758
486.2467472,77.629997253418
486.2623722,75.3300018310547
486.2779972,71.6699981689453
486.2936222,66.1399993896484
486.3092472,58.4500007629395
486.3248722,48.7700004577637
486.3404972,37.75
486.3561222,26.4099998474121
486.3717472,15.6800003051758
486.3873722,6.17000007629395
486.4029972,-1.9099999666214
486.4186222,-8.68000030517578
486.4342472,-14.3900003433228
486.4498722,-19.4400005340576
486.4654972,-24.2700004577637
486.4811222,-29.0699996948242
486.4967472,-33.8400001525879
486.5123722,-38.4599990844727
486.5279972,-42.8699989318848
486.5436222,-46.9500007629395
486.5592472,-50.4700012207031
486.5748722,-53.2099990844727
486.5904972,-55.1199989318848
486.6061222,-56.2799987792969
486.6217472,-56.9000015258789
486.6373722,-57.2099990844727
486.6529972,-57.3199996948242
486.6686222,-57.2900009155273
486.6842472,-57.1199989318848
486.6998722,-56.5999984741211
486.7154972,-55.5299987792969
486.7311222,-53.7999992370605
486.7467472,-51.5
486.7623722,-48.8800010681152
486.7779972,-46.2999992370605
486.7936222,-43.9900016784668
486.8092472,-41.8300018310547
486.8248722,-39.5200004577637
486.8404972,-36.8199996948242
486.8561222,-33.5299987792969
486.8717472,-29.0900001525879
486.8873722,-22.7900009155273
486.9029972,-14.3299999237061
486.9186222,-3.91000008583069
486.9342472,8.48999977111816
486.9498722,23.0599994659424
486.9654972,39.3400001525879
486.9811222,55.9300003051758
486.9967472,71.0400009155273
487.0123722,83.1600036621094
487.0279972,91.6399993896484
487.0436222,96.7399978637695
487.0592472,99.1600036621094
487.0748722,99.4599990844727
487.0904972,97.9499969482422
487.1061222,94.8000030517578
487.1217472,90.0800018310547
487.1373722,83.7099990844727
487.1529972,75.5800018310547
487.1686222,65.7699966430664
487.1842472,54.7299995422363
487.1998722,43.2000007629395
487.2154972,32.0
487.2311222,21.8500003814697
487.2467472,13.0900001525879
487.2623722,5.71999979019165
487.2779972,-0.639999985694885
487.2936222,-6.46999979019165
487.3092472,-12.0900001525879
487.3248722,-17.5699996948242
487.3404972,-22.8400001525879
487.3561222,-27.8500003814697
487.3717472,-32.5699996948242
487.3873722,-36.9700012207031
487.4029972,-41.0200004577637
487.4186222,-44.6300010681152
487.4342472,-47.7700004577637
487.4498722,-50.5099983215332
487.4654972,-52.9099998474121
487.4811222,-54.8899993896484
487.4967472,-56.2799987792969
487.5123722,-57.0400009155273
487.5279972,-57.2599983215332
487.5436222,-57.0999984741211
487.5592472,-56.7099990844727
487.5748722,-56.0400009155273
487.5904972,-54.9799995422363
487.6061222,-53.4799995422363
487.6217472,-51.5400009155273
487.6373722,-49.2099990844727
487.6529972,-46.5400009155273
487.6686222,-43.3699989318848
487.6842472,-39.1699981689453
487.6998722,-33.0499992370605
487.7154972,-24.1200008392334
487.7311222,-11.9899997711182
487.7467472,2.92000007629395
487.7623722,19.4799995422363
487.7779972,36.0900001525879
487.7936222,51.2099990844727
487.8092472,63.5299987792969
487.8248722,72.2600021362305
487.8404972,77.2200012207031
487.8561222,78.9100036621094
487.8717472,78.0999984741211
487.8873722,75.5899963378906
487.9029972,71.9199981689453
487.9186222,67.3099975585938
487.9342472,61.6100006103516
487.9498722,54.4900016784668
487.9654972,45.8499984741211
487.9811222,36.0299987792969
487.9967472,25.8999996185303
488.0123722,16.4200000762939
488.0279972,8.28999996185303
488.0436222,1.70000004768372
488.0592472,-3.59999990463257
488.0748722,-8.02999973297119
488.0904972,-11.9300003051758
488.1061222,-15.5900001525879
488.1217472,-19.2099990844727
488.1373722,-22.8799991607666
488.1529972,-26.6200008392334
488.1686222,-30.3999996185303
488.1842472,-34.1500015258789
488.1998722,-37.7000007629395
488.2154972,-40.75
488.2311222,-43.0
488.2467472,-44.310001373291
488.2623722,-44.7799987792969
488.2779972,-44.810001373291
488.2936222,-44.8199996948242
488.3092472,-44.9500007629395
488.3248722,-44.9500007629395
488.3404972,-44.4799995422363
488.3561222,-43.3699989318848
488.3717472,-41.689998626709
488.3873722,-39.6699981689453
488.4029972,-37.4700012207031
488.4186222,-35.2400016784668
488.4342472,-33.1300010681152
488.4498722,-31.2299995422363
488.4654972,-29.4099998474121
488.4811222,-27.4200000762939
488.4967472,-24.9699993133545
488.5123722,-21.7199993133545
488.5279972,-17.0900001525879
488.5436222,-10.2700004577637
488.5592472,-0.519999980926514
488.5748722,12.4099998474121
488.5904972,28.0100002288818
488.6061222,45.0200004577637
488.6217472,61.689998626709
488.6373722,76.2600021362305
488.6529972,87.4199981689453
488.6686222,94.75
488.6842472,98.7900009155273
488.6998722,100.540000915527
488.7154972,100.629997253418
488.7311222,99.1800003051758
488.7467472,96.0999984741211
488.7623722,91.3000030517578
488.7779972,84.7200012207031
488.7936222,76.3499984741211
488.8092472,66.3099975585938
488.8248722,55.0
488.8404972,43.1199989318848
488.8561222,31.4899997711182
488.8717472,20.8500003814697
488.8873722,11.6400003433228
488.9029972,3.9300000667572
488.9186222,-2.59999990463257
488.9342472,-8.4399995803833
488.9498722,-14.0100002288818
488.9654972,-19.4799995422363
488.9811222,-24.8799991607666
488.9967472,-30.1299991607666
489.0123722,-35.0800018310547
489.0279972,-39.560001373291
489.0436222,-43.5400009155273
489.0592472,-47.0900001525879
489.0748722,-50.2299995422363
489.0904972,-52.9099998474121
489.1061222,-55.0200004577637
489.1217472,-56.4799995422363
489.1373722,-57.2599983215332
489.1529972,-57.4900016784668
489.1686222,-57.3600006103516
489.1842472,-57.060001373291
489.1998722,-56.6199989318848
489.2154972,-55.8699989318848
489.2311222,-54.6599998474121
489.2467472,-53.0200004577637
489.2623722,-51.0499992370605
489.2779972,-48.9900016784668
489.2936222,-47.0200004577637
489.3092472,-45.1599998474121
489.3248722,-43.2299995422363
489.3404972,-41.0699996948242
489.3561222,-38.5499992370605
489.3717472,-35.4599990844727
489.3873722,-31.4099998474121
489.4029972,-25.8999996185303
489.4186222,-18.3899993896484
489.4342472,-8.30000019073486
489.4498722,4.59999990463257
489.4654972,19.7399997711182
489.4811222,35.7099990844727
489.4967472,50.7900009155273
489.5123722,63.4700012207031
489.5279972,72.9400024414063
489.5436222,79.25
489.5592472,82.9700012207031
489.5748722,84.6800003051758
489.5904972,84.6999969482422
489.6061222,83.2200012207031
489.6217472,80.3300018310547
489.6373722,76.0899963378906
489.6529972,70.5599975585938
489.6686222,63.7099990844727
