Time(s),Value(%)
0.0083602,7.65000009536743
0.0239852,8.72000026702881
0.0396102,9.77000045776367
0.0552352,10.5600004196167
0.0708602,11.0500001907349
0.0864852,11.3299999237061
0.1021102,11.6000003814697
0.1177352,12.0100002288818
0.1333602,12.6199998855591
0.1489852,13.3400001525879
0.1646102,14.0699996948242
0.1802352,14.6899995803833
0.1958602,15.1400003433228
0.2114852,15.3299999237061
0.2271102,15.1499996185303
0.2427352,14.4899997711182
0.2583602,13.3400001525879
0.2739852,11.8400001525879
0.2896102,10.1499996185303
0.3052352,8.39999961853027
0.3208602,6.65000009536743
0.3364852,4.8600001335144
0.3521102,2.79999995231628
0.3677352,0.209999993443489
0.3833602,-3.09999990463257
0.3989852,-7.13000011444092
0.4146102,-11.6400003433228
0.4302352,-16.3500003814697
0.4458602,-21.1499996185303
0.4614852,-26.1100006103516
0.4771102,-31.25
0.4927352,-36.3600006103516
0.5083602,-41.0900001525879
0.5239852,-45.2000007629395
0.5396102,-48.75
0.5552352,-51.9799995422363
0.5708602,-54.9199981689453
0.5864852,-57.4300003051758
0.6021102,-59.3600006103516
0.6177352,-60.7700004577637
0.6333602,-61.939998626709
0.6489852,-63.1199989318848
0.6646102,-64.2600021362305
0.6802352,-65.1399993896484
0.6958602,-65.620002746582
0.7114852,-65.7699966430664
0.7271102,-65.6999969482422
0.7427352,-65.4300003051758
0.7583602,-64.8300018310547
0.7739852,-63.7400016784668
0.7896102,-62.0800018310547
0.8052352,-59.810001373291
0.8208602,-56.8499984741211
0.8364852,-53.1399993896484
0.8521102,-48.7799987792969
0.8677352,-44.0999984741211
0.8833602,-39.439998626709
0.8989852,-35.0699996948242
0.9146102,-31.0699996948242
0.9302352,-27.4599990844727
0.9458602,-24.2299995422363
0.9614852,-21.3999996185303
0.9771102,-18.9300003051758
0.9927352,-16.7199993133545
1.0083602,-14.6800003051758
1.0239852,-12.6999998092651
1.0396102,-10.75
1.0552352,-8.88000011444092
1.0708602,-7.19999980926514
1.0864852,-5.84000015258789
1.1021102,-4.82999992370605
1.1177352,-4.1100001335144
1.1333602,-3.55999994277954
1.1489852,-3.05999994277954
1.1646102,-2.52999997138977
1.1802352,-1.94000005722046
1.1958602,-1.30999994277954
1.2114852,-0.709999978542328
1.2271102,-0.25
1.2427352,-0.0099999997764825
1.2583602,-0.0099999997764825
1.2739852,-0.219999998807907
1.2896102,-0.639999985694885
1.3052352,-1.28999996185303
1.3208602,-2.13000011444092
1.3364852,-3.00999999046326
1.3521102,-3.73000001907349
1.3677352,-4.15000009536743
1.3833602,-4.30000019073486
1.3989852,-4.28000020980835
1.4146102,-4.1399998664856
1.4302352,-3.84999990463257
1.4458602,-3.35999989509583
1.4614852,-2.6800000667572
1.4771102,-1.88999998569489
1.4927352,-1.05999994277954
1.5083602,-0.280000001192093
1.5239852,0.400000005960464
1.5396102,1.00999999046326
1.5552352,1.57000005245209
1.5708602,2.10999989509583
1.5864852,2.6800000667572
1.6021102,3.3199999332428
1.6177352,4.30999994277954
1.6333602,6.17999982833862
1.6489852,9.42000007629395
1.6646102,14.1000003814697
1.6802352,19.8600006103516
1.6958602,26.2700004577637
1.7114852,32.939998626709
1.7271102,39.5499992370605
1.7427352,45.6599998474121
1.7583602,50.689998626709
1.7739852,54.2299995422363
1.7896102,56.3699989318848
1.8052352,57.5499992370605
1.8208602,58.1699981689453
1.8364852,58.4700012207031
1.8521102,58.6100006103516
1.8677352,58.7799987792969
1.8833602,59.0499992370605
1.8989852,59.3400001525879
1.9146102,59.4000015258789
1.9302352,59.0400009155273
1.9458602,58.2400016784668
1.9614852,57.1399993896484
1.9771102,55.8600006103516
1.9927352,54.3699989318848
2.0083602,52.6800003051758
2.0239852,50.7900009155273
2.0396102,48.7700004577637
2.0552352,46.5999984741211
2.0708602,44.1300010681152
2.0864852,41.2000007629395
2.1021102,37.7599983215332
2.1177352,33.8899993896484
2.1333602,29.6800003051758
2.1489852,25.2099990844727
2.1646102,20.5900001525879
2.1802352,16.0400009155273
2.1958602,11.8000001907349
2.2114852,8.01000022888184
2.2271102,4.6100001335144
2.2427352,1.45000004768372
2.2583602,-1.49000000953674
2.2739852,-4.13000011444092
2.2896102,-6.3600001335144
2.3052352,-8.18000030517578
2.3208602,-9.63000011444092
2.3364852,-10.6800003051758
2.3521102,-11.0299997329712
2.3677352,-10.3900003433228
2.3833602,-8.68000030517578
2.3989852,-6.03000020980835
2.4146102,-2.5699999332428
2.4302352,1.61000001430511
2.4458602,6.30999994277954
2.4614852,11.0900001525879
2.4771102,15.3800001144409
2.4927352,18.7900009155273
2.5083602,21.3299999237061
2.5239852,23.2399997711182
2.5396102,24.5699996948242
2.5552352,25.2299995422363
2.5708602,25.1499996185303
2.5864852,24.4300003051758
2.6021102,23.3299999237061
2.6177352,22.1100006103516
2.6333602,20.8999996185303
2.6489852,19.7299995422363
2.6646102,18.5499992370605
2.6802352,17.3099994659424
2.6958602,16.0200004577637
2.7114852,14.6999998092651
2.7271102,13.3500003814697
2.7427352,11.9300003051758
2.7583602,10.3500003814697
2.7739852,8.47000026702881
2.7896102,6.30999994277954
2.8052352,3.98000001907349
2.8208602,1.6599999666214
2.8364852,-0.509999990463257
2.8521102,-2.55999994277954
2.8677352,-4.51000022888184
2.8833602,-6.44999980926514
2.8989852,-8.38000011444092
2.9146102,-10.3199996948242
2.9302352,-12.2700004577637
2.9458602,-14.2600002288818
2.9614852,-16.3099994659424
2.9771102,-18.3600006103516
2.9927352,-20.3299999237061
3.0083602,-22.1000003814697
3.0239852,-23.6599998474121
3.0396102,-25.0300006866455
3.0552352,-26.25
3.0708602,-27.3899993896484
3.0864852,-28.4799995422363
3.1021102,-29.4899997711182
3.1177352,-30.2099990844727
3.1333602,-30.2399997711182
3.1489852,-29.2299995422363
3.1646102,-27.1200008392334
3.1802352,-24.2199993133545
3.1958602,-20.8799991607666
3.2114852,-17.2600002288818
3.2271102,-13.1800003051758
3.2427352,-8.52999973297119
3.2583602,-3.63000011444092
3.2739852,0.850000023841858
3.2896102,4.40000009536743
3.3052352,6.8899998664856
3.3208602,8.56999969482422
3.3364852,9.77000045776367
3.3521102,10.6999998092651
3.3677352,11.3699998855591
3.3833602,11.7799997329712
3.3989852,11.9399995803833
3.4146102,12.0
3.4302352,12.0799999237061
3.4458602,12.25
3.4614852,12.3400001525879
3.4771102,11.9899997711182
3.4927352,10.8500003814697
3.5083602,8.77999973297119
3.5239852,5.92000007629395
3.5396102,2.60999989509583
3.5552352,-0.810000002384186
3.5708602,-4.1100001335144
3.5864852,-7.15000009536743
3.6021102,-9.94999980926514
3.6177352,-12.6300001144409
3.6333602,-15.4300003051758
3.6489852,-18.5200004577637
3.6646102,-21.9599990844727
3.6802352,-25.7000007629395
3.6958602,-29.7099990844727
3.7114852,-33.9900016784668
3.7271102,-38.439998626709
3.7427352,-42.7799987792969
3.7583602,-46.5999984741211
3.7739852,-49.5999984741211
3.7896102,-51.8400001525879
3.8052352,-53.5800018310547
3.8208602,-54.9700012207031
3.8364852,-56.0
3.8521102,-56.5800018310547
3.8677352,-56.7299995422363
3.8833602,-56.5299987792969
3.8989852,-55.9900016784668
3.9146102,-55.0
3.9302352,-53.4099998474121
3.9458602,-51.1599998474121
3.9614852,-48.2299995422363
3.9771102,-44.5499992370605
3.9927352,-40.0400009155273
4.0083602,-34.810001373291
4.0239852,-29.2000007629395
4.0396102,-23.6499996185303
4.0552352,-18.3899993896484
4.0708602,-13.3500003814697
4.0864852,-8.39999961853027
4.1021102,-3.67000007629395
4.1177352,0.439999997615814
4.1333602,3.67000007629395
4.1489852,6.01000022888184
4.1646102,7.73000001907349
4.1802352,9.10999965667725
4.1958602,10.2799997329712
4.2114852,11.210000038147
4.2271102,11.8699998855591
4.2427352,12.2600002288818
4.2583602,12.4099998474121
4.2739852,12.3900003433228
4.2896102,12.2700004577637
4.3052352,12.0100002288818
4.3208602,11.5100002288818
4.3364852,10.5900001525879
4.3521102,9.14999961853027
4.3677352,7.23999977111816
4.3833602,5.09000015258789
4.3989852,2.95000004768372
4.4146102,1.04999995231628
4.4302352,-0.550000011920929
4.4458602,-1.89999997615814
4.4614852,-3.14000010490417
4.4771102,-4.42999982833862
4.4927352,-5.90000009536743
4.5083602,-7.55999994277954
4.5239852,-9.4399995803833
4.5396102,-11.6199998855591
4.5552352,-14.1800003051758
4.5708602,-17.0699996948242
4.5864852,-20.0300006866455
4.6021102,-22.6700000762939
4.6177352,-24.75
4.6333602,-26.3400001525879
4.6489852,-27.7099990844727
4.6646102,-28.9400005340576
4.6802352,-29.9200000762939
4.6958602,-30.5
4.7114852,-30.6200008392334
4.7271102,-30.3400001525879
4.7427352,-29.6599998474121
4.7583602,-28.3799991607666
4.7739852,-26.2700004577637
4.7896102,-23.2700004577637
4.8052352,-19.5799999237061
4.8208602,-15.460000038147
4.8364852,-11.1099996566772
4.8521102,-6.73000001907349
4.8677352,-2.50999999046326
4.8833602,1.30999994277954
4.8989852,4.57000017166138
4.9146102,7.1399998664856
4.9302352,8.98999977111816
4.9458602,10.1599998474121
4.9614852,10.7200002670288
4.9771102,10.8500003814697
4.9927352,10.7399997711182
5.0083602,10.5799999237061
5.0239852,10.3199996948242
5.0396102,9.73999977111816
5.0552352,8.52999973297119
5.0708602,6.61999988555908
5.0864852,4.05999994277954
5.1021102,0.949999988079071
5.1177352,-2.63000011444092
5.1333602,-6.51999998092651
5.1489852,-10.3000001907349
5.1646102,-13.3800001144409
5.1802352,-15.3900003433228
5.1958602,-16.4400005340576
5.2114852,-16.9500007629395
5.2271102,-17.2399997711182
5.2427352,-17.4699993133545
5.2583602,-17.8099994659424
5.2739852,-18.5
5.2896102,-19.6100006103516
5.3052352,-20.9200000762939
5.3208602,-21.9799995422363
5.3364852,-22.4799995422363
5.3521102,-22.5300006866455
5.3677352,-22.4500007629395
5.3833602,-22.3500003814697
5.3989852,-22.0499992370605
5.4146102,-21.3099994659424
5.4302352,-20.0699996948242
5.4458602,-18.4300003051758
5.4614852,-16.5799999237061
5.4771102,-14.6300001144409
5.4927352,-12.6300001144409
5.5083602,-10.5500001907349
5.5239852,-8.31999969482422
5.5396102,-5.80999994277954
5.5552352,-2.9300000667572
5.5708602,0.319999992847443
5.5864852,3.9300000667572
5.6021102,7.94999980926514
5.6177352,12.4700002670288
5.6333602,17.5100002288818
5.6489852,22.8600006103516
5.6646102,28.1100006103516
5.6802352,32.810001373291
5.6958602,36.75
5.7114852,39.9599990844727
5.7271102,42.6599998474121
5.7427352,45.0
5.7583602,46.9599990844727
5.7739852,48.4199981689453
5.7896102,49.3199996948242
5.8052352,49.6800003051758
5.8208602,49.5400009155273
5.8364852,48.9500007629395
5.8521102,48.0400009155273
5.8677352,46.9900016784668
5.8833602,46.0200004577637
5.8989852,45.25
5.9146102,44.5699996948242
5.9302352,43.810001373291
5.9458602,42.9500007629395
5.9614852,42.1199989318848
5.9771102,41.4500007629395
5.9927352,41.0200004577637
6.0083602,40.75
6.0239852,40.4700012207031
6.0396102,39.9300003051758
6.0552352,38.939998626709
6.0708602,37.4700012207031
6.0864852,35.5099983215332
6.1021102,33.0099983215332
6.1177352,29.8799991607666
6.1333602,26.2099990844727
6.1489852,22.3899993896484
6.1646102,19.0200004577637
6.1802352,16.5200004577637
6.1958602,14.8400001525879
6.2114852,13.6400003433228
6.2271102,12.710000038147
6.2427352,12.1000003814697
6.2583602,11.9099998474121
6.2739852,12.1400003433228
6.2896102,12.6800003051758
6.3052352,13.4099998474121
6.3208602,14.3699998855591
6.3364852,15.6499996185303
6.3521102,17.2700004577637
6.3677352,19.2199993133545
6.3833602,21.4400005340576
6.3989852,23.8799991607666
6.4146102,26.4599990844727
6.4302352,29.1000003814697
6.4458602,31.7000007629395
6.4614852,34.25
6.4771102,36.7000007629395
6.4927352,38.9500007629395
6.5083602,40.8400001525879
6.5239852,42.2099990844727
6.5396102,43.0299987792969
6.5552352,43.4000015258789
6.5708602,43.5
6.5864852,43.4300003051758
6.6021102,43.1800003051758
6.6177352,42.6599998474121
6.6333602,41.810001373291
6.6489852,40.5900001525879
6.6646102,38.9799995422363
6.6802352,36.9300003051758
6.6958602,34.5200004577637
6.7114852,31.9599990844727
6.7271102,29.5
6.7427352,27.2900009155273
6.7583602,25.2600002288818
6.7739852,23.2299995422363
6.7896102,21.1800003051758
6.8052352,19.2399997711182
6.8208602,17.5599994659424
6.8364852,16.1900005340576
6.8521102,15.039999961853
6.8677352,13.9099998474121
6.8833602,12.5200004577637
6.8989852,10.6800003051758
6.9146102,8.34000015258789
6.9302352,5.55999994277954
6.9458602,2.35999989509583
6.9614852,-1.27999997138977
6.9771102,-5.25
6.9927352,-9.19999980926514
7.0083602,-12.5799999237061
7.0239852,-15.0200004577637
7.0396102,-16.6200008392334
7.0552352,-17.7700004577637
7.0708602,-18.7299995422363
7.0864852,-19.5300006866455
7.1021102,-20.0599994659424
7.1177352,-20.2600002288818
7.1333602,-20.1599998474121
7.1489852,-19.7000007629395
7.1646102,-18.6299991607666
7.1802352,-16.6800003051758
7.1958602,-13.8100004196167
7.2114852,-10.2700004577637
7.2271102,-6.38000011444092
7.2427352,-2.42000007629395
7.2583602,1.38999998569489
7.2739852,4.90000009536743
7.2896102,7.92999982833862
7.3052352,10.3500003814697
7.3208602,12.1700000762939
7.3364852,13.460000038147
7.3521102,14.289999961853
7.3677352,14.6899995803833
7.3833602,14.6800003051758
7.3989852,14.3100004196167
7.4146102,13.6800003051758
7.4302352,12.9300003051758
7.4458602,12.1300001144409
7.4614852,11.3100004196167
7.4771102,10.3900003433228
7.4927352,9.30000019073486
7.5083602,8.05000019073486
7.5239852,6.76000022888184
7.5396102,5.51999998092651
7.5552352,4.40999984741211
7.5708602,3.40000009536743
7.5864852,2.39000010490417
7.6021102,1.23000001907349
7.6177352,-0.209999993443489
7.6333602,-1.98000001907349
7.6489852,-4.03000020980835
7.6646102,-6.36999988555908
7.6802352,-9.0
7.6958602,-11.8299999237061
7.7114852,-14.6599998474121
7.7271102,-17.1499996185303
7.7427352,-19.0699996948242
7.7583602,-20.5
7.7739852,-21.7000007629395
7.7896102,-22.8099994659424
7.8052352,-23.8099994659424
7.8208602,-24.6100006103516
7.8364852,-25.1599998474121
7.8521102,-25.4899997711182
7.8677352,-25.7299995422363
7.8833602,-26.0
7.8989852,-26.3899993896484
7.9146102,-26.8999996185303
7.9302352,-27.3700008392334
7.9458602,-27.5799999237061
7.9614852,-27.2999992370605
7.9771102,-26.4699993133545
7.9927352,-25.1399993896484
8.0083602,-23.3099994659424
8.0239852,-20.8899993896484
8.0396102,-17.7800006866455
8.0552352,-14.0600004196167
8.0708602,-10.0799999237061
8.0864852,-6.34000015258789
8.1021102,-3.21000003814697
8.1177352,-0.759999990463257
8.1333602,1.1599999666214
8.1489852,2.8199999332428
8.1646102,4.44999980926514
8.1802352,6.17000007629395
8.1958602,7.98000001907349
8.2114852,9.82999992370605
8.2271102,11.7299995422363
8.2427352,13.6999998092651
8.2583602,15.710000038147
8.2739852,17.5699996948242
8.2896102,18.9300003051758
8.3052352,19.5799999237061
8.3208602,19.5699996948242
8.3364852,19.2199993133545
8.3521102,18.7700004577637
8.3677352,18.3199996948242
8.3833602,17.8199996948242
8.3989852,17.2099990844727
8.4146102,16.4400005340576
8.4302352,15.4200000762939
8.4458602,13.960000038147
8.4614852,11.8900003433228
8.4771102,9.22000026702881
8.4927352,6.07000017166138
8.5083602,2.64000010490417
8.5239852,-0.910000026226044
8.5396102,-4.5
8.5552352,-7.96000003814697
8.5708602,-11.1700000762939
8.5864852,-14.0799999237061
8.6021102,-16.8299999237061
8.6177352,-19.6000003814697
8.6333602,-22.4300003051758
8.6489852,-25.1700000762939
8.6646102,-27.6499996185303
8.6802352,-29.7900009155273
8.6958602,-31.5699996948242
8.7114852,-32.9500007629395
8.7271102,-33.7200012207031
8.7427352,-33.6599998474121
8.7583602,-32.7299995422363
8.7739852,-30.8600006103516
8.7896102,-27.8600006103516
8.8052352,-23.5400009155273
8.8208602,-18.0200004577637
8.8364852,-11.8599996566772
8.8521102,-5.76999998092651
8.8677352,-0.219999998807907
8.8833602,4.80999994277954
8.8989852,9.48999977111816
8.9146102,13.6000003814697
8.9302352,16.6499996185303
8.9458602,18.3299999237061
8.9614852,18.7600002288818
8.9771102,18.3799991607666
8.9927352,17.5599994659424
9.0083602,16.3799991607666
9.0239852,14.6899995803833
9.0396102,12.4099998474121
9.0552352,9.64000034332275
9.0708602,6.65000009536743
9.0864852,3.73000001907349
9.1021102,1.03999996185303
9.1177352,-1.38999998569489
9.1333602,-3.70000004768372
9.1489852,-6.03000020980835
9.1646102,-8.46000003814697
9.1802352,-11.0200004577637
9.1958602,-13.6300001144409
9.2114852,-16.2000007629395
9.2271102,-18.6399993896484
9.2427352,-20.9200000762939
9.2583602,-23.0400009155273
9.2739852,-25.0799999237061
9.2896102,-27.1900005340576
9.3052352,-29.5200004577637
9.3208602,-32.0800018310547
9.3364852,-34.8600006103516
9.3521102,-37.8400001525879
9.3677352,-41.0200004577637
9.3833602,-44.310001373291
9.3989852,-47.5299987792969
9.4146102,-50.3699989318848
9.4302352,-52.6500015258789
9.4458602,-54.4300003051758
9.4614852,-55.9099998474121
9.4771102,-57.1800003051758
9.4927352,-58.1699981689453
9.5083602,-58.7299995422363
9.5239852,-58.810001373291
9.5396102,-58.4500007629395
9.5552352,-57.7299995422363
9.5708602,-56.6300010681152
9.5864852,-55.0
9.6021102,-52.5999984741211
9.6177352,-49.3300018310547
9.6333602,-45.3499984741211
9.6489852,-41.0800018310547
9.6646102,-36.9199981689453
9.6802352,-33.1100006103516
9.6958602,-29.7099990844727
9.7114852,-26.5799999237061
9.7271102,-23.5200004577637
9.7427352,-20.3600006103516
9.7583602,-17.0599994659424
9.7739852,-13.6599998474121
9.7896102,-10.1999998092651
9.8052352,-6.71000003814697
9.8208602,-3.28999996185303
9.8364852,-0.140000000596046
9.8521102,2.3199999332428
9.8677352,3.78999996185303
9.8833602,4.28999996185303
9.8989852,4.09999990463257
9.9146102,3.59999990463257
9.9302352,3.05999994277954
9.9458602,2.5699999332428
9.9614852,2.15000009536743
9.9771102,1.76999998092651
9.9927352,1.3400000333786
10.0083602,0.790000021457672
10.0239852,0.0599999986588955
10.0396102,-0.850000023841858
10.0552352,-1.92999994754791
10.0708602,-3.1800000667572
10.0864852,-4.61999988555908
10.1021102,-6.21000003814697
10.1177352,-7.8600001335144
10.1333602,-9.46000003814697
10.1489852,-10.9700002670288
10.1646102,-12.5100002288818
10.1802352,-14.1700000762939
10.1958602,-15.9200000762939
10.2114852,-17.5599994659424
10.2271102,-18.9200000762939
10.2427352,-19.9300003051758
10.2583602,-20.6399993896484
10.2739852,-21.1900005340576
10.2896102,-21.7800006866455
10.3052352,-22.5300006866455
10.3208602,-23.4500007629395
10.3364852,-24.3500003814697
10.3521102,-24.9500007629395
10.3677352,-25.0
10.3833602,-24.4099998474121
10.3989852,-23.2000007629395
10.4146102,-21.3600006103516
10.4302352,-18.7299995422363
10.4458602,-15.1400003433228
10.4614852,-10.5900001525879
10.4771102,-5.48999977111816
10.4927352,-0.419999986886978
10.5083602,4.1100001335144
10.5239852,7.94000005722046
10.5396102,11.1599998474121
10.5552352,13.9899997711182
10.5708602,16.6299991607666
10.5864852,19.1800003051758
10.6021102,21.6399993896484
10.6177352,24.0400009155273
10.6333602,26.4200000762939
10.6489852,28.8700008392334
10.6646102,31.3799991607666
10.6802352,33.75
10.6958602,35.5900001525879
10.7114852,36.5699996948242
10.7271102,36.5999984741211
10.7427352,35.8800010681152
10.7583602,34.689998626709
10.7739852,33.2799987792969
10.7896102,31.7999992370605
10.8052352,30.3400001525879
10.8208602,28.9300003051758
10.8364852,27.4799995422363
10.8521102,25.8299999237061
10.8677352,23.7999992370605
10.8833602,21.3600006103516
10.8989852,18.5799999237061
10.9146102,15.5500001907349
10.9302352,12.3000001907349
10.9458602,8.9399995803833
10.9614852,5.67999982833862
10.9771102,2.79999995231628
10.9927352,0.439999997615814
11.0083602,-1.49000000953674
11.0239852,-3.24000000953674
11.0396102,-4.92000007629395
11.0552352,-6.46999979019165
11.0708602,-7.76000022888184
11.0864852,-8.72000026702881
11.1021102,-9.39000034332275
11.1177352,-9.81999969482422
11.1333602,-10.0200004577637
11.1489852,-9.96000003814697
11.1646102,-9.61999988555908
11.1802352,-8.93000030517578
11.1958602,-7.73000001907349
11.2114852,-5.86999988555908
11.2271102,-3.35999989509583
11.2427352,-0.400000005960464
11.2583602,2.8199999332428
11.2739852,6.21999979019165
11.2896102,9.85999965667725
11.3052352,13.710000038147
11.3208602,17.5
11.3364852,20.7999992370605
11.3521102,23.3600006103516
11.3677352,25.1599998474121
11.3833602,26.4400005340576
11.3989852,27.4200000762939
11.4146102,28.2299995422363
11.4302352,28.8600006103516
11.4458602,29.2600002288818
11.4614852,29.4599990844727
11.4771102,29.5599994659424
