Time(s),Value(%)
902.0093332,-59.7799987792969
902.0249582,-62.2599983215332
902.0405832,-64.1100006103516
902.0562082,-65.0800018310547
902.0718332,-65.120002746582
902.0874582,-64.3899993896484
902.1030832,-62.7999992370605
902.1187082,-59.7999992370605
902.1343332,-54.7700004577637
902.1499582,-47.5400009155273
902.1655832,-38.5
902.1812082,-28.1100006103516
902.1968332,-16.75
902.2124582,-4.8899998664856
902.2280832,6.73999977111816
902.2437082,17.3299999237061
902.2593332,26.3299999237061
902.2749582,33.9199981689453
902.2905832,40.5900001525879
902.3062082,46.5200004577637
902.3218332,51.5
902.3374582,55.2700004577637
902.3530832,57.9000015258789
902.3687082,59.6699981689453
902.3843332,60.8300018310547
902.3999582,61.3400001525879
902.4155832,61.0299987792969
902.4312082,59.8600006103516
902.4468332,58.1699981689453
902.4624582,56.5800018310547
902.4780832,55.689998626709
902.4937082,55.7299995422363
902.5093332,56.4700012207031
902.5249582,57.5
902.5405832,58.5999984741211
902.5562082,59.9799995422363
902.5718332,61.9300003051758
902.5874582,64.3499984741211
902.6030832,66.7799987792969
902.6187082,68.7099990844727
902.6343332,69.879997253418
902.6499582,70.3300018310547
902.6655832,70.0999984741211
902.6812082,69.0199966430664
902.6968332,66.8600006103516
902.7124582,63.5999984741211
902.7280832,59.4900016784668
902.7437082,54.9099998474121
902.7593332,50.1699981689453
902.7749582,45.4799995422363
902.7905832,40.9500007629395
902.8062082,36.6199989318848
902.8218332,32.7099990844727
902.8374582,29.3999996185303
902.8530832,27.0799999237061
902.8687082,25.9099998474121
902.8843332,25.7700004577637
902.8999582,26.2700004577637
902.9155832,26.9500007629395
902.9312082,27.5699996948242
902.9468332,28.4099998474121
902.9624582,30.3299999237061
902.9780832,34.2200012207031
902.9937082,40.3300018310547
903.0093332,48.25
903.0249582,57.4300003051758
903.0405832,67.3899993896484
903.0562082,77.5500030517578
903.0718332,86.8399963378906
903.0874582,93.6600036621094
903.1030832,96.6500015258789
903.1187082,95.5999984741211
903.1343332,91.3300018310547
903.1499582,84.9800033569336
903.1655832,77.4400024414063
903.1812082,69.3300018310547
903.1968332,61.1100006103516
903.2124582,53.0499992370605
903.2280832,45.2799987792969
903.2437082,37.75
903.2593332,30.3500003814697
903.2749582,22.9500007629395
903.2905832,15.3500003814697
903.3062082,7.17000007629395
903.3218332,-1.92999994754791
903.3374582,-11.9300003051758
903.3530832,-22.3700008392334
903.3687082,-32.5999984741211
903.3843332,-42.0999984741211
903.3999582,-50.689998626709
903.4155832,-58.2700004577637
903.4312082,-64.5899963378906
903.4468332,-69.3600006103516
903.4624582,-72.5400009155273
903.4780832,-74.4800033569336
903.4937082,-75.6999969482422
903.5093332,-76.6800003051758
903.5249582,-77.6399993896484
903.5405832,-78.5800018310547
903.5562082,-79.3600006103516
903.5718332,-79.7200012207031
903.5874582,-79.2799987792969
903.6030832,-77.7900009155273
903.6187082,-75.25
903.6343332,-71.9899978637695
903.6499582,-68.2900009155273
903.6655832,-63.9500007629395
903.6812082,-58.1199989318848
903.6968332,-50.060001373291
903.7124582,-39.9799995422363
903.7280832,-29.0300006866455
903.7437082,-18.5699996948242
903.7593332,-9.4399995803833
903.7749582,-1.74000000953674
903.7905832,5.25
903.8062082,12.7799997329712
903.8218332,21.8199996948242
903.8374582,32.6599998474121
903.8530832,45.0099983215332
903.8687082,58.5400009155273
903.8843332,73.0400009155273
903.8999582,87.9599990844727
903.9155832,101.790000915527
903.9312082,112.160003662109
903.9468332,117.230003356934
903.9624582,117.120002746582
903.9780832,113.519996643066
903.9937082,108.180000305176
904.0093332,102.080001831055
904.0249582,95.5400009155273
904.0405832,88.6600036621094
904.0562082,81.5500030517578
904.0718332,74.3899993896484
904.0874582,67.3600006103516
904.1030832,60.5699996948242
904.1187082,54.060001373291
904.1343332,47.8800010681152
904.1499582,42.0999984741211
904.1655832,36.7999992370605
904.1812082,31.9200000762939
904.1968332,27.1000003814697
904.2124582,21.6700000762939
904.2280832,15.0600004196167
904.2437082,7.19000005722046
904.2593332,-1.47000002861023
904.2749582,-10.3599996566772
904.2905832,-18.9799995422363
904.3062082,-27.0799999237061
904.3218332,-34.6100006103516
904.3374582,-41.6100006103516
904.3530832,-48.2000007629395
904.3687082,-54.4199981689453
904.3843332,-60.0
904.3999582,-64.2399978637695
904.4155832,-66.4499969482422
904.4312082,-66.5199966430664
904.4468332,-65.0100021362305
904.4624582,-62.8199996948242
904.4780832,-60.7099990844727
904.4937082,-58.9900016784668
904.5093332,-57.1300010681152
904.5249582,-53.8499984741211
904.5405832,-47.9599990844727
904.5562082,-39.1100006103516
904.5718332,-27.7800006866455
904.5874582,-14.5500001907349
904.6030832,0.0700000002980232
904.6187082,15.3699998855591
904.6343332,29.6900005340576
904.6499582,40.5900001525879
904.6655832,46.1399993896484
904.6812082,46.3199996948242
904.6968332,42.6800003051758
904.7124582,36.9000015258789
904.7280832,29.9899997711182
904.7437082,22.4200000762939
904.7593332,14.4799995422363
904.7749582,6.44000005722046
904.7905832,-1.51999998092651
904.8062082,-9.42000007629395
904.8218332,-17.2900009155273
904.8374582,-25.2199993133545
904.8530832,-33.189998626709
904.8687082,-41.2400016784668
904.8843332,-49.3899993896484
904.8999582,-57.5699996948242
904.9155832,-65.7099990844727
904.9312082,-73.8399963378906
904.9468332,-82.1900024414063
904.9624582,-91.120002746582
904.9780832,-100.73999786377
904.9937082,-110.660003662109
905.0093332,-120.169998168945
905.0249582,-128.619995117188
905.0405832,-135.770004272461
905.0562082,-141.759994506836
905.0718332,-147.050003051758
905.0874582,-152.229995727539
905.1030832,-157.729995727539
905.1187082,-163.589996337891
905.1343332,-169.509994506836
905.1499582,-175.020004272461
905.1655832,-179.720001220703
905.1812082,-183.410003662109
905.1968332,-185.789993286133
905.2124582,-186.309997558594
905.2280832,-184.270004272461
905.2437082,-179.300003051758
905.2593332,-171.660003662109
905.2749582,-162.220001220703
905.2905832,-152.139999389648
905.3062082,-142.339996337891
905.3218332,-133.300003051758
905.3374582,-125.01000213623
905.3530832,-117.139999389648
905.3687082,-109.309997558594
905.3843332,-101.209999084473
905.3999582,-92.8099975585938
905.4155832,-84.3399963378906
905.4312082,-76.1600036621094
905.4468332,-68.5599975585938
905.4624582,-61.7099990844727
905.4780832,-55.7599983215332
905.4937082,-51.1100006103516
905.5093332,-48.2000007629395
905.5249582,-47.2000007629395
905.5405832,-47.8199996948242
905.5562082,-49.2799987792969
905.5718332,-50.7099990844727
905.5874582,-51.4900016784668
905.6030832,-51.4700012207031
905.6187082,-50.8300018310547
905.6343332,-50.0699996948242
905.6499582,-49.8600006103516
905.6655832,-50.6800003051758
905.6812082,-52.6199989318848
905.6968332,-55.5400009155273
905.7124582,-59.439998626709
905.7280832,-64.379997253418
905.7437082,-70.1100006103516
905.7593332,-75.8399963378906
905.7749582,-80.3399963378906
905.7905832,-82.8199996948242
905.8062082,-83.4400024414063
905.8218332,-82.5400009155273
905.8374582,-81.0699996948242
905.8530832,-78.9199981689453
905.8687082,-75.870002746582
905.8843332,-71.8899993896484
905.8999582,-67.1900024414063
905.9155832,-61.9500007629395
905.9312082,-56.0900001525879
905.9468332,-49.3899993896484
905.9624582,-41.7700004577637
905.9780832,-33.1599998474121
905.9937082,-23.3799991607666
906.0093332,-12.2700004577637
906.0249582,0.0099999997764825
906.0405832,12.9499998092651
906.0562082,25.9599990844727
906.0718332,38.8400001525879
906.0874582,51.7599983215332
906.1030832,64.8199996948242
906.1187082,77.5100021362305
906.1343332,88.9000015258789
906.1499582,98.3600006103516
906.1655832,105.889999389648
906.1812082,111.940002441406
906.1968332,116.790000915527
906.2124582,120.150001525879
906.2280832,121.51000213623
906.2437082,120.709999084473
906.2593332,118.029998779297
906.2749582,113.940002441406
906.2905832,108.860000610352
906.3062082,103.220001220703
906.3218332,97.5899963378906
906.3374582,92.5400009155273
906.3530832,88.3000030517578
906.3687082,84.4700012207031
906.3843332,80.5400009155273
906.3999582,76.4100036621094
906.4155832,72.5100021362305
906.4312082,69.3399963378906
906.4468332,67.1100006103516
906.4624582,65.5999984741211
906.4780832,64.25
906.4937082,62.2900009155273
906.5093332,59.1399993896484
906.5249582,54.6800003051758
906.5405832,49.0200004577637
906.5562082,42.1500015258789
906.5718332,34.0099983215332
906.5874582,24.8999996185303
906.6030832,15.8299999237061
906.6187082,8.4399995803833
906.6343332,3.97000002861023
906.6499582,2.49000000953674
906.6655832,3.17000007629395
906.6812082,5.30999994277954
906.6968332,8.80000019073486
906.7124582,13.9300003051758
906.7280832,20.8600006103516
906.7437082,29.2999992370605
906.7593332,38.6800003051758
906.7749582,48.5900001525879
906.7905832,59.0999984741211
906.8062082,70.6699981689453
906.8218332,83.0199966430664
906.8374582,95.879997253418
906.8530832,108.110000610352
906.8687082,118.76000213623
906.8843332,127.51000213623
906.8999582,134.600006103516
906.9155832,140.339996337891
906.9312082,144.729995727539
906.9468332,147.610000610352
906.9624582,148.919998168945
906.9780832,148.820007324219
906.9937082,147.490005493164
907.0093332,145.119995117188
907.0249582,141.929992675781
907.0405832,138.190002441406
907.0562082,134.050003051758
907.0718332,129.389999389648
907.0874582,123.930000305176
907.1030832,117.569999694824
907.1187082,110.690002441406
907.1343332,104.019996643066
907.1499582,98.1500015258789
907.1655832,93.2600021362305
907.1812082,89.0899963378906
907.1968332,85.0999984741211
907.2124582,80.629997253418
907.2280832,75.1999969482422
907.2437082,68.7600021362305
907.2593332,61.4099998474121
907.2749582,53.189998626709
907.2905832,44.0299987792969
907.3062082,34.1500015258789
907.3218332,24.3700008392334
907.3374582,15.9200000762939
907.3530832,9.64999961853027
907.3687082,5.40000009536743
907.3843332,2.33999991416931
907.3999582,-0.150000005960464
907.4155832,-2.14000010490417
907.4312082,-3.45000004768372
907.4468332,-4.01999998092651
907.4624582,-3.94000005722046
907.4780832,-3.09999990463257
907.4937082,-0.959999978542328
907.5093332,3.04999995231628
907.5249582,9.06999969482422
907.5405832,16.7800006866455
907.5562082,25.8099994659424
907.5718332,35.9000015258789
907.5874582,46.6300010681152
907.6030832,57.310001373291
907.6187082,67.1100006103516
907.6343332,75.4899978637695
907.6499582,82.5199966430664
907.6655832,88.5
907.6812082,93.379997253418
907.6968332,96.8399963378906
907.7124582,98.6699981689453
907.7280832,99.0699996948242
907.7437082,98.5
907.7593332,97.2799987792969
907.7749582,95.3300018310547
907.7905832,92.370002746582
907.8062082,88.2399978637695
907.8218332,82.6800003051758
907.8374582,76.0
907.8530832,68.2399978637695
907.8687082,59.6399993896484
907.8843332,50.7000007629395
907.8999582,42.0200004577637
907.9155832,33.9000015258789
907.9312082,26.2299995422363
907.9468332,18.8099994659424
907.9624582,11.789999961853
907.9780832,5.59999990463257
907.9937082,0.560000002384186
908.0093332,-3.36999988555908
908.0249582,-6.59999990463257
908.0405832,-9.80000019073486
908.0562082,-13.8000001907349
908.0718332,-19.1499996185303
908.0874582,-25.8500003814697
908.1030832,-33.3699989318848
908.1187082,-40.939998626709
908.1343332,-48.0
908.1499582,-54.2799987792969
908.1655832,-60.0
908.1812082,-65.6100006103516
908.1968332,-71.5999984741211
908.2124582,-78.0999984741211
908.2280832,-84.9000015258789
908.2437082,-91.6399993896484
908.2593332,-97.9800033569336
908.2749582,-103.620002746582
908.2905832,-107.980003356934
908.3062082,-109.98999786377
908.3218332,-108.73999786377
908.3374582,-104.150001525879
908.3530832,-97.1699981689453
908.3687082,-89.2300033569336
908.3843332,-81.7600021362305
908.3999582,-75.8600006103516
908.4155832,-72.0199966430664
908.4312082,-70.0299987792969
908.4468332,-69.1699981689453
908.4624582,-68.7399978637695
908.4780832,-68.4899978637695
908.4937082,-68.7699966430664
908.5093332,-69.9400024414063
908.5249582,-71.7699966430664
908.5405832,-73.5
908.5562082,-74.3899993896484
908.5718332,-74.1800003051758
908.5874582,-73.120002746582
908.6030832,-71.8099975585938
908.6187082,-70.9300003051758
908.6343332,-70.9599990844727
908.6499582,-71.9899978637695
908.6655832,-73.9899978637695
908.6812082,-77.0800018310547
908.6968332,-81.4700012207031
908.7124582,-86.9400024414063
908.7280832,-92.5599975585938
908.7437082,-96.8499984741211
908.7593332,-98.75
908.7749582,-98.4800033569336
908.7905832,-97.0400009155273
908.8062082,-95.120002746582
908.8218332,-92.379997253418
908.8374582,-89.0100021362305
908.8530832,-84.9000015258789
908.8687082,-80.2699966430664
908.8843332,-75.5599975585938
908.8999582,-71.3000030517578
908.9155832,-67.8499984741211
908.9312082,-65.2300033569336
908.9468332,-63.1199989318848
908.9624582,-61.0900001525879
908.9780832,-58.75
908.9937082,-55.8899993896484
909.0093332,-52.2099990844727
909.0249582,-47.060001373291
909.0405832,-39.7599983215332
909.0562082,-29.9799995422363
909.0718332,-18.1700000762939
909.0874582,-5.34999990463257
909.1030832,7.28000020980835
909.1187082,18.8600006103516
909.1343332,29.0900001525879
909.1499582,38.1199989318848
909.1655832,46.2700004577637
909.1812082,53.7999992370605
909.1968332,60.8300018310547
909.2124582,67.3300018310547
909.2280832,73.2099990844727
909.2437082,78.3099975585938
909.2593332,82.5100021362305
909.2749582,85.8099975585938
909.2905832,88.2600021362305
909.3062082,89.7699966430664
909.3218332,90.1399993896484
909.3374582,89.1900024414063
909.3530832,87.0299987792969
909.3687082,84.0699996948242
909.3843332,80.7799987792969
909.3999582,77.2799987792969
909.4155832,73.4199981689453
909.4312082,69.0599975585938
909.4468332,64.4000015258789
909.4624582,59.9000015258789
909.4780832,55.9300003051758
909.4937082,52.3899993896484
909.5093332,49.0099983215332
909.5249582,45.7200012207031
909.5405832,42.7900009155273
909.5562082,40.4599990844727
909.5718332,38.7799987792969
909.5874582,37.5499992370605
909.6030832,36.3699989318848
909.6187082,34.8199996948242
909.6343332,32.5999984741211
909.6499582,29.7099990844727
909.6655832,26.3600006103516
909.6812082,22.8600006103516
909.6968332,19.4099998474121
909.7124582,16.2000007629395
909.7280832,13.5299997329712
909.7437082,11.960000038147
909.7593332,12.1999998092651
909.7749582,14.6800003051758
909.7905832,19.3400001525879
909.8062082,25.5699996948242
909.8218332,32.3400001525879
909.8374582,38.8600006103516
909.8530832,44.6399993896484
909.8687082,49.5800018310547
909.8843332,53.9500007629395
909.8999582,58.2200012207031
909.9155832,62.810001373291
909.9312082,67.8099975585938
909.9468332,72.9899978637695
909.9624582,78.0
909.9780832,82.5299987792969
909.9937082,86.370002746582
910.0093332,89.1800003051758
910.0249582,90.379997253418
910.0405832,89.379997253418
910.0562082,86.0699996948242
910.0718332,80.9000015258789
910.0874582,74.6999969482422
910.1030832,68.2900009155273
910.1187082,62.2400016784668
910.1343332,56.7200012207031
910.1499582,51.6399993896484
910.1655832,46.689998626709
910.1812082,41.5
910.1968332,35.7999992370605
910.2124582,29.5599994659424
910.2280832,22.8600006103516
910.2437082,15.710000038147
910.2593332,8.10999965667725
910.2749582,0.159999996423721
910.2905832,-7.69000005722046
910.3062082,-14.8299999237061
910.3218332,-20.8299999237061
910.3374582,-25.8199996948242
910.3530832,-30.25
910.3687082,-34.3600006103516
910.3843332,-38.1100006103516
910.3999582,-41.2999992370605
910.4155832,-43.9000015258789
910.4312082,-45.9900016784668
910.4468332,-47.7700004577637
910.4624582,-49.3899993896484
910.4780832,-50.9500007629395
910.4937082,-52.4099998474121
910.5093332,-53.5299987792969
910.5249582,-53.8699989318848
910.5405832,-53.0400009155273
910.5562082,-50.9700012207031
910.5718332,-47.9000015258789
910.5874582,-44.0099983215332
910.6030832,-39.2099990844727
910.6187082,-33.189998626709
910.6343332,-25.8700008392334
910.6499582,-17.8700008392334
910.6655832,-10.2399997711182
910.6812082,-3.8199999332428
910.6968332,1.10000002384186
910.7124582,4.80999994277954
910.7280832,7.6399998664856
910.7437082,9.72999954223633
910.7593332,11.0100002288818
910.7749582,11.4499998092651
910.7905832,11.1300001144409
910.8062082,10.2299995422363
910.8218332,8.90999984741211
910.8374582,7.34000015258789
910.8530832,5.53999996185303
910.8687082,3.32999992370605
910.8843332,0.409999996423721
910.8999582,-3.38000011444092
910.9155832,-7.96000003814697
910.9312082,-12.9099998474121
910.9468332,-17.7299995422363
910.9624582,-22.0499992370605
910.9780832,-25.7600002288818
910.9937082,-28.9899997711182
911.0093332,-32.0400009155273
911.0249582,-35.2599983215332
911.0405832,-38.9300003051758
911.0562082,-43.0800018310547
911.0718332,-47.6300010681152
911.0874582,-52.5400009155273
911.1030832,-57.810001373291
911.1187082,-63.3300018310547
911.1343332,-68.6800003051758
911.1499582,-73.25
911.1655832,-76.629997253418
911.1812082,-78.9199981689453
911.1968332,-80.5599975585938
911.2124582,-81.8399963378906
911.2280832,-82.7699966430664
911.2437082,-83.2600021362305
911.2593332,-83.2600021362305
911.2749582,-82.7900009155273
911.2905832,-81.629997253418
911.3062082,-79.1699981689453
911.3218332,-74.8199996948242
911.3374582,-68.4499969482422
911.3530832,-60.3899993896484
911.3687082,-50.9599990844727
911.3843332,-40.439998626709
911.3999582,-29.2299995422363
911.4155832,-18.1000003814697
911.4312082,-8.0600004196167
911.4468332,0.189999997615814
911.4624582,6.69999980926514
911.4780832,11.8699998855591
911.4937082,15.9200000762939
911.5093332,18.7399997711182
911.5249582,20.2199993133545
911.5405832,20.5799999237061
911.5562082,20.2199993133545
911.5718332,19.4599990844727
911.5874582,18.2999992370605
911.6030832,16.5499992370605
911.6187082,14.0299997329712
911.6343332,10.8299999237061
911.6499582,7.23000001907349
911.6655832,3.58999991416931
911.6812082,0.189999997615814
911.6968332,-2.85999989509583
911.7124582,-5.61999988555908
911.7280832,-8.28999996185303
911.7437082,-11.1899995803833
911.7593332,-14.5799999237061
911.7749582,-18.5100002288818
911.7905832,-22.8799991607666
911.8062082,-27.6000003814697
911.8218332,-32.6599998474121
911.8374582,-37.8899993896484
911.8530832,-42.9500007629395
911.8687082,-47.3199996948242
911.8843332,-50.6800003051758
911.8999582,-53.1300010681152
911.9155832,-55.0200004577637
911.9312082,-56.5900001525879
911.9468332,-57.8300018310547
911.9624582,-58.6199989318848
911.9780832,-58.939998626709
911.9937082,-58.8300018310547
912.0093332,-58.2200012207031
912.0249582,-56.7999992370605
912.0405832,-54.2599983215332
912.0562082,-50.5
912.0718332,-45.5900001525879
912.0874582,-39.4900016784668
912.1030832,-32.1599998474121
912.1187082,-23.7999992370605
912.1343332,-15.0200004577637
912.1499582,-6.57999992370605
912.1655832,1.0900000333786
912.1812082,8.1899995803833
912.1968332,15.039999961853
912.2124582,21.5499992370605
912.2280832,27.1900005340576
912.2437082,31.5
912.2593332,34.4599990844727
912.2749582,36.4099998474121
912.2905832,37.6699981689453
912.3062082,38.2599983215332
912.3218332,38.0200004577637
912.3374582,36.8600006103516
912.3530832,34.9500007629395
912.3687082,32.5999984741211
912.3843332,30.1299991607666
912.3999582,27.7299995422363
912.4155832,25.4300003051758
912.4312082,23.1100006103516
912.4468332,20.5200004577637
912.4624582,17.3999996185303
912.4780832,13.6300001144409
912.4937082,9.39000034332275
912.5093332,5.03000020980835
912.5249582,0.920000016689301
912.5405832,-2.75
912.5562082,-5.98000001907349
912.5718332,-8.92000007629395
912.5874582,-11.8500003814697
912.6030832,-14.960000038147
912.6187082,-18.3400001525879
912.6343332,-22.0100002288818
912.6499582,-26.1000003814697
912.6655832,-30.7399997711182
912.6812082,-35.8300018310547
912.6968332,-40.939998626709
912.7124582,-45.3499984741211
912.7280832,-48.5099983215332
912.7437082,-50.2799987792969
912.7593332,-50.9000015258789
