Time(s),Value(%)
745.0134825,-31.6100006103516
745.0291075,-33.9900016784668
745.0447325,-36.310001373291
745.0603575,-38.310001373291
745.0759825,-39.5
745.0916075,-39.4700012207031
745.1072325,-38.1500015258789
745.1228575,-35.810001373291
745.1384825,-32.9199981689453
745.1541075,-29.8799991607666
745.1697325,-26.9300003051758
745.1853575,-24.1900005340576
745.2009825,-21.6800003051758
745.2166075,-19.4200000762939
745.2322325,-17.5
745.2478575,-16.0100002288818
745.2634825,-14.960000038147
745.2791075,-14.3100004196167
745.2947325,-13.9899997711182
745.3103575,-13.9700002670288
745.3259825,-14.1499996185303
745.3416075,-14.3999996185303
745.3572325,-14.5299997329712
745.3728575,-14.460000038147
745.3884825,-14.3100004196167
745.4041075,-14.3000001907349
745.4197325,-14.4899997711182
745.4353575,-14.789999961853
745.4509825,-15.039999961853
745.4666075,-15.1400003433228
745.4822325,-15.0799999237061
745.4978575,-14.9700002670288
745.5134825,-14.9700002670288
745.5291075,-15.210000038147
745.5447325,-15.7399997711182
745.5603575,-16.5799999237061
745.5759825,-17.8199996948242
745.5916075,-19.5400009155273
745.6072325,-21.6900005340576
745.6228575,-23.9500007629395
745.6384825,-25.8199996948242
745.6541075,-26.9099998474121
745.6697325,-27.1599998474121
745.6853575,-26.7399997711182
745.7009825,-25.8299999237061
745.7166075,-24.4500007629395
745.7322325,-22.5400009155273
745.7478575,-20.0900001525879
745.7634825,-17.2299995422363
745.7791075,-14.1700000762939
745.7947325,-11.0600004196167
745.8103575,-7.94000005722046
745.8259825,-4.78000020980835
745.8416075,-1.60000002384186
745.8572325,1.42999994754791
745.8728575,4.13000011444092
745.8884825,6.34999990463257
745.9041075,8.11999988555908
745.9197325,9.5600004196167
745.9353575,10.8000001907349
745.9509825,11.9300003051758
745.9666075,12.960000038147
745.9822325,13.8800001144409
745.9978575,14.6999998092651
746.0134825,15.4700002670288
746.0291075,16.2399997711182
746.0447325,17.0499992370605
746.0603575,17.8400001525879
746.0759825,18.5
746.0916075,18.8999996185303
746.1072325,18.9599990844727
746.1228575,18.6599998474121
746.1384825,18.0200004577637
746.1541075,17.1299991607666
746.1697325,16.0799999237061
746.1853575,14.9700002670288
746.2009825,13.8699998855591
746.2166075,12.7600002288818
746.2322325,11.5600004196167
746.2478575,10.1700000762939
746.2634825,8.56999969482422
746.2791075,6.80999994277954
746.2947325,4.98999977111816
746.3103575,3.22000002861023
746.3259825,1.55999994277954
746.3416075,0.0900000035762787
746.3572325,-1.04999995231628
746.3728575,-1.64999997615814
746.3884825,-1.50999999046326
746.4041075,-0.550000011920929
746.4197325,1.08000004291534
746.4353575,3.07999992370605
746.4509825,5.1100001335144
746.4666075,6.92000007629395
746.4822325,8.4399995803833
746.4978575,9.80000019073486
746.5134825,11.3000001907349
746.5291075,13.1899995803833
746.5447325,15.5500001907349
746.5603575,18.3400001525879
746.5759825,21.4899997711182
746.5916075,24.9599990844727
746.6072325,28.6299991607666
746.6228575,32.0699996948242
746.6384825,34.689998626709
746.6541075,36.0200004577637
746.6697325,36.0800018310547
746.6853575,35.25
746.7009825,33.9099998474121
746.7166075,32.2599983215332
746.7322325,30.3500003814697
746.7478575,28.2299995422363
746.7634825,25.9899997711182
746.7791075,23.7199993133545
746.7947325,21.5
746.8103575,19.3899993896484
746.8259825,17.3799991607666
746.8416075,15.460000038147
746.8572325,13.6000003814697
746.8728575,11.7799997329712
746.8884825,10.0
746.9041075,8.15999984741211
746.9197325,6.1100001335144
746.9353575,3.70000004768372
746.9509825,0.930000007152557
746.9666075,-2.05999994277954
746.9822325,-5.09000015258789
746.9978575,-8.02000045776367
747.0134825,-10.75
747.0291075,-13.289999961853
747.0447325,-15.6000003814697
747.0603575,-17.4400005340576
747.0759825,-18.2399997711182
747.0916075,-17.4699993133545
747.1072325,-15.0299997329712
747.1228575,-11.1999998092651
747.1384825,-6.32000017166138
747.1541075,-0.670000016689301
747.1697325,5.38000011444092
747.1853575,11.1899995803833
747.2009825,15.8299999237061
747.2166075,18.6700000762939
747.2322325,19.8299999237061
747.2478575,19.9400005340576
747.2634825,19.4799995422363
747.2791075,18.5400009155273
747.2947325,17.0499992370605
747.3103575,15.0500001907349
747.3259825,12.6899995803833
747.3416075,10.2399997711182
747.3572325,7.96000003814697
747.3728575,5.98999977111816
747.3884825,4.34999990463257
747.4041075,2.99000000953674
747.4197325,1.92999994754791
747.4353575,1.16999995708466
747.4509825,0.670000016689301
747.4666075,0.119999997317791
747.4822325,-0.949999988079071
747.4978575,-3.0
747.5134825,-6.01000022888184
747.5291075,-9.65999984741211
747.5447325,-13.5500001907349
747.5603575,-17.4099998474121
747.5759825,-21.1499996185303
747.5916075,-24.7399997711182
747.6072325,-28.1700000762939
747.6228575,-31.3799991607666
747.6384825,-34.2700004577637
747.6541075,-36.7400016784668
747.6697325,-38.7200012207031
747.6853575,-40.0400009155273
747.7009825,-40.3400001525879
747.7166075,-39.2900009155273
747.7322325,-36.9199981689453
747.7478575,-33.75
747.7634825,-30.5400009155273
747.7791075,-27.7099990844727
747.7947325,-25.0900001525879
747.8103575,-22.2900009155273
747.8259825,-19.3999996185303
747.8416075,-16.9200000762939
747.8572325,-15.3599996566772
747.8728575,-14.8299999237061
747.8884825,-15.0600004196167
747.9041075,-15.6499996185303
747.9197325,-16.2900009155273
747.9353575,-16.8600006103516
747.9509825,-17.3700008392334
747.9666075,-17.7700004577637
747.9822325,-17.8999996185303
747.9978575,-17.5699996948242
748.0134825,-16.7700004577637
748.0291075,-15.8699998855591
748.0447325,-15.5500001907349
748.0603575,-16.3700008392334
748.0759825,-18.3899993896484
748.0916075,-21.2399997711182
748.1072325,-24.4500007629395
748.1228575,-27.7600002288818
748.1384825,-31.0
748.1541075,-34.1100006103516
748.1697325,-37.0299987792969
748.1853575,-39.8199996948242
748.2009825,-42.5900001525879
748.2166075,-45.4799995422363
748.2322325,-48.5400009155273
748.2478575,-51.7400016784668
748.2634825,-54.939998626709
748.2791075,-58.0200004577637
748.2947325,-60.8899993896484
748.3103575,-63.4799995422363
748.3259825,-65.7300033569336
748.3416075,-67.4300003051758
748.3572325,-68.129997253418
748.3728575,-67.4000015258789
748.3884825,-65.1699981689453
748.4041075,-61.6399993896484
748.4197325,-56.9799995422363
748.4353575,-51.310001373291
748.4509825,-44.9099998474121
748.4666075,-38.4000015258789
748.4822325,-32.6399993896484
748.4978575,-28.2399997711182
748.5134825,-25.1700000762939
748.5291075,-23.0300006866455
748.5447325,-21.5400009155273
748.5603575,-20.7299995422363
748.5759825,-20.6499996185303
748.5916075,-21.2099990844727
748.6072325,-22.1100006103516
748.6228575,-23.0499992370605
748.6384825,-23.8400001525879
748.6541075,-24.3799991607666
748.6697325,-24.7299995422363
748.6853575,-24.9200000762939
748.7009825,-24.9500007629395
748.7166075,-24.7800006866455
748.7322325,-24.4300003051758
748.7478575,-24.0599994659424
748.7634825,-23.9899997711182
748.7791075,-24.5300006866455
748.7947325,-25.7399997711182
748.8103575,-27.4500007629395
748.8259825,-29.3700008392334
748.8416075,-31.2900009155273
748.8572325,-33.0499992370605
748.8728575,-34.5999984741211
748.8884825,-35.9599990844727
748.9041075,-37.2299995422363
748.9197325,-38.5999984741211
748.9353575,-40.25
748.9509825,-42.189998626709
748.9666075,-44.1599998474121
748.9822325,-45.7799987792969
748.9978575,-46.689998626709
749.0134825,-46.7799987792969
749.0291075,-46.1100006103516
749.0447325,-44.7799987792969
749.0603575,-42.7400016784668
749.0759825,-39.7999992370605
749.0916075,-35.9199981689453
749.1072325,-31.3799991607666
749.1228575,-26.7600002288818
749.1384825,-22.5400009155273
749.1541075,-18.9300003051758
749.1697325,-15.8599996566772
749.1853575,-13.1499996185303
749.2009825,-10.6899995803833
749.2166075,-8.46000003814697
749.2322325,-6.44999980926514
749.2478575,-4.61999988555908
749.2634825,-2.88000011444092
749.2791075,-1.13999998569489
749.2947325,0.620000004768372
749.3103575,2.29999995231628
749.3259825,3.61999988555908
749.3416075,4.28999996185303
749.3572325,4.19999980926514
749.3728575,3.48000001907349
749.3884825,2.39000010490417
749.4041075,1.24000000953674
749.4197325,0.230000004172325
749.4353575,-0.550000011920929
749.4509825,-1.12999999523163
749.4666075,-1.64999997615814
749.4822325,-2.33999991416931
749.4978575,-3.40000009536743
749.5134825,-4.86999988555908
749.5291075,-6.69000005722046
749.5447325,-8.85999965667725
749.5603575,-11.3500003814697
749.5759825,-14.0799999237061
749.5916075,-16.75
749.6072325,-18.9300003051758
749.6228575,-20.2299995422363
749.6384825,-20.5799999237061
749.6541075,-20.0799999237061
749.6697325,-18.8899993896484
749.6853575,-17.1100006103516
749.7009825,-14.8500003814697
749.7166075,-12.289999961853
749.7322325,-9.60000038146973
749.7478575,-6.75
749.7634825,-3.50999999046326
749.7791075,0.400000005960464
749.7947325,5.05999994277954
749.8103575,10.210000038147
749.8259825,15.4399995803833
749.8416075,20.3700008392334
749.8572325,24.7700004577637
749.8728575,28.5100002288818
749.8884825,31.4099998474121
749.9041075,33.310001373291
749.9197325,34.1800003051758
749.9353575,34.2299995422363
749.9509825,33.8400001525879
749.9666075,33.4099998474121
749.9822325,33.189998626709
749.9978575,33.25
750.0134825,33.5
750.0291075,33.7700004577637
750.0447325,33.8600006103516
750.0603575,33.6399993896484
750.0759825,33.0800018310547
750.0916075,32.1800003051758
750.1072325,30.8299999237061
750.1228575,28.9200000762939
750.1384825,26.5
750.1541075,23.8799991607666
750.1697325,21.5300006866455
750.1853575,19.6900005340576
750.2009825,18.2299995422363
750.2166075,16.8400001525879
750.2322325,15.4300003051758
750.2478575,14.210000038147
750.2634825,13.4200000762939
750.2791075,13.1700000762939
750.2947325,13.3699998855591
750.3103575,13.8800001144409
750.3259825,14.6400003433228
750.3416075,15.6499996185303
750.3572325,16.9400005340576
750.3728575,18.4799995422363
750.3884825,20.2700004577637
750.4041075,22.2999992370605
750.4197325,24.5300006866455
750.4353575,26.9400005340576
750.4509825,29.6100006103516
750.4666075,32.5800018310547
750.4822325,35.7799987792969
750.4978575,38.9300003051758
750.5134825,41.7400016784668
750.5291075,43.9199981689453
750.5447325,45.3899993896484
750.5603575,46.189998626709
750.5759825,46.5299987792969
750.5916075,46.7099990844727
750.6072325,46.9500007629395
750.6228575,47.3699989318848
750.6384825,47.9099998474121
750.6541075,48.4500007629395
750.6697325,48.939998626709
750.6853575,49.439998626709
750.7009825,50.0200004577637
750.7166075,50.6800003051758
750.7322325,51.3699989318848
750.7478575,51.8499984741211
750.7634825,51.7900009155273
750.7791075,50.8800010681152
750.7947325,49.0699996948242
750.8103575,46.5099983215332
750.8259825,43.3699989318848
750.8416075,39.7400016784668
750.8572325,35.8199996948242
750.8728575,31.9899997711182
750.8884825,28.8199996948242
750.9041075,26.7099990844727
750.9197325,25.5900001525879
750.9353575,25.0599994659424
750.9509825,24.8199996948242
750.9666075,24.7999992370605
750.9822325,25.0499992370605
750.9978575,25.5699996948242
751.0134825,26.3400001525879
751.0291075,27.5100002288818
751.0447325,29.4899997711182
751.0603575,32.7200012207031
751.0759825,37.2999992370605
751.0916075,43.0099983215332
751.1072325,49.5900001525879
751.1228575,56.8699989318848
751.1384825,64.5400009155273
751.1541075,72.0699996948242
751.1697325,78.7799987792969
751.1853575,84.3399963378906
751.2009825,89.0800018310547
751.2166075,93.5699996948242
751.2322325,97.9800033569336
751.2478575,101.949996948242
751.2634825,105.029998779297
751.2791075,107.040000915527
751.2947325,108.169998168945
751.3103575,108.949996948242
751.3259825,110.080001831055
751.3416075,112.080001831055
751.3572325,115.069999694824
751.3728575,118.959999084473
751.3884825,123.75
751.4041075,129.529998779297
751.4197325,136.029998779297
751.4353575,142.320007324219
751.4509825,146.949996948242
751.4666075,148.880004882813
751.4822325,148.270004272461
751.4978575,146.080001831055
751.5134825,143.080001831055
751.5291075,139.470001220703
751.5447325,135.110000610352
751.5603575,129.979995727539
751.5759825,124.290000915527
751.5916075,118.5
751.6072325,113.129997253418
751.6228575,108.569999694824
751.6384825,104.930000305176
751.6541075,102.23999786377
751.6697325,100.699996948242
751.6853575,100.569999694824
751.7009825,101.650001525879
751.7166075,103.050003051758
751.7322325,103.349998474121
751.7478575,101.550003051758
751.7634825,97.8300018310547
751.7791075,93.0800018310547
751.7947325,87.9199981689453
751.8103575,82.3300018310547
751.8259825,76.0500030517578
751.8416075,69.0199966430664
751.8572325,61.4599990844727
751.8728575,53.8499984741211
751.8884825,46.6699981689453
751.9041075,40.25
751.9197325,34.6599998474121
751.9353575,29.8799991607666
751.9509825,26.0200004577637
751.9666075,23.2000007629395
751.9822325,21.2900009155273
751.9978575,19.5599994659424
752.0134825,16.8400001525879
752.0291075,12.2200002670288
752.0447325,5.71000003814697
752.0603575,-1.98000001907349
752.0759825,-10.1800003051758
752.0916075,-18.5400009155273
752.1072325,-27.0300006866455
752.1228575,-35.5699996948242
752.1384825,-44.0400009155273
752.1541075,-52.189998626709
752.1697325,-59.7099990844727
752.1853575,-66.4100036621094
752.2009825,-72.2600021362305
752.2166075,-77.3199996948242
752.2322325,-81.6600036621094
752.2478575,-85.3099975585938
752.2634825,-88.4000015258789
752.2791075,-91.3099975585938
752.2947325,-94.6699981689453
752.3103575,-98.8399963378906
752.3259825,-103.599998474121
752.3416075,-108.290000915527
752.3572325,-112.449996948242
752.3728575,-116.029998779297
752.3884825,-119.26000213623
752.4041075,-122.379997253418
752.4197325,-125.480003356934
752.4353575,-128.440002441406
752.4509825,-130.910003662109
752.4666075,-132.610000610352
752.4822325,-133.410003662109
752.4978575,-133.330001831055
752.5134825,-132.300003051758
752.5291075,-130.270004272461
752.5447325,-127.400001525879
752.5603575,-124.330001831055
752.5759825,-122.019996643066
752.5916075,-121.180000305176
752.6072325,-121.73999786377
752.6228575,-123.080001831055
752.6384825,-124.680000305176
752.6541075,-126.379997253418
752.6697325,-128.25
752.6853575,-130.300003051758
752.7009825,-132.429992675781
752.7166075,-134.479995727539
752.7322325,-136.300003051758
752.7478575,-137.830001831055
752.7634825,-139.070007324219
752.7791075,-140.050003051758
752.7947325,-140.820007324219
752.8103575,-141.389999389648
752.8259825,-141.789993286133
752.8416075,-142.080001831055
752.8572325,-142.419998168945
752.8728575,-142.929992675781
752.8884825,-143.630004882813
752.9041075,-144.360000610352
752.9197325,-144.880004882813
752.9353575,-144.899993896484
752.9509825,-144.289993286133
752.9666075,-143.089996337891
752.9822325,-141.600006103516
752.9978575,-140.160003662109
753.0134825,-138.979995727539
753.0291075,-138.0
753.0447325,-136.979995727539
753.0603575,-135.690002441406
753.0759825,-134.089996337891
753.0916075,-132.300003051758
753.1072325,-130.460006713867
753.1228575,-128.669998168945
753.1384825,-126.900001525879
753.1541075,-125.129997253418
753.1697325,-123.419998168945
753.1853575,-121.809997558594
753.2009825,-120.309997558594
753.2166075,-118.839996337891
753.2322325,-117.199996948242
753.2478575,-115.26000213623
753.2634825,-112.949996948242
753.2791075,-110.349998474121
753.2947325,-107.580001831055
753.3103575,-104.730003356934
753.3259825,-101.790000915527
753.3416075,-98.6999969482422
753.3572325,-95.4300003051758
753.3728575,-92.0599975585938
753.3884825,-88.6800003051758
753.4041075,-85.3300018310547
753.4197325,-81.9700012207031
753.4353575,-78.4599990844727
753.4509825,-74.4700012207031
753.4666075,-69.75
753.4822325,-64.2799987792969
753.4978575,-58.2999992370605
753.5134825,-52.1500015258789
753.5291075,-46.1399993896484
753.5447325,-40.4599990844727
753.5603575,-35.2999992370605
753.5759825,-30.8899993896484
753.5916075,-27.3099994659424
753.6072325,-24.2600002288818
753.6228575,-21.1499996185303
753.6384825,-17.5100002288818
753.6541075,-13.2600002288818
753.6697325,-8.60000038146973
753.6853575,-3.86999988555908
753.7009825,0.689999997615814
753.7166075,5.17999982833862
753.7322325,9.93000030517578
753.7478575,15.3299999237061
753.7634825,21.5100002288818
753.7791075,28.2299995422363
753.7947325,35.0400009155273
753.8103575,41.560001373291
753.8259825,47.560001373291
753.8416075,53.0099983215332
753.8572325,57.9500007629395
753.8728575,62.4500007629395
753.8884825,66.629997253418
753.9041075,70.7600021362305
753.9197325,75.2600021362305
753.9353575,80.5199966430664
753.9509825,86.5
753.9666075,92.5999984741211
753.9822325,97.7699966430664
753.9978575,101.220001220703
754.0134825,102.970001220703
754.0291075,103.599998474121
754.0447325,103.660003662109
754.0603575,103.410003662109
754.0759825,103.01000213623
754.0916075,102.639999389648
754.1072325,102.410003662109
754.1228575,102.180000305176
754.1384825,101.599998474121
754.1541075,100.400001525879
754.1697325,98.3399963378906
754.1853575,96.1999969482422
754.2009825,94.1999969482422
754.2166075,92.3399963378906
754.2322325,90.4499969482422
754.2478575,88.4199981689453
754.2634825,86.2900009155273
754.2791075,84.3899993896484
754.2947325,83.25
754.3103575,83.3499984741211
754.3259825,84.8199996948242
754.3416075,87.4800033569336
754.3572325,91.2300033569336
754.3728575,96.0299987792969
754.3884825,101.569999694824
754.4041075,107.059997558594
754.4197325,111.339996337891
754.4353575,113.620002746582
754.4509825,114.120002746582
754.4666075,113.660003662109
754.4822325,112.819999694824
754.4978575,111.599998474121
754.5134825,109.769996643066
754.5291075,107.25
754.5447325,104.220001220703
754.5603575,101.110000610352
754.5759825,98.4300003051758
754.5916075,96.5599975585938
754.6072325,95.5800018310547
754.6228575,95.4000015258789
754.6384825,96.0199966430664
754.6541075,97.4400024414063
754.6697325,99.4899978637695
754.6853575,101.440002441406
754.7009825,102.199996948242
754.7166075,100.949996948242
754.7322325,97.8199996948242
754.7478575,93.620002746582
754.7634825,89.0599975585938
754.7791075,84.3899993896484
754.7947325,79.5500030517578
754.8103575,74.4800033569336
754.8259825,69.2200012207031
754.8416075,63.9099998474121
754.8572325,58.6699981689453
754.8728575,53.560001373291
754.8884825,48.6199989318848
754.9041075,43.9199981689453
754.9197325,39.560001373291
754.9353575,35.6599998474121
754.9509825,32.2000007629395
754.9666075,28.8999996185303
754.9822325,25.2800006866455
754.9978575,20.9500007629395
755.0134825,15.9700002670288
755.0291075,10.7299995422363
755.0447325,5.6100001335144
755.0603575,0.790000021457672
755.0759825,-3.74000000953674
755.0916075,-8.06999969482422
755.1072325,-12.2799997329712
755.1228575,-16.4699993133545
755.1384825,-20.8400001525879
755.1541075,-25.5400009155273
755.1697325,-30.5300006866455
755.1853575,-35.7099990844727
755.2009825,-40.9300003051758
755.2166075,-46.0699996948242
755.2322325,-51.0099983215332
755.2478575,-55.6699981689453
755.2634825,-59.9500007629395
755.2791075,-63.8600006103516
755.2947325,-67.5500030517578
755.3103575,-71.2099990844727
755.3259825,-74.8300018310547
755.3416075,-78.3499984741211
755.3572325,-81.6999969482422
755.3728575,-84.9300003051758
755.3884825,-88.0599975585938
755.4041075,-90.9800033569336
755.4197325,-93.4199981689453
755.4353575,-95.1600036621094
755.4509825,-96.2200012207031
755.4666075,-96.75
755.4822325,-96.8499984741211
755.4978575,-96.5500030517578
755.5134825,-95.8399963378906
755.5291075,-94.7799987792969
755.5447325,-93.4300003051758
755.5603575,-91.8199996948242
755.5759825,-89.870002746582
755.5916075,-87.4400024414063
755.6072325,-84.4800033569336
755.6228575,-81.0400009155273
755.6384825,-77.120002746582
755.6541075,-72.7300033569336
755.6697325,-67.9599990844727
755.6853575,-63.0299987792969
755.7009825,-58.2099990844727
755.7166075,-53.6100006103516
755.7322325,-49.1100006103516
