Time(s),Value(%)
745.0134825,10.8400001525879
745.0291075,6.6100001335144
745.0447325,4.34000015258789
745.0603575,2.58999991416931
745.0759825,0.109999999403954
745.0916075,-3.5
745.1072325,-7.71000003814697
745.1228575,-11.2299995422363
745.1384825,-12.9399995803833
745.1541075,-12.9799995422363
745.1697325,-12.8900003433228
745.1853575,-14.3500003814697
745.2009825,-17.8299999237061
745.2166075,-22.5699996948242
745.2322325,-27.4599990844727
745.2478575,-31.8199996948242
745.2634825,-35.4599990844727
745.2791075,-38.25
745.2947325,-39.9799995422363
745.3103575,-40.439998626709
745.3259825,-39.6500015258789
745.3416075,-37.6199989318848
745.3572325,-34.4599990844727
745.3728575,-30.6599998474121
745.3884825,-27.3600006103516
745.4041075,-25.7900009155273
745.4197325,-26.2700004577637
745.4353575,-27.7999992370605
745.4509825,-28.5100002288818
745.4666075,-26.6900005340576
745.4822325,-21.3199996948242
745.4978575,-12.2600002288818
745.5134825,-0.360000014305115
745.5291075,12.5900001525879
745.5447325,24.2600002288818
745.5603575,32.4000015258789
745.5759825,35.7700004577637
745.5916075,34.6199989318848
745.6072325,30.2199993133545
745.6228575,24.0799999237061
745.6384825,17.2900009155273
745.6541075,10.4399995803833
745.6697325,3.74000000953674
745.6853575,-2.75999999046326
745.7009825,-8.81999969482422
745.7166075,-13.75
745.7322325,-16.6800003051758
745.7478575,-17.0699996948242
745.7634825,-15.0200004577637
745.7791075,-11.4200000762939
745.7947325,-7.80000019073486
745.8103575,-5.73999977111816
745.8259825,-5.92999982833862
745.8416075,-7.92999982833862
745.8572325,-10.7200002670288
745.8728575,-13.4300003051758
745.8884825,-15.6800003051758
745.9041075,-17.2900009155273
745.9197325,-18.1399993896484
745.9353575,-18.2700004577637
745.9509825,-18.1000003814697
745.9666075,-18.2000007629395
745.9822325,-18.6399993896484
745.9978575,-18.9400005340576
746.0134825,-18.5799999237061
746.0291075,-17.5900001525879
746.0447325,-16.3700008392334
746.0603575,-15.1899995803833
746.0759825,-14.0299997329712
746.0916075,-12.7799997329712
746.1072325,-11.4499998092651
746.1228575,-10.1000003814697
746.1384825,-8.27999973297119
746.1541075,-4.6399998664856
746.1697325,2.48000001907349
746.1853575,13.5200004577637
746.2009825,26.7099990844727
746.2166075,38.7099990844727
746.2322325,46.2900009155273
746.2478575,48.0200004577637
746.2634825,45.1199989318848
746.2791075,40.4599990844727
746.2947325,36.5499992370605
746.3103575,34.1300010681152
746.3259825,32.4599990844727
746.3416075,30.2800006866455
746.3572325,26.5900001525879
746.3728575,21.0599994659424
746.3884825,14.3100004196167
746.4041075,7.67999982833862
746.4197325,2.48000001907349
746.4353575,-0.639999985694885
746.4509825,-1.83000004291534
746.4666075,-1.82000005245209
746.4822325,-1.79999995231628
746.4978575,-3.0699999332428
746.5134825,-6.38000011444092
746.5291075,-11.3800001144409
746.5447325,-16.7800006866455
746.5603575,-20.9200000762939
746.5759825,-22.6299991607666
746.5916075,-21.9699993133545
746.6072325,-20.0599994659424
746.6228575,-18.2800006866455
746.6384825,-17.3299999237061
746.6541075,-17.0300006866455
746.6697325,-16.8600006103516
746.6853575,-16.5300006866455
746.7009825,-16.0400009155273
746.7166075,-15.5
746.7322325,-14.9899997711182
746.7478575,-14.4200000762939
746.7634825,-13.460000038147
746.7791075,-11.5100002288818
746.7947325,-7.67999982833862
746.8103575,-0.949999988079071
746.8259825,9.05000019073486
746.8416075,21.3999996185303
746.8572325,34.0499992370605
746.8728575,44.6699981689453
746.8884825,51.4900016784668
746.9041075,53.8600006103516
746.9197325,52.3400001525879
746.9353575,48.1599998474121
746.9509825,42.4599990844727
746.9666075,36.0
746.9822325,29.1100006103516
746.9978575,21.7399997711182
747.0134825,13.710000038147
747.0291075,4.86999988555908
747.0447325,-4.6399998664856
747.0603575,-13.9899997711182
747.0759825,-21.5599994659424
747.0916075,-25.7600002288818
747.1072325,-26.1000003814697
747.1228575,-23.4699993133545
747.1384825,-19.6299991607666
747.1541075,-16.4200000762939
747.1697325,-15.1199998855591
747.1853575,-15.9300003051758
747.2009825,-17.8099994659424
747.2166075,-19.1000003814697
747.2322325,-18.5599994659424
747.2478575,-16.1399993896484
747.2634825,-12.8999996185303
747.2791075,-10.4700002670288
747.2947325,-10.1400003433228
747.3103575,-12.1700000762939
747.3259825,-15.8299999237061
747.3416075,-19.9699993133545
747.3572325,-23.2000007629395
747.3728575,-24.1299991607666
747.3884825,-22.1700000762939
747.4041075,-18.0699996948242
747.4197325,-13.4300003051758
747.4353575,-9.64999961853027
747.4509825,-6.88000011444092
747.4666075,-3.88000011444092
747.4822325,1.16999995708466
747.4978575,9.31999969482422
747.5134825,19.8999996185303
747.5291075,30.6599998474121
747.5447325,38.8699989318848
747.5603575,42.7999992370605
747.5759825,42.4500007629395
747.5916075,39.0800018310547
747.6072325,34.189998626709
747.6228575,28.9300003051758
747.6384825,24.0300006866455
747.6541075,19.8199996948242
747.6697325,16.2099990844727
747.6853575,12.7799997329712
747.7009825,9.1899995803833
747.7166075,5.38000011444092
747.7322325,1.50999999046326
747.7478575,-2.17000007629395
747.7634825,-5.3899998664856
747.7791075,-7.8899998664856
747.7947325,-9.5600004196167
747.8103575,-10.3500003814697
747.8259825,-10.1099996566772
747.8416075,-8.93000030517578
747.8572325,-7.44999980926514
747.8728575,-6.75
747.8884825,-7.65999984741211
747.9041075,-10.3599996566772
747.9197325,-14.289999961853
747.9353575,-18.6299991607666
747.9509825,-22.6299991607666
747.9666075,-25.5499992370605
747.9822325,-26.6900005340576
747.9978575,-25.6900005340576
748.0134825,-23.0100002288818
748.0291075,-19.8899993896484
748.0447325,-17.4500007629395
748.0603575,-15.9200000762939
748.0759825,-14.6199998855591
748.0916075,-12.6000003814697
748.1072325,-9.14000034332275
748.1228575,-3.79999995231628
748.1384825,3.60999989509583
748.1541075,13.0100002288818
748.1697325,23.5900001525879
748.1853575,33.8499984741211
748.2009825,41.9700012207031
748.2166075,46.5400009155273
748.2322325,46.9900016784668
748.2478575,43.7200012207031
748.2634825,37.9900016784668
748.2791075,31.5
748.2947325,25.7399997711182
748.3103575,21.4300003051758
748.3259825,18.3199996948242
748.3416075,15.4099998474121
748.3572325,11.6400003433228
748.3728575,6.67999982833862
748.3884825,1.12000000476837
748.4041075,-4.07000017166138
748.4197325,-8.19999980926514
748.4353575,-11.0
748.4509825,-12.539999961853
748.4666075,-13.2700004577637
748.4822325,-13.7799997329712
748.4978575,-14.460000038147
748.5134825,-15.2399997711182
748.5291075,-15.8400001525879
748.5447325,-16.0900001525879
748.5603575,-15.9499998092651
748.5759825,-15.4200000762939
748.5916075,-14.6000003814697
748.6072325,-13.8900003433228
748.6228575,-13.7299995422363
748.6384825,-14.039999961853
748.6541075,-14.1899995803833
748.6697325,-13.7299995422363
748.6853575,-12.9300003051758
748.7009825,-12.6700000762939
748.7166075,-13.6000003814697
748.7322325,-15.5
748.7478575,-17.2299995422363
748.7634825,-17.3199996948242
748.7791075,-14.6599998474121
748.7947325,-8.72999954223633
748.8103575,0.379999995231628
748.8259825,11.8500003814697
748.8416075,24.0100002288818
748.8572325,34.689998626709
748.8728575,42.1199989318848
748.8884825,45.6100006103516
748.9041075,45.560001373291
748.9197325,42.939998626709
748.9353575,38.8600006103516
748.9509825,34.189998626709
748.9666075,29.2600002288818
748.9822325,23.8600006103516
748.9978575,17.7299995422363
749.0134825,11.0299997329712
749.0291075,4.26000022888184
749.0447325,-1.87000000476837
749.0603575,-6.61999988555908
749.0759825,-9.43000030517578
749.0916075,-10.4799995422363
749.1072325,-10.6300001144409
749.1228575,-10.8299999237061
749.1384825,-11.6000003814697
749.1541075,-12.8199996948242
749.1697325,-13.9899997711182
749.1853575,-14.6300001144409
749.2009825,-14.3699998855591
749.2166075,-13.2600002288818
749.2322325,-12.0900001525879
749.2478575,-12.1099996566772
749.2634825,-13.8599996566772
749.2791075,-16.6000003814697
749.2947325,-18.9799995422363
749.3103575,-20.1499996185303
749.3259825,-20.1800003051758
749.3416075,-19.6200008392334
749.3572325,-18.9200000762939
749.3728575,-18.2600002288818
749.3884825,-17.7299995422363
749.4041075,-17.3500003814697
749.4197325,-16.7900009155273
749.4353575,-15.1599998474121
749.4509825,-10.9899997711182
749.4666075,-2.95000004768372
749.4822325,8.89999961853027
749.4978575,22.6399993896484
749.5134825,35.1300010681152
749.5291075,43.6599998474121
749.5447325,47.0499992370605
749.5603575,45.7299995422363
749.5759825,41.0200004577637
749.5916075,34.5699996948242
749.6072325,27.8799991607666
749.6228575,21.8500003814697
749.6384825,16.6000003814697
749.6541075,11.4799995422363
749.6697325,5.63000011444092
749.6853575,-1.17999994754791
749.7009825,-8.01000022888184
749.7166075,-13.1599998474121
749.7322325,-15.3999996185303
749.7478575,-14.789999961853
749.7634825,-12.7299995422363
749.7791075,-11.1800003051758
749.7947325,-11.8199996948242
749.8103575,-15.2600002288818
749.8259825,-20.5900001525879
749.8416075,-25.6800003051758
749.8572325,-28.3899993896484
749.8728575,-27.7900009155273
749.8884825,-24.4899997711182
749.9041075,-20.1200008392334
749.9197325,-16.6700000762939
749.9353575,-15.6999998092651
749.9509825,-17.5900001525879
749.9666075,-21.3199996948242
749.9822325,-25.0200004577637
749.9978575,-27.1499996185303
750.0134825,-27.1100006103516
750.0291075,-25.1700000762939
750.0447325,-21.9099998474121
750.0603575,-17.7800006866455
750.0759825,-13.0200004577637
750.0916075,-7.59999990463257
750.1072325,-1.12999999523163
750.1228575,6.94000005722046
750.1384825,16.7299995422363
750.1541075,27.3099994659424
750.1697325,36.8199996948242
750.1853575,43.3300018310547
750.2009825,45.9199981689453
750.2166075,45.1800003051758
750.2322325,42.4500007629395
750.2478575,38.7700004577637
750.2634825,34.5200004577637
750.2791075,29.8600006103516
750.2947325,25.1299991607666
750.3103575,20.5100002288818
750.3259825,15.7700004577637
750.3416075,10.5299997329712
750.3572325,4.84999990463257
750.3728575,-0.639999985694885
750.3884825,-5.25
750.4041075,-8.61999988555908
750.4197325,-10.8100004196167
750.4353575,-12.1000003814697
750.4509825,-12.6999998092651
750.4666075,-12.6899995803833
750.4822325,-12.3199996948242
750.4978575,-12.0799999237061
750.5134825,-12.3500003814697
750.5291075,-12.9799995422363
750.5447325,-13.5799999237061
750.5603575,-13.9700002670288
750.5759825,-14.289999961853
750.5916075,-14.8000001907349
750.6072325,-15.5500001907349
750.6228575,-16.4599990844727
750.6384825,-17.3799991607666
750.6541075,-18.1499996185303
750.6697325,-18.5100002288818
750.6853575,-18.2800006866455
750.7009825,-17.7299995422363
750.7166075,-17.5
750.7322325,-18.0900001525879
750.7478575,-19.2099990844727
750.7634825,-19.5100002288818
750.7791075,-16.8199996948242
750.7947325,-9.27000045776367
750.8103575,3.34999990463257
750.8259825,18.9699993133545
750.8416075,33.9900016784668
750.8572325,45.0499992370605
750.8728575,50.2799987792969
750.8884825,49.7299995422363
750.9041075,45.1199989318848
750.9197325,38.8199996948242
750.9353575,32.689998626709
750.9509825,27.4699993133545
750.9666075,22.8899993896484
750.9822325,17.9699993133545
750.9978575,11.6999998092651
751.0134825,4.01999998092651
751.0291075,-3.82999992370605
751.0447325,-10.3599996566772
751.0603575,-14.789999961853
751.0759825,-17.4200000762939
751.0916075,-19.0799999237061
751.1072325,-20.3899993896484
751.1228575,-21.4799995422363
751.1384825,-22.1000003814697
751.1541075,-21.8700008392334
751.1697325,-20.6800003051758
751.1853575,-19.0100002288818
751.2009825,-17.75
751.2166075,-17.7800006866455
751.2322325,-19.3700008392334
751.2478575,-22.0200004577637
751.2634825,-24.6700000762939
751.2791075,-26.3199996948242
751.2947325,-26.4200000762939
751.3103575,-24.9899997711182
751.3259825,-22.5699996948242
751.3416075,-19.9899997711182
751.3572325,-17.8400001525879
751.3728575,-16.2600002288818
751.3884825,-15.1899995803833
751.4041075,-14.6400003433228
751.4197325,-14.4300003051758
751.4353575,-13.8500003814697
751.4509825,-11.6400003433228
751.4666075,-6.65999984741211
751.4822325,1.53999996185303
751.4978575,12.3800001144409
751.5134825,24.3400001525879
751.5291075,35.3800010681152
751.5447325,43.4700012207031
751.5603575,47.3199996948242
751.5759825,46.7000007629395
751.5916075,42.5900001525879
751.6072325,36.810001373291
751.6228575,31.0699996948242
751.6384825,26.0100002288818
751.6541075,20.75
751.6697325,14.0299997329712
751.6853575,5.86999988555908
751.7009825,-2.22000002861023
751.7166075,-8.52999973297119
751.7322325,-12.210000038147
751.7478575,-13.0600004196167
751.7634825,-11.1300001144409
751.7791075,-6.96999979019165
751.7947325,-2.1800000667572
751.8103575,1.19000005722046
751.8259825,2.07999992370605
751.8416075,0.759999990463257
751.8572325,-1.73000001907349
751.8728575,-4.55000019073486
751.8884825,-7.28999996185303
751.9041075,-9.68000030517578
751.9197325,-11.460000038147
751.9353575,-12.539999961853
751.9509825,-13.0699996948242
751.9666075,-13.5500001907349
751.9822325,-14.3800001144409
751.9978575,-15.5100002288818
752.0134825,-16.4599990844727
752.0291075,-16.9899997711182
752.0447325,-17.1399993896484
752.0603575,-17.0300006866455
752.0759825,-16.6900005340576
752.0916075,-16.1299991607666
752.1072325,-15.0600004196167
752.1228575,-12.3699998855591
752.1384825,-6.57999992370605
752.1541075,2.92000007629395
752.1697325,15.0799999237061
752.1853575,27.5599994659424
752.2009825,37.9500007629395
752.2166075,44.6699981689453
752.2322325,46.9900016784668
752.2478575,44.8400001525879
752.2634825,38.7900009155273
752.2791075,30.2800006866455
752.2947325,21.4200000762939
752.3103575,13.9899997711182
752.3259825,8.35000038146973
752.3416075,3.65000009536743
752.3572325,-0.839999973773956
752.3728575,-4.73999977111816
752.3884825,-6.98999977111816
752.4041075,-7.11999988555908
752.4197325,-5.75
752.4353575,-4.26000022888184
752.4509825,-3.88000011444092
752.4666075,-5.25
752.4822325,-8.31999969482422
752.4978575,-12.4700002670288
752.5134825,-16.5100002288818
752.5291075,-19.1299991607666
752.5447325,-19.5
752.5603575,-17.7399997711182
752.5759825,-14.8400001525879
752.5916075,-12.0200004577637
752.6072325,-10.1700000762939
752.6228575,-9.68000030517578
752.6384825,-10.5100002288818
752.6541075,-12.1899995803833
752.6697325,-13.960000038147
752.6853575,-15.0500001907349
752.7009825,-14.7299995422363
752.7166075,-12.5200004577637
752.7322325,-8.52999973297119
752.7478575,-3.5
752.7634825,1.97000002861023
752.7791075,8.17000007629395
752.7947325,15.8900003433228
752.8103575,25.4699993133545
752.8259825,35.9599990844727
752.8416075,45.2700004577637
752.8572325,51.1500015258789
752.8728575,52.3800010681152
752.8884825,49.3400001525879
752.9041075,43.75
752.9197325,37.6500015258789
752.9353575,32.3199996948242
752.9509825,27.6499996185303
752.9666075,22.6700000762939
752.9822325,16.5
752.9978575,8.90999984741211
753.0134825,0.389999985694885
753.0291075,-7.88000011444092
753.0447325,-14.4899997711182
753.0603575,-18.4599990844727
753.0759825,-19.8400001525879
753.0916075,-19.5799999237061
753.1072325,-19.1200008392334
753.1228575,-19.8299999237061
753.1384825,-22.3299999237061
753.1541075,-26.2999992370605
753.1697325,-30.5599994659424
753.1853575,-33.4599990844727
753.2009825,-33.6100006103516
753.2166075,-30.8299999237061
753.2322325,-26.4699993133545
753.2478575,-22.5799999237061
753.2634825,-20.7399997711182
753.2791075,-21.2299995422363
753.2947325,-23.0900001525879
753.3103575,-24.7399997711182
753.3259825,-24.8500003814697
753.3416075,-23.1399993896484
753.3572325,-20.4500007629395
753.3728575,-17.9200000762939
753.3884825,-15.9200000762939
753.4041075,-13.4899997711182
753.4197325,-8.67000007629395
753.4353575,0.170000001788139
753.4509825,13.0699996948242
753.4666075,27.8999996185303
753.4822325,41.2999992370605
753.4978575,50.2200012207031
753.5134825,53.3199996948242
753.5291075,51.3699989318848
753.5447325,46.560001373291
753.5603575,41.0800018310547
753.5759825,36.2700004577637
753.5916075,32.6599998474121
753.6072325,30.1200008392334
753.6228575,28.0200004577637
753.6384825,25.3400001525879
753.6541075,21.0400009155273
753.6697325,14.4799995422363
753.6853575,6.07999992370605
753.7009825,-2.75999999046326
753.7166075,-10.5100002288818
753.7322325,-16.2800006866455
753.7478575,-19.9500007629395
753.7634825,-21.9799995422363
753.7791075,-23.0900001525879
753.7947325,-23.8999996185303
753.8103575,-24.8500003814697
753.8259825,-26.2700004577637
753.8416075,-28.2600002288818
753.8572325,-30.4099998474121
753.8728575,-32.1699981689453
753.8884825,-33.25
753.9041075,-33.6599998474121
753.9197325,-33.3699989318848
753.9353575,-32.0999984741211
753.9509825,-29.6399993896484
753.9666075,-26.2199993133545
753.9822325,-22.4699993133545
753.9978575,-19.1000003814697
754.0134825,-16.4500007629395
754.0291075,-14.1300001144409
754.0447325,-11.0600004196167
754.0603575,-5.8600001335144
754.0759825,2.52999997138977
754.0916075,14.0299997329712
754.1072325,27.0200004577637
754.1228575,38.7799987792969
754.1384825,46.6699981689453
754.1541075,49.2200012207031
754.1697325,46.7099990844727
754.1853575,40.7700004577637
754.2009825,33.6800003051758
754.2166075,27.3799991607666
754.2322325,22.5499992370605
754.2478575,18.3600006103516
754.2634825,13.3500003814697
754.2791075,6.71000003814697
754.2947325,-1.00999999046326
754.3103575,-8.40999984741211
754.3259825,-14.1800003051758
754.3416075,-17.7999992370605
754.3572325,-19.5900001525879
754.3728575,-20.4500007629395
754.3884825,-21.1499996185303
754.4041075,-21.9899997711182
754.4197325,-22.7999992370605
754.4353575,-23.3500003814697
754.4509825,-23.6700000762939
754.4666075,-24.1200008392334
754.4822325,-25.0900001525879
754.4978575,-26.7399997711182
754.5134825,-28.8199996948242
754.5291075,-30.4500007629395
754.5447325,-30.2700004577637
754.5603575,-27.4699993133545
754.5759825,-23.25
754.5916075,-21.0400009155273
754.6072325,-24.1299991607666
754.6228575,-32.4300003051758
754.6384825,-41.689998626709
754.6541075,-46.7400016784668
754.6697325,-45.1699981689453
754.6853575,-37.7000007629395
754.7009825,-25.6700000762939
754.7166075,-9.35999965667725
754.7322325,11.1400003433228
754.7478575,34.4799995422363
754.7634825,57.6500015258789
754.7791075,77.2300033569336
754.7947325,90.3000030517578
754.8103575,94.9300003051758
754.8259825,90.9000015258789
754.8416075,80.1999969482422
754.8572325,66.4499969482422
754.8728575,53.3199996948242
754.8884825,43.310001373291
754.9041075,37.1599998474121
754.9197325,33.9599990844727
754.9353575,31.7800006866455
754.9509825,28.6900005340576
754.9666075,23.5699996948242
754.9822325,16.5799999237061
754.9978575,9.09000015258789
755.0134825,2.79999995231628
755.0291075,-1.35000002384186
755.0447325,-3.8199999332428
755.0603575,-5.80000019073486
755.0759825,-8.27000045776367
755.0916075,-11.210000038147
755.1072325,-14.1499996185303
755.1228575,-17.0699996948242
755.1384825,-20.4799995422363
755.1541075,-24.1700000762939
755.1697325,-26.5799999237061
755.1853575,-26.1900005340576
755.2009825,-23.5799999237061
755.2166075,-21.5499992370605
755.2322325,-22.8299999237061
755.2478575,-27.7299995422363
755.2634825,-34.25
755.2791075,-40.1599998474121
755.2947325,-44.3499984741211
755.3103575,-46.25
755.3259825,-44.9799995422363
755.3416075,-39.4599990844727
755.3572325,-29.2900009155273
755.3728575,-14.9799995422363
755.3884825,2.16000008583069
755.4041075,20.2000007629395
755.4197325,36.310001373291
755.4353575,47.25
755.4509825,51.1300010681152
755.4666075,49.0299987792969
755.4822325,44.1500015258789
755.4978575,39.4300003051758
755.5134825,35.7700004577637
755.5291075,32.2099990844727
755.5447325,27.3700008392334
755.5603575,20.7399997711182
755.5759825,13.0500001907349
755.5916075,5.65000009536743
755.6072325,-0.28999999165535
755.6228575,-4.21999979019165
755.6384825,-6.17999982833862
755.6541075,-6.57999992370605
755.6697325,-5.94999980926514
755.6853575,-4.78000020980835
