Time(s),Value(%)
985.0042358,-24.8799991607666
985.0198608,-26.3299999237061
985.0354858,-27.1900005340576
985.0511108,-27.2299995422363
985.0667358,-26.4300003051758
985.0823608,-24.7399997711182
985.0979858,-21.8299999237061
985.1136108,-17.0499992370605
985.1292358,-9.64999961853027
985.1448608,0.790000021457672
985.1604858,13.7200002670288
985.1761108,27.4599990844727
985.1917358,39.9300003051758
985.2073608,49.4300003051758
985.2229858,54.8899993896484
985.2386108,56.0200004577637
985.2542358,53.3199996948242
985.2698608,47.9099998474121
985.2854858,41.1100006103516
985.3011108,34.1199989318848
985.3167358,27.5699996948242
985.3323608,21.2199993133545
985.3479858,14.1599998474121
985.3636108,5.82000017166138
985.3792358,-3.09999990463257
985.3948608,-10.9399995803833
985.4104858,-16.2600002288818
985.4261108,-18.7800006866455
985.4417358,-19.2000007629395
985.4573608,-18.5100002288818
985.4729858,-17.3999996185303
985.4886108,-16.2299995422363
985.5042358,-15.210000038147
985.5198608,-14.5900001525879
985.5354858,-14.75
985.5511108,-16.1399993896484
985.5667358,-18.9400005340576
985.5823608,-22.7800006866455
985.5979858,-26.75
985.6136108,-29.9699993133545
985.6292358,-31.9899997711182
985.6448608,-32.7999992370605
985.6604858,-32.4500007629395
985.6761108,-31.1700000762939
985.6917358,-29.5599994659424
985.7073608,-28.2900009155273
985.7229858,-27.6599998474121
985.7386108,-27.3999996185303
985.7542358,-26.9400005340576
985.7698608,-25.5799999237061
985.7854858,-22.3999996185303
985.8011108,-16.1700000762939
985.8167358,-5.73000001907349
985.8323608,8.93000030517578
985.8479858,26.0799999237061
985.8636108,42.5800018310547
985.8792358,55.1599998474121
985.8948608,61.8400001525879
985.9104858,62.6599998474121
985.9261108,59.4599990844727
985.9417358,54.75
985.9573608,50.3800010681152
985.9729858,46.7900009155273
985.9886108,43.0299987792969
986.0042358,37.5800018310547
986.0198608,29.3799991607666
986.0354858,18.6399993896484
986.0511108,6.92999982833862
986.0667358,-3.64000010490417
986.0823608,-11.539999961853
986.0979858,-16.2900009155273
986.1136108,-18.5200004577637
986.1292358,-19.4899997711182
986.1448608,-20.5100002288818
986.1604858,-22.1900005340576
986.1761108,-24.2099990844727
986.1917358,-25.7199993133545
986.2073608,-26.1200008392334
986.2229858,-25.4099998474121
986.2386108,-24.0900001525879
986.2542358,-22.7700004577637
986.2698608,-21.7999992370605
986.2854858,-21.3500003814697
986.3011108,-21.4400005340576
986.3167358,-22.1800003051758
986.3323608,-23.6100006103516
986.3479858,-25.3999996185303
986.3636108,-26.7299995422363
986.3792358,-26.5
986.3948608,-24.1499996185303
986.4104858,-20.2600002288818
986.4261108,-16.1100006103516
986.4417358,-12.5799999237061
986.4573608,-9.22999954223633
986.4729858,-4.30999994277954
986.4886108,4.1100001335144
986.5042358,16.6900005340576
986.5198608,31.7900009155273
986.5354858,46.0299987792969
986.5511108,56.0
986.5667358,60.0800018310547
986.5823608,59.0900001525879
986.5979858,55.3199996948242
986.6136108,50.8800010681152
986.6292358,46.5999984741211
986.6448608,42.0
986.6604858,36.0499992370605
986.6761108,27.9400005340576
986.6917358,17.5200004577637
986.7073608,5.57000017166138
986.7229858,-6.21999979019165
986.7386108,-16.0300006866455
986.7542358,-22.6299991607666
986.7698608,-25.6900005340576
986.7854858,-25.4899997711182
986.8011108,-22.5900001525879
986.8167358,-17.9599990844727
986.8323608,-13.1400003433228
986.8479858,-9.72999954223633
986.8636108,-8.5
986.8792358,-9.27999973297119
986.8948608,-11.7700004577637
986.9104858,-15.8999996185303
986.9261108,-21.2700004577637
986.9417358,-26.7999992370605
986.9573608,-31.0699996948242
986.9729858,-33.0
986.9886108,-32.2900009155273
987.0042358,-29.5300006866455
987.0198608,-26.0
987.0354858,-23.1299991607666
987.0511108,-21.8500003814697
987.0667358,-22.1299991607666
987.0823608,-23.0799999237061
987.0979858,-23.3099994659424
987.1136108,-21.3700008392334
987.1292358,-16.1499996185303
987.1448608,-7.01999998092651
987.1604858,5.96999979019165
987.1761108,21.7900009155273
987.1917358,38.0999984741211
987.2073608,51.8600006103516
987.2229858,60.4700012207031
987.2386108,62.9199981689453
987.2542358,60.0999984741211
987.2698608,54.0900001525879
987.2854858,47.060001373291
987.3011108,40.1699981689453
987.3167358,33.3899993896484
987.3323608,26.1399993896484
987.3479858,18.1299991607666
987.3636108,9.51000022888184
987.3792358,0.819999992847443
987.3948608,-7.17999982833862
987.4104858,-13.5200004577637
987.4261108,-17.3500003814697
987.4417358,-18.5200004577637
987.4573608,-17.8899993896484
987.4729858,-16.9599990844727
987.4886108,-16.8700008392334
987.5042358,-17.6299991607666
987.5198608,-18.5499992370605
987.5354858,-19.3199996948242
987.5511108,-20.3999996185303
987.5667358,-22.5
987.5823608,-25.7000007629395
987.5979858,-29.2600002288818
987.6136108,-32.1500015258789
987.6292358,-33.7400016784668
987.6448608,-34.0499992370605
987.6604858,-33.5699996948242
987.6761108,-33.0999984741211
987.6917358,-33.2400016784668
987.7073608,-33.7200012207031
987.7229858,-33.3300018310547
987.7386108,-30.8500003814697
987.7542358,-25.9300003051758
987.7698608,-19.0300006866455
987.7854858,-10.4499998092651
987.8011108,0.28999999165535
987.8167358,13.6300001144409
987.8323608,28.5900001525879
987.8479858,42.6599998474121
987.8636108,53.1199989318848
987.8792358,58.5499992370605
987.8948608,59.4099998474121
987.9104858,57.3899993896484
987.9261108,54.3300018310547
987.9417358,51.2599983215332
987.9573608,48.1300010681152
987.9729858,44.1699981689453
987.9886108,38.6199989318848
988.0042358,31.2399997711182
988.0198608,22.3999996185303
988.0354858,12.789999961853
988.0511108,3.07999992370605
988.0667358,-6.19000005722046
988.0823608,-14.4799995422363
988.0979858,-20.9899997711182
988.1136108,-25.0100002288818
988.1292358,-26.2800006866455
988.1448608,-25.2099990844727
988.1604858,-22.8299999237061
988.1761108,-20.4500007629395
988.1917358,-19.0599994659424
988.2073608,-19.0400009155273
988.2229858,-20.0
988.2386108,-21.2099990844727
988.2542358,-21.9200000762939
988.2698608,-21.6599998474121
988.2854858,-20.5300006866455
988.3011108,-19.0599994659424
988.3167358,-17.7000007629395
988.3323608,-16.6399993896484
988.3479858,-15.8999996185303
988.3636108,-15.5100002288818
988.3792358,-15.3999996185303
988.3948608,-15.4200000762939
988.4104858,-15.2799997329712
988.4261108,-14.4799995422363
988.4417358,-12.0200004577637
988.4573608,-6.53000020980835
988.4729858,2.78999996185303
988.4886108,15.4300003051758
988.5042358,29.4500007629395
988.5198608,42.2000007629395
988.5354858,51.3699989318848
988.5511108,55.8199996948242
988.5667358,55.7000007629395
988.5823608,52.0400009155273
988.5979858,46.0800018310547
988.6136108,38.9199981689453
988.6292358,31.4699993133545
988.6448608,24.4099998474121
988.6604858,17.8799991607666
988.6761108,11.2399997711182
988.6917358,3.76999998092651
988.7073608,-4.44999980926514
988.7229858,-12.2399997711182
988.7386108,-18.1499996185303
988.7542358,-21.3999996185303
988.7698608,-22.2900009155273
988.7854858,-21.7999992370605
988.8011108,-21.0900001525879
988.8167358,-21.0599994659424
988.8323608,-21.8700008392334
988.8479858,-22.8899993896484
988.8636108,-23.3500003814697
988.8792358,-23.0799999237061
988.8948608,-22.4300003051758
988.9104858,-21.8199996948242
988.9261108,-21.3600006103516
988.9417358,-20.7700004577637
988.9573608,-19.6800003051758
988.9729858,-18.0900001525879
988.9886108,-16.4699993133545
989.0042358,-15.3400001525879
989.0198608,-14.75
989.0354858,-14.4300003051758
989.0511108,-14.1700000762939
989.0667358,-13.789999961853
989.0823608,-12.5500001907349
989.0979858,-9.0
989.1136108,-1.82000005245209
989.1292358,9.02000045776367
989.1448608,22.0
989.1604858,34.5699996948242
989.1761108,44.2099990844727
989.1917358,49.439998626709
989.2073608,50.310001373291
989.2229858,48.2700004577637
989.2386108,45.4000015258789
989.2542358,43.3600006103516
989.2698608,42.6399993896484
989.2854858,42.4199981689453
989.3011108,41.1800003051758
989.3167358,37.4500007629395
989.3323608,30.5200004577637
989.3479858,20.6800003051758
989.3636108,9.27000045776367
989.3792358,-1.6599999666214
989.3948608,-10.3599996566772
989.4104858,-16.2199993133545
989.4261108,-19.8899993896484
989.4417358,-22.4799995422363
989.4573608,-24.8199996948242
989.4729858,-27.2299995422363
989.4886108,-29.6599998474121
989.5042358,-31.9200000762939
989.5198608,-33.7400016784668
989.5354858,-34.8899993896484
989.5511108,-35.4000015258789
989.5667358,-35.3699989318848
989.5823608,-34.8899993896484
989.5979858,-34.1300010681152
989.6136108,-33.3899993896484
989.6292358,-32.8699989318848
989.6448608,-32.4799995422363
989.6604858,-31.9200000762939
989.6761108,-30.9099998474121
989.6917358,-29.2999992370605
989.7073608,-27.1399993896484
989.7229858,-24.5100002288818
989.7386108,-21.1000003814697
989.7542358,-15.8800001144409
989.7698608,-7.48999977111816
989.7854858,4.55000019073486
989.8011108,18.9699993133545
989.8167358,32.9700012207031
989.8323608,43.7299995422363
989.8479858,49.9300003051758
989.8636108,52.1100006103516
989.8792358,51.6399993896484
989.8948608,49.5400009155273
989.9104858,46.0900001525879
989.9261108,41.3300018310547
989.9417358,35.4900016784668
989.9573608,28.8799991607666
989.9729858,21.6399993896484
989.9886108,13.8299999237061
990.0042358,5.59999990463257
990.0198608,-2.60999989509583
990.0354858,-10.2700004577637
990.0511108,-16.5799999237061
990.0667358,-20.6100006103516
990.0823608,-21.9400005340576
990.0979858,-21.1700000762939
990.1136108,-19.5499992370605
990.1292358,-18.2700004577637
990.1448608,-17.8400001525879
990.1604858,-18.1000003814697
990.1761108,-18.7000007629395
990.1917358,-19.5200004577637
990.2073608,-20.6499996185303
990.2229858,-22.0799999237061
990.2386108,-23.4799995422363
990.2542358,-24.4599990844727
990.2698608,-24.7900009155273
990.2854858,-24.5200004577637
990.3011108,-23.9799995422363
990.3167358,-23.7700004577637
990.3323608,-24.4300003051758
990.3479858,-26.0100002288818
990.3636108,-27.8400001525879
990.3792358,-28.75
990.3948608,-27.3999996185303
990.4104858,-22.2999992370605
990.4261108,-12.1700000762939
990.4417358,2.98000001907349
990.4573608,21.1200008392334
990.4729858,38.5499992370605
990.4886108,51.6300010681152
990.5042358,58.4500007629395
990.5198608,59.3499984741211
990.5354858,56.310001373291
990.5511108,51.7099990844727
990.5667358,47.3899993896484
990.5823608,44.060001373291
990.5979858,41.2099990844727
990.6136108,37.5400009155273
990.6292358,31.8799991607666
990.6448608,23.8400001525879
990.6604858,14.0600004196167
990.6761108,3.86999988555908
990.6917358,-5.30000019073486
990.7073608,-12.4499998092651
990.7229858,-17.0200004577637
990.7386108,-19.0
990.7542358,-19.1800003051758
990.7698608,-18.9500007629395
990.7854858,-19.5300006866455
990.8011108,-21.3799991607666
990.8167358,-24.1800003051758
990.8323608,-27.1499996185303
990.8479858,-29.4200000762939
990.8636108,-30.2999992370605
990.8792358,-29.5
990.8948608,-27.2999992370605
990.9104858,-24.3600006103516
990.9261108,-21.4400005340576
990.9417358,-19.25
990.9573608,-18.3400001525879
990.9729858,-18.8600006103516
990.9886108,-20.5499992370605
991.0042358,-22.7700004577637
991.0198608,-24.7700004577637
991.0354858,-25.6100006103516
991.0511108,-23.6399993896484
991.0667358,-16.8199996948242
991.0823608,-4.15000009536743
991.0979858,12.9099998474121
991.1136108,31.0
991.1292358,46.5699996948242
991.1448608,57.3800010681152
991.1604858,62.810001373291
991.1761108,63.5400009155273
991.1917358,60.810001373291
991.2073608,55.9099998474121
991.2229858,49.8800010681152
991.2386108,43.2900009155273
991.2542358,36.25
991.2698608,28.3700008392334
991.2854858,19.2800006866455
991.3011108,9.39999961853027
991.3167358,0.0900000035762787
991.3323608,-7.01000022888184
991.3479858,-11.1700000762939
991.3636108,-12.8400001525879
991.3792358,-13.25
991.3948608,-13.6800003051758
991.4104858,-14.8299999237061
991.4261108,-16.5100002288818
991.4417358,-17.8299999237061
991.4573608,-18.0799999237061
991.4729858,-17.6100006103516
991.4886108,-17.6299991607666
991.5042358,-19.3899993896484
991.5198608,-23.2199993133545
991.5354858,-28.25
991.5511108,-32.9000015258789
991.5667358,-35.8300018310547
991.5823608,-36.4599990844727
991.5979858,-34.9199981689453
991.6136108,-31.7999992370605
991.6292358,-27.8999996185303
991.6448608,-23.8799991607666
991.6604858,-20.1000003814697
991.6761108,-16.6200008392334
991.6917358,-13.1199998855591
991.7073608,-8.72000026702881
991.7229858,-2.07999992370605
991.7386108,7.69999980926514
991.7542358,20.1299991607666
991.7698608,33.310001373291
991.7854858,45.0900001525879
991.8011108,53.9099998474121
991.8167358,59.0099983215332
991.8323608,60.310001373291
991.8479858,58.3499984741211
991.8636108,54.1800003051758
991.8792358,48.9599990844727
991.8948608,43.3600006103516
991.9104858,37.25
991.9261108,29.9300003051758
991.9417358,20.9799995422363
991.9573608,11.0
991.9729858,1.47000002861023
991.9886108,-6.03000020980835
992.0042358,-10.6599998474121
992.0198608,-12.5600004196167
992.0354858,-12.8199996948242
992.0511108,-13.0500001907349
992.0667358,-14.5799999237061
992.0823608,-17.7600002288818
992.0979858,-21.9300003051758
992.1136108,-26.1299991607666
992.1292358,-29.7199993133545
992.1448608,-32.3800010681152
992.1604858,-34.0299987792969
992.1761108,-34.8499984741211
992.1917358,-34.9599990844727
992.2073608,-34.1199989318848
992.2229858,-32.0900001525879
992.2386108,-29.3099994659424
992.2542358,-26.8999996185303
992.2698608,-25.8099994659424
992.2854858,-25.9699993133545
992.3011108,-26.3299999237061
992.3167358,-25.8600006103516
992.3323608,-24.1700000762939
992.3479858,-21.0200004577637
992.3636108,-15.5799999237061
992.3792358,-6.8899998664856
992.3948608,4.98000001907349
992.4104858,18.5400009155273
992.4261108,31.6499996185303
992.4417358,42.7599983215332
992.4573608,51.2099990844727
992.4729858,56.9000015258789
992.4886108,59.7900009155273
992.5042358,59.7799987792969
992.5198608,57.0400009155273
992.5354858,52.1599998474121
992.5511108,45.8899993896484
992.5667358,38.6300010681152
992.5823608,30.1599998474121
992.5979858,20.1599998474121
992.6136108,9.15999984741211
992.6292358,-1.19000005722046
992.6448608,-8.98999977111816
992.6604858,-13.4499998092651
992.6761108,-15.4099998474121
992.6917358,-16.75
992.7073608,-19.0699996948242
992.7229858,-22.7399997711182
992.7386108,-27.0100002288818
992.7542358,-30.9899997711182
992.7698608,-34.2599983215332
992.7854858,-36.7799987792969
992.8011108,-38.5999984741211
992.8167358,-39.5900001525879
992.8323608,-39.439998626709
992.8479858,-37.8499984741211
992.8636108,-34.9700012207031
992.8792358,-31.4899997711182
992.8948608,-28.2000007629395
992.9104858,-25.3700008392334
992.9261108,-22.6100006103516
992.9417358,-19.7399997711182
992.9573608,-17.1700000762939
992.9729858,-15.3199996948242
992.9886108,-13.3100004196167
993.0042358,-8.68000030517578
993.0198608,0.939999997615814
993.0354858,15.460000038147
993.0511108,31.6700000762939
993.0667358,45.1800003051758
993.0823608,53.1100006103516
993.0979858,55.5
993.1136108,54.3400001525879
993.1292358,51.5900001525879
993.1448608,48.2599983215332
993.1604858,44.6699981689453
993.1761108,41.0299987792969
993.1917358,37.2700004577637
993.2073608,32.7599983215332
993.2229858,26.7600002288818
993.2386108,19.3600006103516
993.2542358,11.8900003433228
993.2698608,6.17000007629395
993.2854858,2.99000000953674
993.3011108,1.05999994277954
993.3167358,-1.89999997615814
993.3323608,-6.94000005722046
993.3479858,-12.8599996566772
993.3636108,-17.7000007629395
993.3792358,-20.6499996185303
993.3948608,-22.5499992370605
993.4104858,-24.7600002288818
993.4261108,-27.8700008392334
993.4417358,-31.3700008392334
993.4573608,-34.2700004577637
993.4729858,-35.9000015258789
993.4886108,-36.3300018310547
993.5042358,-35.9700012207031
993.5198608,-35.0800018310547
993.5354858,-33.75
993.5511108,-32.25
993.5667358,-31.0
993.5823608,-30.3899993896484
993.5979858,-30.2199993133545
993.6136108,-29.1800003051758
993.6292358,-24.9899997711182
993.6448608,-15.7399997711182
993.6604858,-1.61000001430511
993.6761108,14.7299995422363
993.6917358,29.6299991607666
993.7073608,40.2799987792969
993.7229858,45.8499984741211
993.7386108,47.1699981689453
993.7542358,45.9300003051758
993.7698608,43.8600006103516
993.7854858,42.1699981689453
993.8011108,41.1300010681152
993.8167358,40.2400016784668
993.8323608,38.5499992370605
993.8479858,34.7400016784668
993.8636108,27.5900001525879
993.8792358,16.9899997711182
993.8948608,4.51999998092651
993.9104858,-7.23000001907349
993.9261108,-16.0799999237061
993.9417358,-21.25
993.9573608,-23.5
993.9729858,-24.1900005340576
993.9886108,-24.5799999237061
994.0042358,-26.0499992370605
994.0198608,-30.25
994.0354858,-37.7900009155273
994.0511108,-46.7400016784668
994.0667358,-52.9300003051758
994.0823608,-52.75
994.0979858,-46.060001373291
994.1136108,-36.439998626709
994.1292358,-28.4799995422363
994.1448608,-24.6499996185303
994.1604858,-24.1800003051758
994.1761108,-24.4400005340576
994.1917358,-23.5400009155273
994.2073608,-21.4599990844727
994.2229858,-18.8600006103516
994.2386108,-14.7799997329712
994.2542358,-6.67999982833862
994.2698608,6.94999980926514
994.2854858,24.3500003814697
994.3011108,41.2900009155273
994.3167358,54.1500015258789
994.3323608,61.8499984741211
994.3479858,65.1999969482422
994.3636108,65.4300003051758
994.3792358,63.5099983215332
994.3948608,60.1599998474121
994.4104858,56.060001373291
994.4261108,51.9799995422363
994.4417358,48.1100006103516
994.4573608,43.4000015258789
994.4729858,36.4199981689453
994.4886108,27.2600002288818
994.5042358,17.7999992370605
994.5198608,9.88000011444092
994.5354858,4.13000011444092
994.5511108,0.490000009536743
994.5667358,-1.50999999046326
994.5823608,-3.3199999332428
994.5979858,-7.1100001335144
994.6136108,-14.2399997711182
994.6292358,-23.8400001525879
994.6448608,-33.2000007629395
994.6604858,-39.3899993896484
994.6761108,-40.8600006103516
994.6917358,-37.7900009155273
994.7073608,-31.3899993896484
994.7229858,-23.1700000762939
994.7386108,-14.6700000762939
994.7542358,-7.67000007629395
994.7698608,-3.96000003814697
994.7854858,-4.48000001907349
994.8011108,-8.5600004196167
994.8167358,-14.0100002288818
994.8323608,-18.3799991607666
994.8479858,-20.0200004577637
994.8636108,-18.7399997711182
994.8792358,-15.460000038147
994.8948608,-11.1999998092651
994.9104858,-6.05000019073486
994.9261108,0.680000007152557
994.9417358,9.27999973297119
994.9573608,18.4599990844727
994.9729858,25.7000007629395
994.9886108,28.9899997711182
995.0042358,28.4799995422363
995.0198608,26.3899993896484
995.0354858,24.9699993133545
995.0511108,24.5599994659424
995.0667358,23.5699996948242
995.0823608,19.9899997711182
995.0979858,12.8699998855591
995.1136108,2.78999996185303
995.1292358,-8.72999954223633
995.1448608,-19.9599990844727
995.1604858,-29.3500003814697
995.1761108,-35.5800018310547
995.1917358,-37.6599998474121
995.2073608,-35.4300003051758
995.2229858,-30.2299995422363
995.2386108,-24.5699996948242
995.2542358,-20.6200008392334
995.2698608,-19.0
995.2854858,-18.9899997711182
995.3011108,-19.9200000762939
995.3167358,-21.8999996185303
995.3323608,-25.3500003814697
995.3479858,-30.0
995.3636108,-34.7400016784668
995.3792358,-38.25
995.3948608,-39.9799995422363
995.4104858,-40.2700004577637
995.4261108,-39.6100006103516
995.4417358,-37.7599983215332
995.4573608,-33.4599990844727
995.4729858,-25.1900005340576
995.4886108,-12.3100004196167
995.5042358,4.07999992370605
995.5198608,21.3600006103516
995.5354858,36.6800003051758
995.5511108,48.2799987792969
995.5667358,55.810001373291
995.5823608,59.6300010681152
995.5979858,60.4099998474121
995.6136108,59.0200004577637
995.6292358,56.4099998474121
995.6448608,53.0499992370605
995.6604858,48.6500015258789
995.6761108,42.4500007629395
995.6917358,33.8899993896484
995.7073608,23.2000007629395
995.7229858,11.539999961853
995.7386108,0.490000009536743
995.7542358,-8.71000003814697
