Time(s),Value(%)
1612.0137919,-15.5699996948242
1612.0294169,-16.1700000762939
1612.0450419,-16.5499992370605
1612.0606669,-16.7399997711182
1612.0762919,-16.6700000762939
1612.0919169,-16.2600002288818
1612.1075419,-15.5900001525879
1612.1231669,-14.8199996948242
1612.1387919,-14.0900001525879
1612.1544169,-13.3900003433228
1612.1700419,-12.6700000762939
1612.1856669,-11.8599996566772
1612.2012919,-10.9799995422363
1612.2169169,-10.039999961853
1612.2325419,-8.81999969482422
1612.2481669,-6.69000005722046
1612.2637919,-2.6800000667572
1612.2794169,3.71000003814697
1612.2950419,12.0
1612.3106669,20.7000007629395
1612.3262919,28.0200004577637
1612.3419169,32.5900001525879
1612.3575419,34.0800018310547
1612.3731669,33.1800003051758
1612.3887919,31.0100002288818
1612.4044169,28.5599994659424
1612.4200419,26.4500007629395
1612.4356669,24.7999992370605
1612.4512919,23.2999992370605
1612.4669169,21.4599990844727
1612.4825419,18.9599990844727
1612.4981669,15.8000001907349
1612.5137919,12.2799997329712
1612.5294169,8.84000015258789
1612.5450419,5.84999990463257
1612.5606669,3.50999999046326
1612.5762919,1.87000000476837
1612.5919169,0.75
1612.6075419,-0.109999999403954
1612.6231669,-1.00999999046326
1612.6387919,-2.10999989509583
1612.6544169,-3.44000005722046
1612.6700419,-4.98000001907349
1612.6856669,-6.67000007629395
1612.7012919,-8.4399995803833
1612.7169169,-10.1899995803833
1612.7325419,-11.6800003051758
1612.7481669,-12.7799997329712
1612.7637919,-13.5600004196167
1612.7794169,-14.1400003433228
1612.7950419,-14.5799999237061
1612.8106669,-14.8800001144409
1612.8262919,-15.0799999237061
1612.8419169,-15.2700004577637
1612.8575419,-15.4200000762939
1612.8731669,-15.4799995422363
1612.8887919,-15.3999996185303
1612.9044169,-15.1899995803833
1612.9200419,-14.8800001144409
1612.9356669,-14.5900001525879
1612.9512919,-14.3900003433228
1612.9669169,-14.2700004577637
1612.9825419,-14.0
1612.9981669,-12.8800001144409
1613.0137919,-9.88000011444092
1613.0294169,-4.26999998092651
1613.0450419,3.59999990463257
1613.0606669,12.289999961853
1613.0762919,19.8700008392334
1613.0919169,24.9099998474121
1613.1075419,26.9899997711182
1613.1231669,26.6499996185303
1613.1387919,24.9099998474121
1613.1544169,22.6800003051758
1613.1700419,20.5300006866455
1613.1856669,18.6499996185303
1613.2012919,16.9400005340576
1613.2169169,15.1899995803833
1613.2325419,13.2299995422363
1613.2481669,10.9300003051758
1613.2637919,8.21000003814697
1613.2794169,5.15999984741211
1613.2950419,2.13000011444092
1613.3106669,-0.46000000834465
1613.3262919,-2.35999989509583
1613.3419169,-3.50999999046326
1613.3575419,-4.1399998664856
1613.3731669,-4.67000007629395
1613.3887919,-5.40000009536743
1613.4044169,-6.40999984741211
1613.4200419,-7.67999982833862
1613.4356669,-9.18000030517578
1613.4512919,-10.7600002288818
1613.4669169,-12.1499996185303
1613.4825419,-13.1400003433228
1613.4981669,-13.8400001525879
1613.5137919,-14.5299997329712
1613.5294169,-15.3900003433228
1613.5450419,-16.2700004577637
1613.5606669,-16.9200000762939
1613.5762919,-17.1800003051758
1613.5919169,-17.1399993896484
1613.6075419,-16.9699993133545
1613.6231669,-16.8299999237061
1613.6387919,-16.7700004577637
1613.6544169,-16.6599998474121
1613.6700419,-16.3099994659424
1613.6856669,-15.6499996185303
1613.7012919,-14.75
1613.7169169,-13.8000001907349
1613.7325419,-13.0100002288818
1613.7481669,-12.3900003433228
1613.7637919,-11.4799995422363
1613.7794169,-9.32999992370605
1613.7950419,-5.01000022888184
1613.8106669,1.64999997615814
1613.8262919,9.77999973297119
1613.8419169,17.6700000762939
1613.8575419,23.5900001525879
1613.8731669,26.5100002288818
1613.8887919,26.5100002288818
1613.9044169,24.5
1613.9200419,21.6000003814697
1613.9356669,18.8099994659424
1613.9512919,16.6900005340576
1613.9669169,15.2399997711182
1613.9825419,14.0100002288818
1613.9981669,12.4899997711182
1614.0137919,10.4200000762939
1614.0294169,7.84999990463257
1614.0450419,5.11999988555908
1614.0606669,2.65000009536743
1614.0762919,0.730000019073486
1614.0919169,-0.5
1614.1075419,-1.1599999666214
1614.1231669,-1.46000003814697
1614.1387919,-1.70000004768372
1614.1544169,-2.04999995231628
1614.1700419,-2.63000011444092
1614.1856669,-3.53999996185303
1614.2012919,-4.75
1614.2169169,-6.13000011444092
1614.2325419,-7.44999980926514
1614.2481669,-8.44999980926514
1614.2637919,-9.0600004196167
1614.2794169,-9.39999961853027
1614.2950419,-9.67000007629395
1614.3106669,-10.0200004577637
1614.3262919,-10.4099998474121
1614.3419169,-10.7200002670288
1614.3575419,-10.8299999237061
1614.3731669,-10.7700004577637
1614.3887919,-10.6499996185303
1614.4044169,-10.5500001907349
1614.4200419,-10.4499998092651
1614.4356669,-10.3000001907349
1614.4512919,-10.0600004196167
1614.4669169,-9.67000007629395
1614.4825419,-9.10000038146973
1614.4981669,-8.19999980926514
1614.5137919,-6.57999992370605
1614.5294169,-3.76999998092651
1614.5450419,0.449999988079071
1614.5606669,5.94999980926514
1614.5762919,12.0600004196167
1614.5919169,17.7700004577637
1614.6075419,22.0499992370605
1614.6231669,24.2099990844727
1614.6387919,24.2299995422363
1614.6544169,22.7000007629395
1614.6700419,20.5100002288818
1614.6856669,18.3199996948242
1614.7012919,16.4500007629395
1614.7169169,14.9200000762939
1614.7325419,13.4899997711182
1614.7481669,11.7700004577637
1614.7637919,9.51000022888184
1614.7794169,6.8899998664856
1614.7950419,4.30000019073486
1614.8106669,2.08999991416931
1614.8262919,0.379999995231628
1614.8419169,-0.819999992847443
1614.8575419,-1.58000004291534
1614.8731669,-1.94000005722046
1614.8887919,-2.13000011444092
1614.9044169,-2.39000010490417
1614.9200419,-2.86999988555908
1614.9356669,-3.55999994277954
1614.9512919,-4.36999988555908
1614.9669169,-5.15000009536743
1614.9825419,-5.78999996185303
1614.9981669,-6.38000011444092
1615.0137919,-7.07999992370605
1615.0294169,-7.92999982833862
1615.0450419,-8.85000038146973
1615.0606669,-9.64999961853027
1615.0762919,-10.1499996185303
1615.0919169,-10.3100004196167
1615.1075419,-10.25
1615.1231669,-10.1999998092651
1615.1387919,-10.2399997711182
1615.1544169,-10.25
1615.1700419,-10.1400003433228
1615.1856669,-9.98999977111816
1615.2012919,-9.97000026702881
1615.2169169,-10.1000003814697
1615.2325419,-10.1499996185303
1615.2481669,-9.6899995803833
1615.2637919,-8.22000026702881
1615.2794169,-5.19000005722046
1615.2950419,-0.239999994635582
1615.3106669,6.30000019073486
1615.3262919,13.210000038147
1615.3419169,18.8999996185303
1615.3575419,22.3400001525879
1615.3731669,23.4200000762939
1615.3887919,22.7600002288818
1615.4044169,21.2399997711182
1615.4200419,19.5900001525879
1615.4356669,18.1900005340576
1615.4512919,17.0900001525879
1615.4669169,16.1100006103516
1615.4825419,14.9300003051758
1615.4981669,13.1800003051758
1615.5137919,10.6700000762939
1615.5294169,7.53000020980835
1615.5450419,4.25
1615.5606669,1.39999997615814
1615.5762919,-0.540000021457672
1615.5919169,-1.46000003814697
1615.6075419,-1.6599999666214
1615.6231669,-1.70000004768372
1615.6387919,-2.10999989509583
1615.6544169,-3.11999988555908
1615.6700419,-4.6399998664856
1615.6856669,-6.3600001335144
1615.7012919,-7.92999982833862
1615.7169169,-9.15999984741211
1615.7325419,-10.1700000762939
1615.7481669,-11.1499996185303
1615.7637919,-12.1899995803833
1615.7794169,-13.1400003433228
1615.7950419,-13.8400001525879
1615.8106669,-14.1999998092651
1615.8262919,-14.2700004577637
1615.8419169,-14.1899995803833
1615.8575419,-14.0900001525879
1615.8731669,-14.0799999237061
1615.8887919,-14.2700004577637
1615.9044169,-14.7299995422363
1615.9200419,-15.3000001907349
1615.9356669,-15.5100002288818
1615.9512919,-14.6000003814697
1615.9669169,-11.8199996948242
1615.9825419,-6.90000009536743
1615.9981669,-0.379999995231628
1616.0137919,6.57999992370605
1616.0294169,12.7700004577637
1616.0450419,17.3299999237061
1616.0606669,19.9699993133545
1616.0762919,20.7800006866455
1616.0919169,20.1700000762939
1616.1075419,18.7299995422363
1616.1231669,17.0300006866455
1616.1387919,15.3699998855591
1616.1544169,13.8800001144409
1616.1700419,12.4200000762939
1616.1856669,10.7399997711182
1616.2012919,8.64000034332275
1616.2169169,6.23000001907349
1616.2325419,3.80999994277954
1616.2481669,1.71000003814697
1616.2637919,0.0900000035762787
1616.2794169,-1.12000000476837
1616.2950419,-2.11999988555908
1616.3106669,-3.02999997138977
1616.3262919,-3.82999992370605
1616.3419169,-4.51000022888184
1616.3575419,-5.15999984741211
1616.3731669,-5.90999984741211
1616.3887919,-6.96000003814697
1616.4044169,-8.38000011444092
1616.4200419,-10.0100002288818
1616.4356669,-11.5299997329712
1616.4512919,-12.6099996566772
1616.4669169,-13.1700000762939
1616.4825419,-13.3100004196167
1616.4981669,-13.25
1616.5137919,-13.1499996185303
1616.5294169,-13.0799999237061
1616.5450419,-13.0600004196167
1616.5606669,-13.0600004196167
1616.5762919,-13.0699996948242
1616.5919169,-12.9700002670288
1616.6075419,-12.5299997329712
1616.6231669,-11.289999961853
1616.6387919,-8.60000038146973
1616.6544169,-3.85999989509583
1616.6700419,2.83999991416931
1616.6856669,10.5
1616.7012919,17.5
1616.7169169,22.4500007629395
1616.7325419,24.75
1616.7481669,24.75
1616.7637919,23.3700008392334
1616.7794169,21.5699996948242
1616.7950419,19.9799995422363
1616.8106669,18.7800006866455
1616.8262919,17.7099990844727
1616.8419169,16.3999996185303
1616.8575419,14.6000003814697
1616.8731669,12.3299999237061
1616.8887919,9.77999973297119
1616.9044169,7.23000001907349
1616.9200419,4.8899998664856
1616.9356669,2.8199999332428
1616.9512919,0.920000016689301
1616.9669169,-0.920000016689301
1616.9825419,-2.69000005722046
1616.9981669,-4.3899998664856
1617.0137919,-6.05000019073486
1617.0294169,-7.75
1617.0450419,-9.5
1617.0606669,-11.210000038147
1617.0762919,-12.7200002670288
1617.0919169,-13.9300003051758
1617.1075419,-14.7299995422363
1617.1231669,-15.0600004196167
1617.1387919,-14.9899997711182
1617.1544169,-14.75
1617.1700419,-14.5699996948242
1617.1856669,-14.4799995422363
1617.2012919,-14.3199996948242
1617.2169169,-14.0100002288818
1617.2325419,-13.6000003814697
1617.2481669,-13.1099996566772
1617.2637919,-12.4899997711182
1617.2794169,-11.6300001144409
1617.2950419,-10.1099996566772
1617.3106669,-7.23999977111816
1617.3262919,-2.29999995231628
1617.3419169,4.94000005722046
1617.3575419,13.8699998855591
1617.3731669,22.9500007629395
1617.3887919,30.3299999237061
1617.4044169,34.5
1617.4200419,34.9599990844727
1617.4356669,32.3800010681152
1617.4512919,28.0799999237061
1617.4669169,23.4200000762939
1617.4825419,19.2299995422363
1617.4981669,15.7600002288818
1617.5137919,12.710000038147
1617.5294169,9.71000003814697
1617.5450419,6.69000005722046
1617.5606669,3.97000002861023
1617.5762919,1.79999995231628
1617.5919169,0.0299999993294477
1617.6075419,-1.72000002861023
1617.6231669,-3.6800000667572
1617.6387919,-5.75
1617.6544169,-7.6100001335144
1617.6700419,-9.03999996185303
1617.6856669,-10.1800003051758
1617.7012919,-11.460000038147
1617.7169169,-13.1800003051758
1617.7325419,-15.25
1617.7481669,-17.4099998474121
1617.7637919,-19.5699996948242
1617.7794169,-21.5799999237061
1617.7950419,-23.1299991607666
1617.8106669,-23.9099998474121
1617.8262919,-24.0
1617.8419169,-23.7099990844727
1617.8575419,-23.3999996185303
1617.8731669,-23.3299999237061
1617.8887919,-23.5900001525879
1617.9044169,-24.0300006866455
1617.9200419,-24.3600006103516
1617.9356669,-24.2199993133545
1617.9512919,-23.1599998474121
1617.9669169,-20.6599998474121
1617.9825419,-16.2099990844727
1617.9981669,-9.71000003814697
1618.0137919,-1.75999999046326
1618.0294169,6.44999980926514
1618.0450419,13.6099996566772
1618.0606669,18.75
1618.0762919,21.5900001525879
1618.0919169,22.3899993896484
1618.1075419,21.7800006866455
1618.1231669,20.6499996185303
1618.1387919,19.7299995422363
1618.1544169,19.2399997711182
1618.1700419,18.7700004577637
1618.1856669,17.7700004577637
1618.2012919,15.9300003051758
1618.2169169,13.3000001907349
1618.2325419,10.2299995422363
1618.2481669,7.21999979019165
1618.2637919,4.78999996185303
1618.2794169,3.25999999046326
1618.2950419,2.57999992370605
1618.3106669,2.40000009536743
1618.3262919,2.22000002861023
1618.3419169,1.62999999523163
1618.3575419,0.560000002384186
1618.3731669,-0.819999992847443
1618.3887919,-2.28999996185303
1618.4044169,-3.63000011444092
1618.4200419,-4.75
1618.4356669,-5.65999984741211
1618.4512919,-6.44999980926514
1618.4669169,-7.25
1618.4825419,-8.17000007629395
1618.4981669,-9.13000011444092
1618.5137919,-9.86999988555908
1618.5294169,-10.1800003051758
1618.5450419,-10.039999961853
1618.5606669,-9.63000011444092
1618.5762919,-9.22999954223633
1618.5919169,-8.9399995803833
1618.6075419,-8.40999984741211
1618.6231669,-6.8600001335144
1618.6387919,-3.45000004768372
1618.6544169,2.33999991416931
1618.6700419,10.2399997711182
1618.6856669,19.0699996948242
1618.7012919,27.0799999237061
1618.7169169,32.6599998474121
1618.7325419,35.2000007629395
1618.7481669,35.3400001525879
1618.7637919,34.3600006103516
1618.7794169,33.2000007629395
1618.7950419,32.0800018310547
1618.8106669,30.8400001525879
1618.8262919,29.3199996948242
1618.8419169,27.2199993133545
1618.8575419,24.1100006103516
1618.8731669,19.7999992370605
1618.8887919,14.5600004196167
1618.9044169,9.02000045776367
1618.9200419,3.86999988555908
1618.9356669,-0.449999988079071
1618.9512919,-3.94000005722046
1618.9669169,-6.84000015258789
1618.9825419,-9.39999961853027
1618.9981669,-11.7299995422363
1619.0137919,-13.8400001525879
1619.0294169,-15.789999961853
1619.0450419,-17.7099990844727
1619.0606669,-19.7800006866455
1619.0762919,-22.0699996948242
1619.0919169,-24.4799995422363
1619.1075419,-26.7900009155273
1619.1231669,-28.7800006866455
1619.1387919,-30.3099994659424
1619.1544169,-31.2600002288818
1619.1700419,-31.5900001525879
1619.1856669,-31.3799991607666
1619.2012919,-30.7900009155273
1619.2169169,-29.8899993896484
1619.2325419,-28.6800003051758
1619.2481669,-27.1700000762939
1619.2637919,-25.3500003814697
1619.2794169,-23.0300006866455
1619.2950419,-19.8299999237061
1619.3106669,-15.1199998855591
1619.3262919,-8.39000034332275
1619.3419169,0.219999998807907
1619.3575419,9.61999988555908
1619.3731669,18.1900005340576
1619.3887919,24.5699996948242
1619.4044169,28.3099994659424
1619.4200419,29.8700008392334
1619.4356669,30.1299991607666
1619.4512919,29.7800006866455
1619.4669169,29.1399993896484
1619.4825419,28.3299999237061
1619.4981669,27.4099998474121
1619.5137919,26.3099994659424
1619.5294169,24.75
1619.5450419,22.3799991607666
1619.5606669,19.0400009155273
1619.5762919,15.0100002288818
1619.5919169,10.8999996185303
1619.6075419,7.30999994277954
1619.6231669,4.6100001335144
1619.6387919,2.85999989509583
1619.6544169,1.75
1619.6700419,0.730000019073486
1619.6856669,-0.699999988079071
1619.7012919,-2.80999994277954
1619.7169169,-5.44000005722046
1619.7325419,-8.17000007629395
1619.7481669,-10.4700002670288
1619.7637919,-12.0299997329712
1619.7794169,-12.8800001144409
1619.7950419,-13.3400001525879
1619.8106669,-13.8500003814697
1619.8262919,-14.9300003051758
1619.8419169,-16.8099994659424
1619.8575419,-19.1900005340576
1619.8731669,-21.4699993133545
1619.8887919,-23.1399993896484
1619.9044169,-24.1100006103516
1619.9200419,-24.6700000762939
1619.9356669,-25.1800003051758
1619.9512919,-25.5
1619.9669169,-24.6599998474121
1619.9825419,-21.3600006103516
1619.9981669,-14.8100004196167
1620.0137919,-5.30999994277954
1620.0294169,5.67999982833862
1620.0450419,16.1800003051758
1620.0606669,24.5599994659424
1620.0762919,30.2099990844727
1620.0919169,33.4500007629395
1620.1075419,34.9900016784668
1620.1231669,35.4900016784668
1620.1387919,35.2400016784668
1620.1544169,34.2700004577637
1620.1700419,32.4799995422363
1620.1856669,29.8400001525879
1620.2012919,26.4899997711182
1620.2169169,22.7000007629395
1620.2325419,18.8700008392334
1620.2481669,15.3599996566772
1620.2637919,12.3999996185303
1620.2794169,10.0600004196167
1620.2950419,8.15999984741211
1620.3106669,6.28999996185303
1620.3262919,4.05000019073486
1620.3419169,1.26999998092651
1620.3575419,-1.87999999523163
1620.3731669,-5.03000020980835
1620.3887919,-7.80999994277954
1620.4044169,-10.1199998855591
1620.4200419,-12.0500001907349
1620.4356669,-13.8699998855591
1620.4512919,-15.8000001907349
1620.4669169,-17.7999992370605
1620.4825419,-19.7199993133545
1620.4981669,-21.4699993133545
1620.5137919,-22.9899997711182
1620.5294169,-24.1499996185303
1620.5450419,-24.9200000762939
1620.5606669,-25.5
1620.5762919,-26.0900001525879
1620.5919169,-26.7399997711182
1620.6075419,-27.2299995422363
1620.6231669,-27.1399993896484
1620.6387919,-25.8999996185303
1620.6544169,-22.8400001525879
1620.6700419,-17.5599994659424
1620.6856669,-10.2600002288818
1620.7012919,-2.02999997138977
1620.7169169,5.57000017166138
1620.7325419,11.25
1620.7481669,14.3999996185303
1620.7637919,15.289999961853
1620.7794169,14.7200002670288
1620.7950419,13.5900001525879
1620.8106669,12.4499998092651
1620.8262919,11.5799999237061
1620.8419169,11.1199998855591
1620.8575419,10.8999996185303
1620.8731669,10.3100004196167
1620.8887919,8.63000011444092
1620.9044169,5.73000001907349
1620.9200419,2.21000003814697
1620.9356669,-1.0
1620.9512919,-3.09999990463257
1620.9669169,-3.77999997138977
1620.9825419,-3.55999994277954
1620.9981669,-3.51999998092651
1621.0137919,-4.42000007629395
1621.0294169,-6.01000022888184
1621.0450419,-7.26999998092651
1621.0606669,-7.3600001335144
1621.0762919,-6.30000019073486
1621.0919169,-4.96999979019165
1621.1075419,-4.51999998092651
1621.1231669,-5.53000020980835
1621.1387919,-7.48000001907349
1621.1544169,-9.03999996185303
1621.1700419,-9.10999965667725
1621.1856669,-7.80999994277954
1621.2012919,-6.42000007629395
1621.2169169,-6.30999994277954
1621.2325419,-7.82000017166138
1621.2481669,-10.0799999237061
1621.2637919,-11.6099996566772
1621.2794169,-11.2600002288818
1621.2950419,-8.63000011444092
1621.3106669,-3.9300000667572
1621.3262919,2.21000003814697
1621.3419169,8.92000007629395
1621.3575419,15.3500003814697
1621.3731669,20.8099994659424
1621.3887919,24.8400001525879
1621.4044169,27.2199993133545
1621.4200419,27.9200000762939
1621.4356669,27.1700000762939
1621.4512919,25.5300006866455
1621.4669169,23.6200008392334
1621.4825419,21.75
1621.4981669,19.8600006103516
1621.5137919,17.7600002288818
1621.5294169,15.2700004577637
1621.5450419,12.3000001907349
1621.5606669,8.93000030517578
1621.5762919,5.3899998664856
1621.5919169,2.0
1621.6075419,-0.800000011920929
1621.6231669,-2.75
1621.6387919,-3.76999998092651
1621.6544169,-4.01999998092651
1621.6700419,-3.69000005722046
1621.6856669,-2.97000002861023
1621.7012919,-1.92999994754791
1621.7169169,-0.550000011920929
1621.7325419,1.25999999046326
1621.7481669,3.53999996185303
1621.7637919,6.15999984741211
1621.7794169,8.68000030517578
1621.7950419,10.4399995803833
1621.8106669,10.8400001525879
1621.8262919,9.69999980926514
1621.8419169,7.01999998092651
1621.8575419,2.72000002861023
1621.8731669,-3.1800000667572
1621.8887919,-10.1999998092651
1621.9044169,-17.4400005340576
1621.9200419,-24.0
1621.9356669,-29.1800003051758
1621.9512919,-32.3899993896484
1621.9669169,-33.0299987792969
1621.9825419,-30.6599998474121
1621.9981669,-25.4300003051758
1622.0137919,-18.3400001525879
1622.0294169,-11.0299997329712
1622.0450419,-5.01999998092651
1622.0606669,-1.10000002384186
1622.0762919,0.680000007152557
1622.0919169,0.899999976158142
1622.1075419,0.379999995231628
1622.1231669,-0.189999997615814
1622.1387919,-0.540000021457672
1622.1544169,-0.759999990463257
1622.1700419,-1.10000002384186
1622.1856669,-1.79999995231628
1622.2012919,-2.98000001907349
1622.2169169,-4.55999994277954
1622.2325419,-6.26000022888184
1622.2481669,-7.59999990463257
1622.2637919,-8.14000034332275
1622.2794169,-7.73000001907349
1622.2950419,-6.6100001335144
1622.3106669,-5.26000022888184
1622.3262919,-4.15999984741211
1622.3419169,-3.57999992370605
1622.3575419,-3.51999998092651
1622.3731669,-3.86999988555908
1622.3887919,-4.46000003814697
1622.4044169,-5.15000009536743
