Time(s),Value(%)
1382.0066864,-10.3699998855591
1382.0223114,5.65999984741211
1382.0379364,23.8400001525879
1382.0535614,40.5999984741211
1382.0691864,52.9199981689453
1382.0848114,59.6599998474121
1382.1004364,61.4000015258789
1382.1160614,59.5200004577637
1382.1316864,55.3300018310547
1382.1473114,49.7200012207031
1382.1629364,42.8800010681152
1382.1785614,34.2700004577637
1382.1941864,23.1399993896484
1382.2098114,9.51000022888184
1382.2254364,-5.26000022888184
1382.2410614,-18.9400005340576
1382.2566864,-29.4400005340576
1382.2723114,-35.7400016784668
1382.2879364,-38.310001373291
1382.3035614,-38.8800010681152
1382.3191864,-39.5200004577637
1382.3348114,-41.4300003051758
1382.3504364,-44.2099990844727
1382.3660614,-46.3600006103516
1382.3816864,-46.6599998474121
1382.3973114,-45.189998626709
1382.4129364,-43.1100006103516
1382.4285614,-41.75
1382.4441864,-41.9099998474121
1382.4598114,-43.5200004577637
1382.4754364,-45.6800003051758
1382.4910614,-47.310001373291
1382.5066864,-47.560001373291
1382.5223114,-46.2999992370605
1382.5379364,-44.2299995422363
1382.5535614,-42.0900001525879
1382.5691864,-39.310001373291
1382.5848114,-33.5400009155273
1382.6004364,-21.9200000762939
1382.6160614,-3.45000004768372
1382.6316864,19.7000007629395
1382.6473114,42.7900009155273
1382.6629364,60.5800018310547
1382.6785614,69.8399963378906
1382.6941864,70.5100021362305
1382.7098114,65.0800018310547
1382.7254364,56.8600006103516
1382.7410614,48.4799995422363
1382.7566864,41.0200004577637
1382.7723114,34.1500015258789
1382.7879364,26.7900009155273
1382.8035614,17.8299999237061
1382.8191864,6.92999982833862
1382.8348114,-4.94999980926514
1382.8504364,-15.8199996948242
1382.8660614,-23.6399993896484
1382.8816864,-27.5100002288818
1382.8973114,-28.0400009155273
1382.9129364,-26.7999992370605
1382.9285614,-25.3199996948242
1382.9441864,-24.4799995422363
1382.9598114,-24.6399993896484
1382.9754364,-26.0799999237061
1382.9910614,-29.0
1383.0066864,-33.0900001525879
1383.0223114,-37.5299987792969
1383.0379364,-41.4799995422363
1383.0535614,-44.4300003051758
1383.0691864,-46.0699996948242
1383.0848114,-46.1100006103516
1383.1004364,-44.5499992370605
1383.1160614,-41.7299995422363
1383.1316864,-38.1300010681152
1383.1473114,-34.2299995422363
1383.1629364,-30.5200004577637
1383.1785614,-27.1000003814697
1383.1941864,-22.8700008392334
1383.2098114,-15.1800003051758
1383.2254364,-1.10000002384186
1383.2410614,20.1900005340576
1383.2566864,45.8499984741211
1383.2723114,70.1500015258789
1383.2879364,87.379997253418
1383.3035614,94.8000030517578
1383.3191864,93.3000030517578
1383.3348114,85.8000030517578
1383.3504364,75.4700012207031
1383.3660614,64.6999969482422
1383.3816864,54.7400016784668
1383.3973114,45.3899993896484
1383.4129364,35.4900016784668
1383.4285614,24.0400009155273
1383.4441864,11.1800003051758
1383.4598114,-1.76999998092651
1383.4754364,-12.8999996185303
1383.4910614,-20.4599990844727
1383.5066864,-23.7700004577637
1383.5223114,-23.3799991607666
1383.5379364,-20.5900001525879
1383.5535614,-16.9599990844727
1383.5691864,-14.0799999237061
1383.5848114,-13.210000038147
1383.6004364,-14.789999961853
1383.6160614,-18.0900001525879
1383.6316864,-21.3899993896484
1383.6473114,-22.9599990844727
1383.6629364,-22.2399997711182
1383.6785614,-20.2299995422363
1383.6941864,-18.9200000762939
1383.7098114,-20.0699996948242
1383.7254364,-24.1599998474121
1383.7410614,-30.0699996948242
1383.7566864,-35.6599998474121
1383.7723114,-38.7400016784668
1383.7879364,-38.1300010681152
1383.8035614,-33.939998626709
1383.8191864,-26.9500007629395
1383.8348114,-17.4200000762939
1383.8504364,-4.75
1383.8660614,11.5900001525879
1383.8816864,30.7199993133545
1383.8973114,49.9000015258789
1383.9129364,65.5400009155273
1383.9285614,74.9199981689453
1383.9441864,77.3600006103516
1383.9598114,74.3199996948242
1383.9754364,68.4100036621094
1383.9910614,61.9199981689453
1384.0066864,55.5699996948242
1384.0223114,48.4000015258789
1384.0379364,38.8300018310547
1384.0535614,26.2900009155273
1384.0691864,12.2700004577637
1384.0848114,-0.310000002384186
1384.1004364,-9.03999996185303
1384.1160614,-13.3400001525879
1384.1316864,-14.4099998474121
1384.1473114,-13.8500003814697
1384.1629364,-12.789999961853
1384.1785614,-11.960000038147
1384.1941864,-11.8400001525879
1384.2098114,-12.3100004196167
1384.2254364,-12.7399997711182
1384.2410614,-12.6199998855591
1384.2566864,-12.0200004577637
1384.2723114,-11.6300001144409
1384.2879364,-12.1999998092651
1384.3035614,-14.0600004196167
1384.3191864,-17.0400009155273
1384.3348114,-20.5799999237061
1384.3504364,-24.0699996948242
1384.3660614,-26.8600006103516
1384.3816864,-28.5
1384.3973114,-28.8999996185303
1384.4129364,-28.1399993896484
1384.4285614,-25.7099990844727
1384.4441864,-20.2800006866455
1384.4598114,-10.4200000762939
1384.4754364,4.25
1384.4910614,22.4799995422363
1384.5066864,41.4900016784668
1384.5223114,57.939998626709
1384.5379364,69.0400009155273
1384.5535614,73.4100036621094
1384.5691864,71.3499984741211
1384.5848114,64.379997253418
1384.6004364,54.5099983215332
1384.6160614,43.6500015258789
1384.6316864,33.2299995422363
1384.6473114,23.9500007629395
1384.6629364,15.8699998855591
1384.6785614,8.64000034332275
1384.6941864,2.02999997138977
1384.7098114,-3.89000010490417
1384.7254364,-8.97000026702881
1384.7410614,-13.3199996948242
1384.7566864,-17.0599994659424
1384.7723114,-20.1200008392334
1384.7879364,-22.5499992370605
1384.8035614,-24.9599990844727
1384.8191864,-27.9799995422363
1384.8348114,-31.3700008392334
1384.8504364,-33.9599990844727
1384.8660614,-34.4900016784668
1384.8816864,-32.689998626709
1384.8973114,-29.3500003814697
1384.9129364,-25.7099990844727
1384.9285614,-22.7700004577637
1384.9441864,-21.1499996185303
1384.9598114,-21.2399997711182
1384.9754364,-23.1399993896484
1384.9910614,-26.2900009155273
1385.0066864,-29.3899993896484
1385.0223114,-30.7600002288818
1385.0379364,-28.7399997711182
1385.0535614,-22.0900001525879
1385.0691864,-10.2799997329712
1385.0848114,6.26999998092651
1385.1004364,25.9099998474121
1385.1160614,45.5
1385.1316864,61.5999984741211
1385.1473114,72.0699996948242
1385.1629364,76.5800018310547
1385.1785614,75.9199981689453
1385.1941864,71.2200012207031
1385.2098114,63.8600006103516
1385.2254364,55.3300018310547
1385.2410614,46.6399993896484
1385.2566864,37.9099998474121
1385.2723114,28.6200008392334
1385.2879364,18.3700008392334
1385.3035614,7.59000015258789
1385.3191864,-2.54999995231628
1385.3348114,-11.1300001144409
1385.3504364,-17.8500003814697
1385.3660614,-22.5200004577637
1385.3816864,-24.9799995422363
1385.3973114,-25.6499996185303
1385.4129364,-25.4699993133545
1385.4285614,-25.1900005340576
1385.4441864,-25.0300006866455
1385.4598114,-25.0400009155273
1385.4754364,-25.3199996948242
1385.4910614,-25.9300003051758
1385.5066864,-26.6299991607666
1385.5223114,-27.0900001525879
1385.5379364,-27.3600006103516
1385.5535614,-27.8799991607666
1385.5691864,-29.0200004577637
1385.5848114,-30.8700008392334
1385.6004364,-33.0800018310547
1385.6160614,-34.8899993896484
1385.6316864,-35.310001373291
1385.6473114,-33.1300010681152
1385.6629364,-27.0
1385.6785614,-15.9399995803833
1385.6941864,-0.180000007152557
1385.7098114,18.4300003051758
1385.7254364,36.7099990844727
1385.7410614,51.0999984741211
1385.7566864,59.25
1385.7723114,60.9900016784668
1385.7879364,58.2599983215332
1385.8035614,53.8199996948242
1385.8191864,49.6300010681152
1385.8348114,46.0900001525879
1385.8504364,42.1599998474121
1385.8660614,36.2000007629395
1385.8816864,27.0100002288818
1385.8973114,14.6400003433228
1385.9129364,0.670000016689301
1385.9285614,-12.2200002670288
1385.9441864,-21.7000007629395
1385.9598114,-27.0699996948242
1385.9754364,-29.4599990844727
1385.9910614,-30.7399997711182
1386.0066864,-32.0900001525879
1386.0223114,-33.5
1386.0379364,-34.4300003051758
1386.0535614,-34.4799995422363
1386.0691864,-33.8699989318848
1386.0848114,-33.3899993896484
1386.1004364,-34.0200004577637
1386.1160614,-36.1699981689453
1386.1316864,-39.1100006103516
1386.1473114,-41.4099998474121
1386.1629364,-42.1800003051758
1386.1785614,-41.8699989318848
1386.1941864,-41.689998626709
1386.2098114,-42.2599983215332
1386.2254364,-43.2299995422363
1386.2410614,-43.8600006103516
1386.2566864,-43.2999992370605
1386.2723114,-40.0499992370605
1386.2879364,-32.0099983215332
1386.3035614,-17.75
1386.3191864,2.11999988555908
1386.3348114,24.6599998474121
1386.3504364,45.4199981689453
1386.3660614,60.5099983215332
1386.3816864,68.2300033569336
1386.3973114,69.3199996948242
1386.4129364,65.7900009155273
1386.4285614,59.810001373291
1386.4441864,52.7099990844727
1386.4598114,44.7099990844727
1386.4754364,35.25
1386.4910614,23.9200000762939
1386.5066864,11.1599998474121
1386.5223114,-1.75
1386.5379364,-13.1800003051758
1386.5535614,-21.6200008392334
1386.5691864,-25.9400005340576
1386.5848114,-25.9799995422363
1386.6004364,-22.9500007629395
1386.6160614,-18.9500007629395
1386.6316864,-15.8299999237061
1386.6473114,-14.3000001907349
1386.6629364,-14.289999961853
1386.6785614,-15.539999961853
1386.6941864,-17.8099994659424
1386.7098114,-20.7399997711182
1386.7254364,-23.8700008392334
1386.7410614,-26.7199993133545
1386.7566864,-28.8799991607666
1386.7723114,-30.1200008392334
1386.7879364,-30.5400009155273
1386.8035614,-30.5499992370605
1386.8191864,-30.6399993896484
1386.8348114,-31.0699996948242
1386.8504364,-31.7399997711182
1386.8660614,-32.0
1386.8816864,-30.3400001525879
1386.8973114,-24.5599994659424
1386.9129364,-12.8500003814697
1386.9285614,4.67000007629395
1386.9441864,25.3400001525879
1386.9598114,44.8199996948242
1386.9754364,59.0999984741211
1386.9910614,66.3099975585938
1387.0066864,67.3300018310547
1387.0223114,64.7300033569336
1387.0379364,61.0800018310547
1387.0535614,57.6399993896484
1387.0691864,53.9799995422363
1387.0848114,48.5200004577637
1387.1004364,39.6699981689453
1387.1160614,27.1499996185303
1387.1316864,12.460000038147
1387.1473114,-1.73000001907349
1387.1629364,-12.8000001907349
1387.1785614,-19.2800006866455
1387.1941864,-21.4500007629395
1387.2098114,-21.0
1387.2254364,-20.0100002288818
1387.2410614,-20.0799999237061
1387.2566864,-22.0799999237061
1387.2723114,-25.9300003051758
1387.2879364,-30.5799999237061
1387.3035614,-34.6300010681152
1387.3191864,-37.1500015258789
1387.3348114,-37.810001373291
1387.3504364,-36.6199989318848
1387.3660614,-33.9000015258789
1387.3816864,-30.3899993896484
1387.3973114,-27.0799999237061
1387.4129364,-24.8199996948242
1387.4285614,-23.7700004577637
1387.4441864,-23.25
1387.4598114,-22.2399997711182
1387.4754364,-19.8500003814697
1387.4910614,-15.0900001525879
1387.5066864,-6.80999994277954
1387.5223114,5.90000009536743
1387.5379364,22.6800003051758
1387.5535614,41.0
1387.5691864,56.8600006103516
1387.5848114,66.8399963378906
1387.6004364,70.0699996948242
1387.6160614,68.2699966430664
1387.6316864,64.1900024414063
1387.6473114,60.0299987792969
1387.6629364,56.7200012207031
1387.6785614,54.0900001525879
1387.6941864,51.2200012207031
1387.7098114,46.7200012207031
1387.7254364,39.2900009155273
1387.7410614,28.3799991607666
1387.7566864,14.6400003433228
1387.7723114,-0.0299999993294477
1387.7879364,-13.0900001525879
1387.8035614,-22.3299999237061
1387.8191864,-26.8099994659424
1387.8348114,-27.1100006103516
1387.8504364,-24.9099998474121
1387.8660614,-22.1599998474121
1387.8816864,-20.5300006866455
1387.8973114,-21.2999992370605
1387.9129364,-25.0599994659424
1387.9285614,-31.1900005340576
1387.9441864,-37.7900009155273
1387.9598114,-42.5699996948242
1387.9754364,-44.0900001525879
1387.9910614,-42.4199981689453
1388.0066864,-38.8600006103516
1388.0223114,-35.0499992370605
1388.0379364,-32.0699996948242
1388.0535614,-29.8999996185303
1388.0691864,-27.7900009155273
1388.0848114,-25.1100006103516
1388.1004364,-21.9699993133545
1388.1160614,-18.6399993896484
1388.1316864,-14.5
1388.1473114,-7.73000001907349
1388.1629364,3.38000011444092
1388.1785614,18.6200008392334
1388.1941864,35.4199981689453
1388.2098114,50.1800003051758
1388.2254364,60.2099990844727
1388.2410614,64.7799987792969
1388.2566864,64.8499984741211
1388.2723114,62.1100006103516
1388.2879364,58.2200012207031
1388.3035614,54.2400016784668
1388.3191864,50.1300010681152
1388.3348114,44.8600006103516
1388.3504364,37.2400016784668
1388.3660614,26.8500003814697
1388.3816864,14.5799999237061
1388.3973114,2.28999996185303
1388.4129364,-7.94000005722046
1388.4285614,-14.7799997329712
1388.4441864,-18.0599994659424
1388.4598114,-18.8199996948242
1388.4754364,-18.6900005340576
1388.4910614,-18.9099998474121
1388.5066864,-19.7199993133545
1388.5223114,-20.7800006866455
1388.5379364,-22.0
1388.5535614,-23.8199996948242
1388.5691864,-26.6900005340576
1388.5848114,-30.4599990844727
1388.6004364,-34.5200004577637
1388.6160614,-38.1800003051758
1388.6316864,-40.7099990844727
1388.6473114,-41.4599990844727
1388.6629364,-40.2700004577637
1388.6785614,-37.6800003051758
1388.6941864,-34.6399993896484
1388.7098114,-32.1699981689453
1388.7254364,-30.9599990844727
1388.7410614,-30.9500007629395
1388.7566864,-30.9500007629395
1388.7723114,-28.6200008392334
1388.7879364,-21.3199996948242
1388.8035614,-7.65000009536743
1388.8191864,11.4499998092651
1388.8348114,32.5900001525879
1388.8504364,51.3400001525879
1388.8660614,64.2300033569336
1388.8816864,70.0299987792969
1388.8973114,69.7699966430664
1388.9129364,65.7799987792969
1388.9285614,60.2599983215332
1388.9441864,54.1500015258789
1388.9598114,46.9099998474121
1388.9754364,37.4500007629395
1388.9910614,25.4300003051758
1389.0066864,12.0200004577637
1389.0223114,-0.620000004768372
1389.0379364,-10.4700002670288
1389.0535614,-16.4899997711182
1389.0691864,-19.1800003051758
1389.0848114,-20.2900009155273
1389.1004364,-21.6900005340576
1389.1160614,-24.0699996948242
1389.1316864,-26.6499996185303
1389.1473114,-28.1100006103516
1389.1629364,-27.8899993896484
1389.1785614,-26.6200008392334
1389.1941864,-25.5499992370605
1389.2098114,-25.5900001525879
1389.2254364,-26.8400001525879
1389.2410614,-28.7900009155273
1389.2566864,-30.9699993133545
1389.2723114,-33.1699981689453
1389.2879364,-35.0900001525879
1389.3035614,-36.1399993896484
1389.3191864,-35.7299995422363
1389.3348114,-33.7700004577637
1389.3504364,-30.3899993896484
1389.3660614,-25.4899997711182
1389.3816864,-18.9899997711182
1389.3973114,-11.210000038147
1389.4129364,-2.53999996185303
1389.4285614,7.26000022888184
1389.4441864,18.75
1389.4598114,31.5300006866455
1389.4754364,43.9700012207031
1389.4910614,53.9700012207031
1389.5066864,60.4000015258789
1389.5223114,63.5
1389.5379364,64.0500030517578
1389.5535614,62.3699989318848
1389.5691864,58.2200012207031
1389.5848114,51.3899993896484
1389.6004364,42.2200012207031
1389.6160614,31.5200004577637
1389.6316864,20.2000007629395
1389.6473114,9.02000045776367
1389.6629364,-1.42999994754791
1389.6785614,-10.5600004196167
1389.6941864,-17.8899993896484
1389.7098114,-23.0799999237061
1389.7254364,-25.9799995422363
1389.7410614,-26.7000007629395
1389.7566864,-25.8899993896484
1389.7723114,-24.6700000762939
1389.7879364,-24.0300006866455
1389.8035614,-24.5699996948242
1389.8191864,-26.5
1389.8348114,-29.5599994659424
1389.8504364,-32.8499984741211
1389.8660614,-35.2999992370605
1389.8816864,-36.2299995422363
1389.8973114,-35.75
1389.9129364,-34.5400009155273
1389.9285614,-33.4000015258789
1389.9441864,-32.7999992370605
1389.9598114,-32.6800003051758
1389.9754364,-32.4900016784668
1389.9910614,-31.4899997711182
1390.0066864,-29.1900005340576
1390.0223114,-25.4200000762939
1390.0379364,-19.9300003051758
1390.0535614,-12.0100002288818
1390.0691864,-0.629999995231628
1390.0848114,14.8000001907349
1390.1004364,33.439998626709
1390.1160614,52.7200012207031
1390.1316864,69.2600021362305
1390.1473114,80.2799987792969
1390.1629364,84.7300033569336
1390.1785614,83.5800018310547
1390.1941864,79.1900024414063
1390.2098114,74.0500030517578
1390.2254364,69.4700012207031
1390.2410614,65.3000030517578
1390.2566864,60.2900009155273
1390.2723114,53.1199989318848
1390.2879364,43.3499984741211
1390.3035614,31.8799991607666
1390.3191864,20.2999992370605
1390.3348114,9.81999969482422
1390.3504364,0.980000019073486
1390.3660614,-6.0
1390.3816864,-10.9799995422363
1390.3973114,-14.2200002670288
1390.4129364,-16.4799995422363
1390.4285614,-18.5900001525879
1390.4441864,-21.0100002288818
1390.4598114,-23.7999992370605
1390.4754364,-26.7999992370605
1390.4910614,-29.6700000762939
1390.5066864,-31.9400005340576
1390.5223114,-33.4500007629395
1390.5379364,-34.5200004577637
1390.5535614,-35.5099983215332
1390.5691864,-36.3400001525879
1390.5848114,-36.810001373291
1390.6004364,-37.3199996948242
1390.6160614,-38.5299987792969
1390.6316864,-40.5800018310547
1390.6473114,-42.6599998474121
1390.6629364,-43.4900016784668
1390.6785614,-41.6199989318848
1390.6941864,-35.2700004577637
1390.7098114,-22.7999992370605
1390.7254364,-4.23999977111816
1390.7410614,17.6100006103516
1390.7566864,38.0099983215332
1390.7723114,52.7900009155273
1390.7879364,60.5499992370605
1390.8035614,62.7400016784668
1390.8191864,61.8400001525879
1390.8348114,59.5999984741211
1390.8504364,56.5999984741211
1390.8660614,52.6399993896484
1390.8816864,47.2700004577637
1390.8973114,39.8400001525879
1390.9129364,29.7099990844727
1390.9285614,16.8199996948242
1390.9441864,2.07999992370605
1390.9598114,-12.6000003814697
1390.9754364,-24.9799995422363
1390.9910614,-33.4599990844727
1391.0066864,-37.6800003051758
1391.0223114,-38.3600006103516
1391.0379364,-36.9099998474121
1391.0535614,-34.939998626709
1391.0691864,-33.5200004577637
1391.0848114,-32.7700004577637
1391.1004364,-32.4099998474121
1391.1160614,-32.4700012207031
1391.1316864,-33.2999992370605
1391.1473114,-35.0900001525879
1391.1629364,-37.5499992370605
1391.1785614,-40.0900001525879
1391.1941864,-42.1399993896484
1391.2098114,-43.4099998474121
1391.2254364,-43.8899993896484
1391.2410614,-43.75
1391.2566864,-43.3499984741211
1391.2723114,-42.8899993896484
1391.2879364,-42.0299987792969
1391.3035614,-39.5800018310547
1391.3191864,-33.7900009155273
1391.3348114,-23.0699996948242
1391.3504364,-6.98999977111816
1391.3660614,12.789999961853
1391.3816864,32.6399993896484
1391.3973114,48.5200004577637
1391.4129364,58.0900001525879
1391.4285614,61.5999984741211
1391.4441864,61.1199989318848
1391.4598114,58.9099998474121
1391.4754364,56.2599983215332
1391.4910614,53.0099983215332
1391.5066864,47.9300003051758
1391.5223114,39.5800018310547
1391.5379364,27.4599990844727
1391.5535614,12.8400001525879
1391.5691864,-1.4099999666214
1391.5848114,-12.210000038147
1391.6004364,-17.8999996185303
1391.6160614,-19.2600002288818
1391.6316864,-18.8199996948242
1391.6473114,-19.0100002288818
1391.6629364,-20.8799991607666
1391.6785614,-23.9300003051758
1391.6941864,-26.75
1391.7098114,-28.1200008392334
1391.7254364,-27.7600002288818
1391.7410614,-26.3500003814697
1391.7566864,-25.0499992370605
1391.7723114,-24.9899997711182
1391.7879364,-26.8899993896484
1391.8035614,-30.6499996185303
1391.8191864,-35.2799987792969
1391.8348114,-39.5299987792969
1391.8504364,-42.4599990844727
1391.8660614,-43.689998626709
1391.8816864,-43.1199989318848
1391.8973114,-40.7700004577637
1391.9129364,-36.7200012207031
1391.9285614,-30.9400005340576
1391.9441864,-22.9200000762939
1391.9598114,-12.0100002288818
1391.9754364,1.89999997615814
1391.9910614,18.0699996948242
1392.0066864,34.9900016784668
1392.0223114,50.7099990844727
1392.0379364,63.1800003051758
1392.0535614,71.0100021362305
1392.0691864,74.2699966430664
1392.0848114,74.5100021362305
1392.1004364,73.4000015258789
1392.1160614,71.3300018310547
1392.1316864,67.4800033569336
1392.1473114,60.8600006103516
1392.1629364,51.1800003051758
1392.1785614,39.0499992370605
1392.1941864,25.8400001525879
1392.2098114,13.4399995803833
1392.2254364,3.54999995231628
1392.2410614,-2.98000001907349
1392.2566864,-6.25
1392.2723114,-7.01999998092651
1392.2879364,-6.46999979019165
1392.3035614,-5.82000017166138
1392.3191864,-5.92999982833862
1392.3348114,-7.34000015258789
1392.3504364,-10.2600002288818
