Time(s),Value(μS)
1382.0066864,3.15799999237061
1382.0223114,3.15599989891052
1382.0379364,3.15499997138977
1382.0535614,3.15300011634827
1382.0691864,3.15100002288818
1382.0848114,3.1489999294281
1382.1004364,3.1470000743866
1382.1160614,3.14499998092651
1382.1316864,3.14299988746643
1382.1473114,3.14199995994568
1382.1629364,3.14100003242493
1382.1785614,3.13899993896484
1382.1941864,3.13800001144409
1382.2098114,3.13599991798401
1382.2254364,3.1340000629425
1382.2410614,3.13299989700317
1382.2566864,3.13299989700317
1382.2723114,3.13199996948242
1382.2879364,3.13199996948242
1382.3035614,3.13100004196167
1382.3191864,3.13000011444092
1382.3348114,3.12899994850159
1382.3504364,3.12700009346008
1382.3660614,3.12599992752075
1382.3816864,3.12400007247925
1382.3973114,3.12299990653992
1382.4129364,3.12199997901917
1382.4285614,3.12199997901917
1382.4441864,3.12100005149841
1382.4598114,3.11999988555908
1382.4754364,3.11800003051758
1382.4910614,3.11700010299683
1382.5066864,3.1159999370575
1382.5223114,3.11500000953674
1382.5379364,3.11500000953674
1382.5535614,3.11400008201599
1382.5691864,3.11400008201599
1382.5848114,3.11299991607666
1382.6004364,3.11199998855591
1382.6160614,3.10999989509583
1382.6316864,3.10899996757507
1382.6473114,3.10700011253357
1382.6629364,3.10599994659424
1382.6785614,3.10599994659424
1382.6941864,3.10400009155273
1382.7098114,3.1029999256134
1382.7254364,3.10199999809265
1382.7410614,3.1010000705719
1382.7566864,3.09899997711182
1382.7723114,3.09800004959106
1382.7879364,3.09800004959106
1382.8035614,3.09599995613098
1382.8191864,3.09699988365173
1382.8348114,3.09599995613098
1382.8504364,3.09599995613098
1382.8660614,3.09400010108948
1382.8816864,3.09200000762939
1382.8973114,3.09100008010864
1382.9129364,3.08800005912781
1382.9285614,3.08699989318848
1382.9441864,3.08400011062622
1382.9598114,3.08400011062622
1382.9754364,3.08299994468689
1382.9910614,3.08100008964539
1383.0066864,3.07999992370605
1383.0223114,3.0789999961853
1383.0379364,3.07800006866455
1383.0535614,3.07699990272522
1383.0691864,3.07800006866455
1383.0848114,3.07699990272522
1383.1004364,3.07699990272522
1383.1160614,3.07599997520447
1383.1316864,3.07599997520447
1383.1473114,3.07500004768372
1383.1629364,3.07399988174438
1383.1785614,3.07299995422363
1383.1941864,3.07299995422363
1383.2098114,3.07399988174438
1383.2254364,3.07399988174438
1383.2410614,3.07500004768372
1383.2566864,3.07599997520447
1383.2723114,3.07599997520447
1383.2879364,3.07599997520447
1383.3035614,3.07599997520447
1383.3191864,3.07699990272522
1383.3348114,3.07699990272522
1383.3504364,3.07800006866455
1383.3660614,3.07800006866455
1383.3816864,3.0789999961853
1383.3973114,3.0789999961853
1383.4129364,3.07800006866455
1383.4285614,3.07800006866455
1383.4441864,3.07699990272522
1383.4598114,3.07699990272522
1383.4754364,3.07599997520447
1383.4910614,3.07699990272522
1383.5066864,3.07599997520447
1383.5223114,3.07500004768372
1383.5379364,3.07399988174438
1383.5535614,3.07399988174438
1383.5691864,3.07299995422363
1383.5848114,3.07299995422363
1383.6004364,3.07399988174438
1383.6160614,3.07399988174438
1383.6316864,3.07399988174438
1383.6473114,3.07299995422363
1383.6629364,3.07299995422363
1383.6785614,3.07200002670288
1383.6941864,3.07100009918213
1383.7098114,3.0699999332428
1383.7254364,3.06800007820129
1383.7410614,3.06800007820129
1383.7566864,3.06699991226196
1383.7723114,3.06599998474121
1383.7879364,3.06500005722046
1383.8035614,3.06299996376038
1383.8191864,3.06200003623962
1383.8348114,3.05999994277954
1383.8504364,3.05999994277954
1383.8660614,3.05900001525879
1383.8816864,3.05900001525879
1383.8973114,3.05800008773804
1383.9129364,3.05800008773804
1383.9285614,3.05699992179871
1383.9441864,3.0550000667572
1383.9598114,3.05399990081787
1383.9754364,3.05200004577637
1383.9910614,3.05100011825562
1384.0066864,3.04900002479553
1384.0223114,3.04900002479553
1384.0379364,3.04800009727478
1384.0535614,3.0460000038147
1384.0691864,3.04500007629395
1384.0848114,3.04299998283386
1384.1004364,3.04200005531311
1384.1160614,3.04099988937378
1384.1316864,3.04200005531311
1384.1473114,3.04099988937378
1384.1629364,3.04099988937378
1384.1785614,3.04099988937378
1384.1941864,3.03999996185303
1384.2098114,3.03999996185303
1384.2254364,3.03900003433228
1384.2410614,3.03800010681152
1384.2566864,3.03699994087219
1384.2723114,3.03699994087219
1384.2879364,3.03699994087219
1384.3035614,3.03699994087219
1384.3191864,3.03600001335144
1384.3348114,3.03500008583069
1384.3504364,3.03399991989136
1384.3660614,3.03399991989136
1384.3816864,3.03399991989136
1384.3973114,3.03399991989136
1384.4129364,3.03500008583069
1384.4285614,3.03399991989136
1384.4441864,3.03399991989136
1384.4598114,3.03299999237061
1384.4754364,3.03200006484985
1384.4910614,3.03200006484985
1384.5066864,3.03099989891052
1384.5223114,3.03099989891052
1384.5379364,3.03099989891052
1384.5535614,3.03200006484985
1384.5691864,3.03200006484985
1384.5848114,3.03200006484985
1384.6004364,3.03099989891052
1384.6160614,3.03099989891052
1384.6316864,3.02999997138977
1384.6473114,3.02900004386902
1384.6629364,3.02900004386902
1384.6785614,3.02900004386902
1384.6941864,3.02999997138977
1384.7098114,3.02999997138977
1384.7254364,3.02999997138977
1384.7410614,3.02999997138977
1384.7566864,3.02900004386902
1384.7723114,3.02900004386902
1384.7879364,3.02900004386902
1384.8035614,3.02999997138977
1384.8191864,3.02999997138977
1384.8348114,3.03099989891052
1384.8504364,3.03099989891052
1384.8660614,3.03099989891052
1384.8816864,3.03099989891052
1384.8973114,3.03099989891052
1384.9129364,3.03299999237061
1384.9285614,3.03299999237061
1384.9441864,3.03500008583069
1384.9598114,3.03500008583069
1384.9754364,3.03699994087219
1384.9910614,3.03699994087219
1385.0066864,3.03699994087219
1385.0223114,3.03699994087219
1385.0379364,3.03800010681152
1385.0535614,3.03800010681152
1385.0691864,3.03900003433228
1385.0848114,3.04099988937378
1385.1004364,3.04200005531311
1385.1160614,3.04299998283386
1385.1316864,3.04399991035461
1385.1473114,3.04399991035461
1385.1629364,3.04500007629395
1385.1785614,3.04699993133545
1385.1941864,3.04900002479553
1385.2098114,3.05100011825562
1385.2254364,3.05399990081787
1385.2410614,3.0550000667572
1385.2566864,3.05599999427795
1385.2723114,3.05800008773804
1385.2879364,3.05800008773804
1385.3035614,3.05900001525879
1385.3191864,3.05900001525879
1385.3348114,3.06100010871887
1385.3504364,3.06100010871887
1385.3660614,3.06299996376038
1385.3816864,3.06299996376038
1385.3973114,3.06399989128113
1385.4129364,3.06399989128113
1385.4285614,3.06500005722046
1385.4441864,3.06599998474121
1385.4598114,3.06699991226196
1385.4754364,3.06900000572205
1385.4910614,3.0699999332428
1385.5066864,3.07200002670288
1385.5223114,3.07200002670288
1385.5379364,3.07299995422363
1385.5535614,3.07299995422363
1385.5691864,3.07399988174438
1385.5848114,3.07399988174438
1385.6004364,3.07399988174438
1385.6160614,3.07500004768372
1385.6316864,3.07500004768372
1385.6473114,3.07399988174438
1385.6629364,3.07399988174438
1385.6785614,3.07299995422363
1385.6941864,3.07200002670288
1385.7098114,3.07100009918213
1385.7254364,3.07200002670288
1385.7410614,3.07100009918213
1385.7566864,3.07100009918213
1385.7723114,3.0699999332428
1385.7879364,3.0699999332428
1385.8035614,3.06900000572205
1385.8191864,3.06800007820129
1385.8348114,3.06699991226196
1385.8504364,3.06599998474121
1385.8660614,3.06500005722046
1385.8816864,3.06399989128113
1385.8973114,3.06299996376038
1385.9129364,3.06200003623962
1385.9285614,3.06100010871887
1385.9441864,3.05999994277954
1385.9598114,3.05900001525879
1385.9754364,3.05800008773804
1385.9910614,3.05699992179871
1386.0066864,3.05800008773804
1386.0223114,3.05699992179871
1386.0379364,3.05699992179871
1386.0535614,3.05599999427795
1386.0691864,3.0550000667572
1386.0848114,3.05299997329712
1386.1004364,3.05200004577637
1386.1160614,3.05100011825562
1386.1316864,3.04999995231628
1386.1473114,3.04999995231628
1386.1629364,3.04900002479553
1386.1785614,3.04800009727478
1386.1941864,3.04699993133545
1386.2098114,3.04500007629395
1386.2254364,3.04399991035461
1386.2410614,3.04299998283386
1386.2566864,3.04200005531311
1386.2723114,3.04099988937378
1386.2879364,3.04099988937378
1386.3035614,3.03999996185303
1386.3191864,3.03900003433228
1386.3348114,3.03800010681152
1386.3504364,3.03699994087219
1386.3660614,3.03600001335144
1386.3816864,3.03500008583069
1386.3973114,3.03500008583069
1386.4129364,3.03399991989136
1386.4285614,3.03500008583069
1386.4441864,3.03399991989136
1386.4598114,3.03299999237061
1386.4754364,3.03299999237061
1386.4910614,3.03200006484985
1386.5066864,3.03200006484985
1386.5223114,3.03200006484985
1386.5379364,3.03299999237061
1386.5535614,3.03299999237061
1386.5691864,3.03399991989136
1386.5848114,3.03399991989136
1386.6004364,3.03399991989136
1386.6160614,3.03399991989136
1386.6316864,3.03399991989136
1386.6473114,3.03500008583069
1386.6629364,3.03500008583069
1386.6785614,3.03699994087219
1386.6941864,3.03800010681152
1386.7098114,3.03900003433228
1386.7254364,3.03900003433228
1386.7410614,3.03999996185303
1386.7566864,3.04099988937378
1386.7723114,3.04200005531311
1386.7879364,3.04399991035461
1386.8035614,3.04500007629395
1386.8191864,3.04699993133545
1386.8348114,3.04800009727478
1386.8504364,3.04999995231628
1386.8660614,3.05100011825562
1386.8816864,3.05100011825562
1386.8973114,3.05200004577637
1386.9129364,3.05200004577637
1386.9285614,3.05299997329712
1386.9441864,3.05399990081787
1386.9598114,3.05699992179871
1386.9754364,3.05699992179871
1386.9910614,3.05699992179871
1387.0066864,3.05800008773804
1387.0223114,3.05900001525879
1387.0379364,3.05900001525879
1387.0535614,3.05999994277954
1387.0691864,3.06299996376038
1387.0848114,3.06299996376038
1387.1004364,3.06500005722046
1387.1160614,3.06599998474121
1387.1316864,3.06599998474121
1387.1473114,3.06699991226196
1387.1629364,3.06800007820129
1387.1785614,3.06900000572205
1387.1941864,3.0699999332428
1387.2098114,3.07200002670288
1387.2254364,3.07200002670288
1387.2410614,3.07200002670288
1387.2566864,3.07200002670288
1387.2723114,3.07200002670288
1387.2879364,3.07200002670288
1387.3035614,3.07100009918213
1387.3191864,3.07100009918213
1387.3348114,3.07100009918213
1387.3504364,3.07100009918213
1387.3660614,3.07100009918213
1387.3816864,3.0699999332428
1387.3973114,3.0699999332428
1387.4129364,3.06900000572205
1387.4285614,3.06800007820129
1387.4441864,3.06699991226196
1387.4598114,3.06699991226196
1387.4754364,3.06599998474121
1387.4910614,3.06599998474121
1387.5066864,3.06500005722046
1387.5223114,3.06299996376038
1387.5379364,3.06200003623962
1387.5535614,3.06100010871887
1387.5691864,3.05900001525879
1387.5848114,3.05800008773804
1387.6004364,3.05800008773804
1387.6160614,3.05699992179871
1387.6316864,3.05699992179871
1387.6473114,3.05599999427795
1387.6629364,3.0550000667572
1387.6785614,3.05399990081787
1387.6941864,3.05200004577637
1387.7098114,3.05100011825562
1387.7254364,3.04999995231628
1387.7410614,3.04999995231628
1387.7566864,3.04900002479553
1387.7723114,3.04900002479553
1387.7879364,3.04699993133545
1387.8035614,3.0460000038147
1387.8191864,3.04399991035461
1387.8348114,3.04200005531311
1387.8504364,3.04099988937378
1387.8660614,3.03900003433228
1387.8816864,3.03900003433228
1387.8973114,3.03699994087219
1387.9129364,3.03600001335144
1387.9285614,3.03399991989136
1387.9441864,3.03299999237061
1387.9598114,3.03099989891052
1387.9754364,3.02999997138977
1387.9910614,3.02999997138977
1388.0066864,3.02900004386902
1388.0223114,3.02999997138977
1388.0379364,3.02900004386902
1388.0535614,3.02800011634827
1388.0691864,3.02800011634827
1388.0848114,3.02699995040894
1388.1004364,3.02600002288818
1388.1160614,3.02600002288818
1388.1316864,3.02699995040894
1388.1473114,3.02600002288818
1388.1629364,3.02699995040894
1388.1785614,3.02600002288818
1388.1941864,3.02500009536743
1388.2098114,3.02500009536743
1388.2254364,3.0239999294281
1388.2410614,3.0239999294281
1388.2566864,3.02300000190735
1388.2723114,3.02500009536743
1388.2879364,3.0239999294281
1388.3035614,3.0239999294281
1388.3191864,3.0239999294281
1388.3348114,3.02300000190735
1388.3504364,3.02300000190735
1388.3660614,3.02300000190735
1388.3816864,3.02500009536743
1388.3973114,3.02500009536743
1388.4129364,3.02600002288818
1388.4285614,3.02600002288818
1388.4441864,3.02699995040894
1388.4598114,3.02699995040894
1388.4754364,3.02600002288818
1388.4910614,3.02699995040894
1388.5066864,3.02600002288818
1388.5223114,3.02699995040894
1388.5379364,3.02699995040894
1388.5535614,3.02900004386902
1388.5691864,3.02900004386902
1388.5848114,3.02999997138977
1388.6004364,3.02999997138977
1388.6160614,3.03099989891052
1388.6316864,3.03200006484985
1388.6473114,3.03299999237061
1388.6629364,3.03600001335144
1388.6785614,3.03699994087219
1388.6941864,3.03900003433228
1388.7098114,3.03999996185303
1388.7254364,3.04099988937378
1388.7410614,3.04200005531311
1388.7566864,3.04299998283386
1388.7723114,3.04399991035461
1388.7879364,3.04500007629395
1388.8035614,3.04800009727478
1388.8191864,3.04900002479553
1388.8348114,3.04999995231628
1388.8504364,3.05100011825562
1388.8660614,3.05200004577637
1388.8816864,3.05299997329712
1388.8973114,3.05399990081787
1388.9129364,3.05599999427795
1388.9285614,3.05699992179871
1388.9441864,3.05900001525879
1388.9598114,3.05900001525879
1388.9754364,3.05900001525879
1388.9910614,3.05900001525879
1389.0066864,3.05699992179871
1389.0223114,3.05699992179871
1389.0379364,3.05599999427795
1389.0535614,3.05599999427795
1389.0691864,3.0550000667572
1389.0848114,3.05599999427795
1389.1004364,3.0550000667572
1389.1160614,3.05299997329712
1389.1316864,3.05200004577637
1389.1473114,3.05100011825562
1389.1629364,3.05100011825562
1389.1785614,3.04999995231628
1389.1941864,3.05100011825562
1389.2098114,3.04999995231628
1389.2254364,3.04999995231628
1389.2410614,3.04900002479553
1389.2566864,3.04900002479553
1389.2723114,3.04800009727478
1389.2879364,3.04800009727478
1389.3035614,3.04800009727478
1389.3191864,3.04800009727478
1389.3348114,3.04999995231628
1389.3504364,3.04999995231628
1389.3660614,3.05200004577637
1389.3816864,3.05299997329712
1389.3973114,3.05399990081787
1389.4129364,3.0550000667572
1389.4285614,3.05599999427795
1389.4441864,3.05699992179871
1389.4598114,3.05800008773804
1389.4754364,3.05999994277954
1389.4910614,3.06100010871887
1389.5066864,3.06200003623962
1389.5223114,3.06299996376038
1389.5379364,3.06299996376038
1389.5535614,3.06299996376038
1389.5691864,3.06299996376038
1389.5848114,3.06399989128113
1389.6004364,3.06399989128113
1389.6160614,3.06599998474121
1389.6316864,3.06599998474121
1389.6473114,3.06500005722046
1389.6629364,3.06500005722046
1389.6785614,3.06399989128113
1389.6941864,3.06399989128113
1389.7098114,3.06399989128113
1389.7254364,3.06500005722046
1389.7410614,3.06500005722046
1389.7566864,3.06500005722046
1389.7723114,3.06500005722046
1389.7879364,3.06399989128113
1389.8035614,3.06299996376038
1389.8191864,3.06200003623962
1389.8348114,3.06200003623962
1389.8504364,3.06100010871887
1389.8660614,3.06299996376038
1389.8816864,3.06200003623962
1389.8973114,3.06299996376038
1389.9129364,3.06299996376038
1389.9285614,3.06200003623962
1389.9441864,3.06200003623962
1389.9598114,3.06100010871887
1389.9754364,3.06100010871887
1389.9910614,3.06100010871887
1390.0066864,3.06200003623962
1390.0223114,3.06100010871887
1390.0379364,3.06100010871887
1390.0535614,3.05999994277954
1390.0691864,3.05800008773804
1390.0848114,3.05699992179871
1390.1004364,3.05599999427795
1390.1160614,3.0550000667572
1390.1316864,3.05399990081787
1390.1473114,3.05399990081787
1390.1629364,3.05299997329712
1390.1785614,3.05100011825562
1390.1941864,3.04999995231628
1390.2098114,3.04900002479553
1390.2254364,3.04900002479553
1390.2410614,3.04800009727478
1390.2566864,3.04900002479553
1390.2723114,3.04800009727478
1390.2879364,3.04900002479553
1390.3035614,3.04800009727478
1390.3191864,3.04699993133545
1390.3348114,3.04699993133545
1390.3504364,3.0460000038147
1390.3660614,3.04500007629395
1390.3816864,3.04399991035461
1390.3973114,3.04500007629395
1390.4129364,3.04299998283386
1390.4285614,3.04200005531311
1390.4441864,3.03999996185303
1390.4598114,3.03800010681152
1390.4754364,3.03699994087219
1390.4910614,3.03600001335144
1390.5066864,3.03600001335144
1390.5223114,3.03500008583069
1390.5379364,3.03600001335144
1390.5535614,3.03600001335144
1390.5691864,3.03699994087219
1390.5848114,3.03699994087219
1390.6004364,3.03699994087219
1390.6160614,3.03800010681152
1390.6316864,3.03900003433228
1390.6473114,3.03999996185303
1390.6629364,3.04099988937378
1390.6785614,3.04299998283386
1390.6941864,3.04399991035461
1390.7098114,3.04500007629395
1390.7254364,3.04699993133545
1390.7410614,3.04800009727478
1390.7566864,3.04999995231628
1390.7723114,3.05200004577637
1390.7879364,3.05599999427795
1390.8035614,3.05800008773804
1390.8191864,3.06100010871887
1390.8348114,3.06299996376038
1390.8504364,3.06500005722046
1390.8660614,3.06699991226196
1390.8816864,3.06900000572205
1390.8973114,3.07100009918213
1390.9129364,3.07299995422363
1390.9285614,3.07599997520447
1390.9441864,3.07800006866455
1390.9598114,3.08100008964539
1390.9754364,3.08200001716614
1390.9910614,3.08299994468689
1391.0066864,3.08500003814697
1391.0223114,3.08699989318848
1391.0379364,3.08899998664856
1391.0535614,3.08999991416931
1391.0691864,3.09400010108948
1391.0848114,3.09599995613098
1391.1004364,3.09800004959106
1391.1160614,3.09999990463257
1391.1316864,3.1010000705719
1391.1473114,3.1029999256134
1391.1629364,3.10500001907349
1391.1785614,3.10700011253357
1391.1941864,3.10899996757507
1391.2098114,3.11199998855591
1391.2254364,3.11299991607666
1391.2410614,3.11400008201599
1391.2566864,3.1159999370575
1391.2723114,3.11800003051758
1391.2879364,3.11999988555908
1391.3035614,3.12199997901917
1391.3191864,3.125
1391.3348114,3.12700009346008
1391.3504364,3.13000011444092
1391.3660614,3.13100004196167
1391.3816864,3.13199996948242
1391.3973114,3.1340000629425
1391.4129364,3.1340000629425
1391.4285614,3.13599991798401
1391.4441864,3.13700008392334
1391.4598114,3.14000010490417
1391.4754364,3.14000010490417
1391.4910614,3.14100003242493
1391.5066864,3.14199995994568
1391.5223114,3.14199995994568
1391.5379364,3.14299988746643
1391.5535614,3.14299988746643
1391.5691864,3.14499998092651
1391.5848114,3.14499998092651
1391.6004364,3.1470000743866
1391.6160614,3.1470000743866
1391.6316864,3.1470000743866
1391.6473114,3.1470000743866
1391.6629364,3.14599990844727
1391.6785614,3.14599990844727
1391.6941864,3.14599990844727
1391.7098114,3.14599990844727
1391.7254364,3.14599990844727
1391.7410614,3.1470000743866
1391.7566864,3.1470000743866
1391.7723114,3.1470000743866
1391.7879364,3.14599990844727
1391.8035614,3.14599990844727
1391.8191864,3.14499998092651
1391.8348114,3.14499998092651
1391.8504364,3.14599990844727
1391.8660614,3.14499998092651
1391.8816864,3.14599990844727
1391.8973114,3.14599990844727
1391.9129364,3.14499998092651
1391.9285614,3.14499998092651
1391.9441864,3.14400005340576
1391.9598114,3.14400005340576
1391.9754364,3.14299988746643
1391.9910614,3.14499998092651
1392.0066864,3.14400005340576
1392.0223114,3.14499998092651
1392.0379364,3.14499998092651
1392.0535614,3.14400005340576
1392.0691864,3.14299988746643
1392.0848114,3.14299988746643
1392.1004364,3.14299988746643
1392.1160614,3.14199995994568
1392.1316864,3.14400005340576
1392.1473114,3.14299988746643
1392.1629364,3.14299988746643
1392.1785614,3.14299988746643
1392.1941864,3.14199995994568
1392.2098114,3.14100003242493
1392.2254364,3.14000010490417
1392.2410614,3.14100003242493
1392.2566864,3.14000010490417
1392.2723114,3.14000010490417
1392.2879364,3.14000010490417
1392.3035614,3.13899993896484
1392.3191864,3.13800001144409
1392.3348114,3.13599991798401
1392.3504364,3.13599991798401
1392.3660614,3.13599991798401
1392.3816864,3.13599991798401
1392.3973114,3.13599991798401
1392.4129364,3.13700008392334
