Time(s),Value(%)
596.0073503,45.5699996948242
596.0229753,44.3199996948242
596.0386003,43.0099983215332
596.0542253,41.5999984741211
596.0698503,40.0999984741211
596.0854753,38.5099983215332
596.1011003,36.8400001525879
596.1167253,35.0800018310547
596.1323503,33.2200012207031
596.1479753,31.25
596.1636003,29.2700004577637
596.1792253,27.3400001525879
596.1948503,25.5
596.2104753,23.7099990844727
596.2261003,21.9400005340576
596.2417253,20.1800003051758
596.2573503,18.5100002288818
596.2729753,16.9799995422363
596.2886003,15.6199998855591
596.3042253,14.4300003051758
596.3198503,13.3900003433228
596.3354753,12.5
596.3511003,11.7299995422363
596.3667253,11.0600004196167
596.3823503,10.4700002670288
596.3979753,10.039999961853
596.4136003,10.0100002288818
596.4292253,10.5799999237061
596.4448503,11.8199996948242
596.4604753,13.6099996566772
596.4761003,15.8400001525879
596.4917253,18.4200000762939
596.5073503,21.2000007629395
596.5229753,23.8899993896484
596.5386003,26.1000003814697
596.5542253,27.5400009155273
596.5698503,28.2399997711182
596.5854753,28.3899993896484
596.6011003,28.1599998474121
596.6167253,27.6000003814697
596.6323503,26.7000007629395
596.6479753,25.5300006866455
596.6636003,24.1800003051758
596.6792253,22.7800006866455
596.6948503,21.3500003814697
596.7104753,19.9200000762939
596.7261003,18.4500007629395
596.7417253,16.9899997711182
596.7573503,15.6199998855591
596.7729753,14.4300003051758
596.7886003,13.4399995803833
596.8042253,12.5699996948242
596.8198503,11.6599998474121
596.8354753,10.5799999237061
596.8511003,9.26000022888184
596.8667253,7.71999979019165
596.8823503,6.01000022888184
596.8979753,4.19000005722046
596.9136003,2.28999996185303
596.9292253,0.379999995231628
596.9448503,-1.47000002861023
596.9604753,-3.20000004768372
596.9761003,-4.71000003814697
596.9917253,-5.96000003814697
597.0073503,-6.94999980926514
597.0229753,-7.73000001907349
597.0386003,-8.39000034332275
597.0542253,-8.98999977111816
597.0698503,-9.5600004196167
597.0854753,-10.1499996185303
597.1011003,-10.8100004196167
597.1167253,-11.460000038147
597.1323503,-11.8599996566772
597.1479753,-11.7200002670288
597.1636003,-10.9399995803833
597.1792253,-9.71000003814697
597.1948503,-8.31999969482422
597.2104753,-7.03000020980835
597.2261003,-5.98000001907349
597.2417253,-5.15999984741211
597.2573503,-4.42999982833862
597.2729753,-3.6800000667572
597.2886003,-2.83999991416931
597.3042253,-1.9099999666214
597.3198503,-0.889999985694885
597.3354753,0.189999997615814
597.3511003,1.27999997138977
597.3667253,2.17000007629395
597.3823503,2.49000000953674
597.3979753,1.92999994754791
597.4136003,0.400000005960464
597.4292253,-1.87000000476837
597.4448503,-4.57000017166138
597.4604753,-7.3600001335144
597.4761003,-10.0299997329712
597.4917253,-12.5100002288818
597.5073503,-14.8000001907349
597.5229753,-17.0
597.5386003,-19.2700004577637
597.5542253,-21.7399997711182
597.5698503,-24.4400005340576
597.5854753,-27.3500003814697
597.6011003,-30.4799995422363
597.6167253,-33.8300018310547
597.6323503,-37.7200012207031
597.6479753,-41.6199989318848
597.6636003,-45.189998626709
597.6792253,-48.2000007629395
597.6948503,-50.6399993896484
597.7104753,-52.6500015258789
597.7261003,-54.2999992370605
597.7417253,-55.5400009155273
597.7573503,-56.3300018310547
597.7729753,-56.7099990844727
597.7886003,-56.7900009155273
597.8042253,-56.6800003051758
597.8198503,-56.4099998474121
597.8354753,-55.9799995422363
597.8511003,-55.3499984741211
597.8667253,-54.4500007629395
597.8823503,-53.1599998474121
597.8979753,-51.3899993896484
597.9136003,-49.1500015258789
597.9292253,-46.560001373291
597.9448503,-43.75
597.9604753,-40.7700004577637
597.9761003,-37.5200004577637
597.9917253,-33.9799995422363
598.0073503,-30.3299999237061
598.0229753,-26.8899993896484
598.0386003,-23.8999996185303
598.0542253,-21.4200000762939
598.0698503,-19.3199996948242
598.0854753,-17.3999996185303
598.1011003,-15.4899997711182
598.1167253,-13.5
598.1323503,-11.4499998092651
598.1479753,-9.36999988555908
598.1636003,-7.28999996185303
598.1792253,-5.19999980926514
598.1948503,-3.14000010490417
598.2104753,-1.22000002861023
598.2261003,0.28999999165535
598.2417253,1.24000000953674
598.2573503,1.60000002384186
598.2729753,1.54999995231628
598.2886003,1.32000005245209
598.3042253,1.0900000333786
598.3198503,0.930000007152557
598.3354753,0.879999995231628
598.3511003,0.910000026226044
598.3667253,0.980000019073486
598.3823503,0.990000009536743
598.3979753,0.870000004768372
598.4136003,0.610000014305115
598.4292253,0.209999993443489
598.4448503,-0.300000011920929
598.4604753,-0.870000004768372
598.4761003,-1.46000003814697
598.4917253,-2.01999998092651
598.5073503,-2.52999997138977
598.5229753,-2.95000004768372
598.5386003,-3.25999999046326
598.5542253,-3.44000005722046
598.5698503,-3.49000000953674
598.5854753,-3.3199999332428
598.6011003,-2.77999997138977
598.6167253,-1.70000004768372
598.6323503,-0.0900000035762787
598.6479753,1.87000000476837
598.6636003,3.97000002861023
598.6792253,6.13000011444092
598.6948503,8.56999969482422
598.7104753,11.4799995422363
598.7261003,14.7700004577637
598.7417253,18.0400009155273
598.7573503,20.8799991607666
598.7729753,23.1200008392334
598.7886003,24.8099994659424
598.8042253,26.2099990844727
598.8198503,27.5599994659424
598.8354753,29.0499992370605
598.8511003,30.7099990844727
598.8667253,32.5400009155273
598.8823503,34.5499992370605
598.8979753,36.7999992370605
598.9136003,39.2200012207031
598.9292253,41.4900016784668
598.9448503,43.0499992370605
598.9604753,43.4700012207031
598.9761003,42.7999992370605
598.9917253,41.4300003051758
599.0073503,39.7900009155273
599.0229753,38.0699996948242
599.0386003,36.2999992370605
599.0542253,34.4599990844727
599.0698503,32.5400009155273
599.0854753,30.4899997711182
599.1011003,28.2000007629395
599.1167253,25.5599994659424
599.1323503,22.5599994659424
599.1479753,19.3099994659424
599.1636003,15.8999996185303
599.1792253,12.4300003051758
599.1948503,8.96000003814697
599.2104753,5.59000015258789
599.2261003,2.34999990463257
599.2417253,-0.75
599.2573503,-3.76999998092651
599.2729753,-6.76000022888184
599.2886003,-9.64000034332275
599.3042253,-12.3000001907349
599.3198503,-14.6300001144409
599.3354753,-16.6100006103516
599.3511003,-18.2999992370605
599.3667253,-19.6200008392334
599.3823503,-20.3700008392334
599.3979753,-20.3099994659424
599.4136003,-19.3799991607666
599.4292253,-17.6399993896484
599.4448503,-15.1199998855591
599.4604753,-11.8400001525879
599.4761003,-7.94999980926514
599.4917253,-3.86999988555908
599.5073503,-0.109999999403954
599.5229753,2.98000001907349
599.5386003,5.53000020980835
599.5542253,7.80000019073486
599.5698503,9.85999965667725
599.5854753,11.4799995422363
599.6011003,12.460000038147
599.6167253,12.7799997329712
599.6323503,12.6499996185303
599.6479753,12.289999961853
599.6636003,11.8699998855591
599.6792253,11.4200000762939
599.6948503,10.9300003051758
599.7104753,10.4099998474121
599.7261003,9.92000007629395
599.7417253,9.5600004196167
599.7573503,9.34000015258789
599.7729753,9.10000038146973
599.7886003,8.57999992370605
599.8042253,7.51000022888184
599.8198503,5.8899998664856
599.8354753,3.91000008583069
599.8511003,1.80999994277954
599.8667253,-0.219999998807907
599.8823503,-2.15000009536743
599.8979753,-3.97000002861023
599.9136003,-5.69999980926514
599.9292253,-7.40999984741211
599.9448503,-9.19999980926514
599.9604753,-11.1599998474121
599.9761003,-13.2700004577637
599.9917253,-15.460000038147
600.0073503,-17.5799999237061
600.0229753,-19.5300006866455
600.0386003,-21.2600002288818
600.0542253,-22.75
600.0698503,-23.9699993133545
600.0854753,-24.8400001525879
600.1011003,-25.1800003051758
600.1167253,-24.8500003814697
600.1323503,-23.8999996185303
600.1479753,-22.5400009155273
600.1636003,-21.0599994659424
600.1792253,-19.6700000762939
600.1948503,-18.4500007629395
600.2104753,-17.2600002288818
600.2261003,-15.8199996948242
600.2417253,-13.8699998855591
600.2573503,-11.3400001525879
600.2729753,-8.36999988555908
600.2886003,-5.1399998664856
600.3042253,-1.80999994277954
600.3198503,1.42999994754791
600.3354753,4.30999994277954
600.3511003,6.3600001335144
600.3667253,7.21999979019165
600.3823503,6.98000001907349
600.3979753,6.05999994277954
600.4136003,4.92000007629395
600.4292253,3.89000010490417
600.4448503,3.09999990463257
600.4604753,2.57999992370605
600.4761003,2.26999998092651
600.4917253,2.0
600.5073503,1.55999994277954
600.5229753,0.680000007152557
600.5386003,-0.810000002384186
600.5542253,-2.99000000953674
600.5698503,-5.76000022888184
600.5854753,-8.89000034332275
600.6011003,-12.1300001144409
600.6167253,-15.2399997711182
600.6323503,-18.0599994659424
600.6479753,-20.4099998474121
600.6636003,-22.0900001525879
600.6792253,-22.9200000762939
600.6948503,-22.9300003051758
600.7104753,-22.3999996185303
600.7261003,-21.6900005340576
600.7417253,-21.1200008392334
600.7573503,-20.8299999237061
600.7729753,-20.8299999237061
600.7886003,-21.0799999237061
600.8042253,-21.4599990844727
600.8198503,-21.7999992370605
600.8354753,-21.8700008392334
600.8511003,-21.5300006866455
600.8667253,-20.7600002288818
600.8823503,-19.6800003051758
600.8979753,-18.4699993133545
600.9136003,-17.2299995422363
600.9292253,-15.8699998855591
600.9448503,-14.0500001907349
600.9604753,-11.3900003433228
600.9761003,-7.78999996185303
600.9917253,-3.35999989509583
601.0073503,1.75
601.0229753,7.44000005722046
601.0386003,13.4899997711182
601.0542253,19.3600006103516
601.0698503,24.2800006866455
601.0854753,27.6900005340576
601.1011003,29.5499992370605
601.1167253,30.2600002288818
601.1323503,30.2099990844727
601.1479753,29.5699996948242
601.1636003,28.4300003051758
601.1792253,26.9300003051758
601.1948503,25.2399997711182
601.2104753,23.5900001525879
601.2261003,22.1299991607666
601.2417253,20.9599990844727
601.2573503,20.0599994659424
601.2729753,19.3600006103516
601.2886003,18.8099994659424
601.3042253,18.3799991607666
601.3198503,18.0400009155273
601.3354753,17.6299991607666
601.3511003,16.9099998474121
601.3667253,15.6400003433228
601.3823503,13.7399997711182
601.3979753,11.3100004196167
601.4136003,8.5600004196167
601.4292253,5.71999979019165
601.4448503,2.95000004768372
601.4604753,0.360000014305115
601.4761003,-2.02999997138977
601.4917253,-4.28999996185303
601.5073503,-6.5
601.5229753,-8.75
601.5386003,-11.0600004196167
601.5542253,-13.4200000762939
601.5698503,-15.789999961853
601.5854753,-18.1599998474121
601.6011003,-20.4799995422363
601.6167253,-22.6599998474121
601.6323503,-24.5
601.6479753,-25.7600002288818
601.6636003,-26.2399997711182
601.6792253,-25.8400001525879
601.6948503,-24.6399993896484
601.7104753,-22.8700008392334
601.7261003,-20.8299999237061
601.7417253,-18.7900009155273
601.7573503,-16.8799991607666
601.7729753,-15.0100002288818
601.7886003,-12.9099998474121
601.8042253,-10.289999961853
601.8198503,-7.07000017166138
601.8354753,-3.39000010490417
601.8511003,0.550000011920929
601.8667253,4.59000015258789
601.8823503,8.53999996185303
601.8979753,12.0799999237061
601.9136003,14.7399997711182
601.9292253,16.1399993896484
601.9448503,16.3199996948242
601.9604753,15.6999998092651
601.9761003,14.7200002670288
601.9917253,13.6800003051758
602.0073503,12.6999998092651
602.0229753,11.7700004577637
602.0386003,10.8400001525879
602.0542253,9.78999996185303
602.0698503,8.40999984741211
602.0854753,6.53000020980835
602.1011003,4.1399998664856
602.1167253,1.36000001430511
602.1323503,-1.61000001430511
602.1479753,-4.67999982833862
602.1636003,-7.73000001907349
602.1792253,-10.6000003814697
602.1948503,-13.1300001144409
602.2104753,-15.2399997711182
602.2261003,-17.0599994659424
602.2417253,-18.7800006866455
602.2573503,-20.4899997711182
602.2729753,-22.0900001525879
602.2886003,-23.4699993133545
602.3042253,-24.5300006866455
602.3198503,-25.3299999237061
602.3354753,-25.9899997711182
602.3511003,-26.7099990844727
602.3667253,-27.6700000762939
602.3823503,-28.8899993896484
602.3979753,-30.2399997711182
602.4136003,-31.5300006866455
602.4292253,-32.5999984741211
602.4448503,-33.3499984741211
602.4604753,-33.6699981689453
602.4761003,-33.3400001525879
602.4917253,-32.1399993896484
602.5073503,-29.9699993133545
602.5229753,-27.0
602.5386003,-23.5599994659424
602.5542253,-19.9799995422363
602.5698503,-16.3999996185303
602.5854753,-12.8100004196167
602.6011003,-9.17000007629395
602.6167253,-5.53000020980835
602.6323503,-2.08999991416931
602.6479753,0.970000028610229
602.6636003,3.57999992370605
602.6792253,5.76000022888184
602.6948503,7.53000020980835
602.7104753,8.88000011444092
602.7261003,9.85999965667725
602.7417253,10.5799999237061
602.7573503,11.1599998474121
602.7729753,11.6599998474121
602.7886003,12.0600004196167
602.8042253,12.2600002288818
602.8198503,12.2399997711182
602.8354753,12.0500001907349
602.8511003,11.7700004577637
602.8667253,11.5100002288818
602.8823503,11.3000001907349
602.8979753,11.0699996948242
602.9136003,10.6599998474121
602.9292253,9.88000011444092
602.9448503,8.6899995803833
602.9604753,7.09000015258789
602.9761003,5.07000017166138
602.9917253,2.59999990463257
603.0073503,-0.209999993443489
603.0229753,-3.07999992370605
603.0386003,-5.55999994277954
603.0542253,-7.38000011444092
603.0698503,-8.61999988555908
603.0854753,-9.5600004196167
603.1011003,-10.3800001144409
603.1167253,-11.0900001525879
603.1323503,-11.7600002288818
603.1479753,-12.5600004196167
603.1636003,-13.5699996948242
603.1792253,-14.6599998474121
603.1948503,-15.4799995422363
603.2104753,-15.6800003051758
603.2261003,-15.0799999237061
603.2417253,-13.7399997711182
603.2573503,-11.75
603.2729753,-9.21000003814697
603.2886003,-6.26999998092651
603.3042253,-3.14000010490417
603.3198503,-0.0099999997764825
603.3354753,2.99000000953674
603.3511003,5.90999984741211
603.3667253,8.82999992370605
603.3823503,11.8000001907349
603.3979753,14.7799997329712
603.4136003,17.6599998474121
603.4292253,20.2999992370605
603.4448503,22.6599998474121
603.4604753,24.6900005340576
603.4761003,26.3600006103516
603.4917253,27.5900001525879
603.5073503,28.2299995422363
603.5229753,28.2600002288818
603.5386003,27.7900009155273
603.5542253,27.0699996948242
603.5698503,26.3500003814697
603.5854753,25.7800006866455
603.6011003,25.3799991607666
603.6167253,25.0200004577637
603.6323503,24.4799995422363
603.6479753,23.5900001525879
603.6636003,22.2999992370605
603.6792253,20.6499996185303
603.6948503,18.6800003051758
603.7104753,16.4099998474121
603.7261003,13.9200000762939
603.7417253,11.5100002288818
603.7573503,9.60000038146973
603.7729753,8.5
603.7886003,8.06999969482422
603.8042253,7.96000003814697
603.8198503,7.86999988555908
603.8354753,7.78000020980835
603.8511003,7.78000020980835
603.8667253,7.96000003814697
603.8823503,8.3100004196167
603.8979753,8.71000003814697
603.9136003,9.01000022888184
603.9292253,9.03999996185303
603.9448503,8.78999996185303
603.9604753,8.32999992370605
603.9761003,7.76999998092651
603.9917253,7.21999979019165
604.0073503,6.76000022888184
604.0229753,6.55999994277954
604.0386003,6.92000007629395
604.0542253,8.11999988555908
604.0698503,10.2299995422363
604.0854753,13.0699996948242
604.1011003,16.2800006866455
604.1167253,19.4799995422363
604.1323503,22.4300003051758
604.1479753,25.0400009155273
604.1636003,27.3700008392334
604.1792253,29.5300006866455
604.1948503,31.7099990844727
604.2104753,34.0400009155273
604.2261003,36.5400009155273
604.2417253,39.0900001525879
604.2573503,41.5699996948242
604.2729753,43.8600006103516
604.2886003,45.8800010681152
604.3042253,47.560001373291
604.3198503,48.75
604.3354753,49.3199996948242
604.3511003,49.2200012207031
604.3667253,48.5999984741211
604.3823503,47.6300010681152
604.3979753,46.5
604.4136003,45.2700004577637
604.4292253,43.9599990844727
604.4448503,42.5400009155273
604.4604753,41.0400009155273
604.4761003,39.5299987792969
604.4917253,38.0299987792969
604.5073503,36.5299987792969
604.5229753,34.9700012207031
604.5386003,33.3499984741211
604.5542253,31.75
604.5698503,30.2299995422363
604.5854753,28.8299999237061
604.6011003,27.5
604.6167253,26.1499996185303
604.6323503,24.6000003814697
604.6479753,22.7299995422363
604.6636003,20.4899997711182
604.6792253,17.9699993133545
604.6948503,15.2200002670288
604.7104753,12.3000001907349
604.7261003,9.28999996185303
604.7417253,6.36999988555908
604.7573503,3.85999989509583
604.7729753,2.02999997138977
604.7886003,1.01999998092651
604.8042253,0.75
604.8198503,1.05999994277954
604.8354753,1.75
604.8511003,2.63000011444092
604.8667253,3.51999998092651
604.8823503,4.34000015258789
604.8979753,5.09000015258789
604.9136003,5.88000011444092
604.9292253,6.84999990463257
604.9448503,8.03999996185303
604.9604753,9.46000003814697
604.9761003,11.0699996948242
604.9917253,12.8599996566772
605.0073503,14.7700004577637
605.0229753,16.5799999237061
605.0386003,18.0200004577637
605.0542253,18.8999996185303
605.0698503,19.2399997711182
605.0854753,19.25
605.1011003,19.0699996948242
605.1167253,18.7099990844727
605.1323503,18.1499996185303
605.1479753,17.3799991607666
605.1636003,16.4400005340576
605.1792253,15.3199996948242
605.1948503,13.9099998474121
605.2104753,12.1000003814697
605.2261003,9.86999988555908
605.2417253,7.30000019073486
605.2573503,4.51999998092651
605.2729753,1.60000002384186
605.2886003,-1.3400000333786
605.3042253,-4.21000003814697
605.3198503,-6.90999984741211
605.3354753,-9.39000034332275
605.3511003,-11.7799997329712
605.3667253,-14.210000038147
605.3823503,-16.7099990844727
605.3979753,-19.1700000762939
605.4136003,-21.4300003051758
605.4292253,-23.4400005340576
605.4448503,-25.2000007629395
605.4604753,-26.8700008392334
605.4761003,-28.6200008392334
605.4917253,-30.6399993896484
605.5073503,-32.9599990844727
605.5229753,-35.6599998474121
605.5386003,-38.8800010681152
605.5542253,-42.7900009155273
605.5698503,-47.3199996948242
605.5854753,-52.0499992370605
605.6011003,-56.5299987792969
605.6167253,-61.2299995422363
605.6323503,-67.9400024414063
605.6479753,-78.5699996948242
605.6636003,-93.3899993896484
605.6792253,-110.76000213623
605.6948503,-128.240005493164
605.7104753,-143.899993896484
605.7261003,-157.039993286133
605.7417253,-168.279998779297
605.7573503,-179.059997558594
605.7729753,-190.720001220703
605.7886003,-203.770004272461
605.8042253,-217.899993896484
605.8198503,-232.529998779297
605.8354753,-247.179992675781
605.8511003,-261.140014648438
605.8667253,-272.589996337891
605.8823503,-278.549987792969
605.8979753,-276.779998779297
605.9136003,-267.899993896484
605.9292253,-254.960006713867
605.9448503,-241.169998168945
605.9604753,-228.389999389648
605.9761003,-216.910003662109
605.9917253,-206.160003662109
606.0073503,-195.630004882813
606.0229753,-185.710006713867
606.0386003,-177.970001220703
606.0542253,-174.070007324219
606.0698503,-174.559997558594
606.0854753,-179.149993896484
606.1011003,-187.5
606.1167253,-199.380004882813
606.1323503,-213.740005493164
606.1479753,-227.789993286133
606.1636003,-237.520004272461
606.1792253,-240.289993286133
606.1948503,-237.029998779297
606.2104753,-230.860000610352
606.2261003,-223.970001220703
606.2417253,-216.449996948242
606.2573503,-207.380004882813
606.2729753,-196.220001220703
606.2886003,-183.389999389648
606.3042253,-170.309997558594
606.3198503,-159.0
606.3354753,-151.020004272461
606.3511003,-146.589996337891
606.3667253,-144.610000610352
606.3823503,-143.380004882813
606.3979753,-141.509994506836
606.4136003,-138.320007324219
606.4292253,-133.789993286133
606.4448503,-128.199996948242
606.4604753,-121.870002746582
606.4761003,-115.269996643066
606.4917253,-109.529998779297
606.5073503,-106.680000305176
606.5229753,-108.51000213623
606.5386003,-114.889999389648
606.5542253,-122.76000213623
606.5698503,-127.0
606.5854753,-123.790000915527
606.6011003,-113.370002746582
606.6167253,-98.7699966430664
606.6323503,-82.5400009155273
606.6479753,-65.5
606.6636003,-47.6699981689453
606.6792253,-29.3299999237061
606.6948503,-10.8900003433228
606.7104753,7.92999982833862
606.7261003,28.5300006866455
606.7417253,52.4199981689453
