Time(s),Value(%)
1569.0092948,107.360000610352
1569.0249198,114.160003662109
1569.0405448,120.720001220703
1569.0561698,126.910003662109
1569.0717948,132.729995727539
1569.0874198,138.419998168945
1569.1030448,144.289993286133
1569.1186698,150.360000610352
1569.1342948,156.360000610352
1569.1499198,161.929992675781
1569.1655448,166.809997558594
1569.1811698,170.940002441406
1569.1967948,174.410003662109
1569.2124198,177.399993896484
1569.2280448,180.009994506836
1569.2436698,182.360000610352
1569.2592948,184.660003662109
1569.2749198,187.360000610352
1569.2905448,190.839996337891
1569.3061698,195.110000610352
1569.3217948,199.619995117188
1569.3374198,203.509994506836
1569.3530448,206.229995727539
1569.3686698,207.940002441406
1569.3842948,209.149993896484
1569.3999198,210.020004272461
1569.4155448,210.270004272461
1569.4311698,207.740005493164
1569.4467948,204.279998779297
1569.4624198,200.050003051758
1569.4780448,195.009994506836
1569.4936698,188.740005493164
1569.5092948,180.729995727539
1569.5249198,170.869995117188
1569.5405448,159.330001831055
1569.5561698,146.199996948242
1569.5717948,131.520004272461
1569.5874198,115.660003662109
1569.6030448,99.4700012207031
1569.6186698,83.9499969482422
1569.6342948,69.5899963378906
1569.6499198,56.0
1569.6655448,42.5800018310547
1569.6811698,29.4899997711182
1569.6967948,17.5499992370605
1569.7124198,7.51000022888184
1569.7280448,-0.5
1569.7436698,-6.94000005722046
1569.7592948,-12.3100004196167
1569.7749198,-16.7900009155273
1569.7905448,-20.2999992370605
1569.8061698,-22.75
1569.8217948,-24.0499992370605
1569.8374198,-24.1000003814697
1569.8530448,-22.8099994659424
1569.8686698,-20.3199996948242
1569.8842948,-16.9300003051758
1569.8999198,-12.7399997711182
1569.9155448,-7.34000015258789
1569.9311698,0.0399999991059303
1569.9467948,9.82999992370605
1569.9624198,21.3199996948242
1569.9780448,32.9799995422363
1569.9936698,43.3699989318848
1570.0092948,51.7799987792969
1570.0249198,58.3699989318848
1570.0405448,63.7700004577637
1570.0561698,68.6999969482422
1570.0717948,73.5999984741211
1570.0874198,78.620002746582
1570.1030448,83.8600006103516
1570.1186698,89.5999984741211
1570.1342948,96.1500015258789
1570.1499198,103.400001525879
1570.1655448,110.360000610352
1570.1811698,115.379997253418
1570.1967948,117.180000305176
1570.2124198,115.849998474121
1570.2280448,112.470001220703
1570.2436698,108.099998474121
1570.2592948,103.180000305176
1570.2749198,97.75
1570.2905448,91.8099975585938
1570.3061698,85.4800033569336
1570.3217948,78.9000015258789
1570.3374198,72.1500015258789
1570.3530448,65.2300033569336
1570.3686698,58.189998626709
1570.3842948,51.1699981689453
1570.3999198,44.4700012207031
1570.4155448,38.3300018310547
1570.4311698,32.4599990844727
1570.4467948,27.0200004577637
1570.4624198,21.5
1570.4780448,15.75
1570.4936698,10.3299999237061
1570.5092948,6.07999992370605
1570.5249198,3.34999990463257
1570.5405448,1.78999996185303
1570.5561698,0.670000016689301
1570.5717948,-0.639999985694885
1570.5874198,-2.42000007629395
1570.6030448,-4.59000015258789
1570.6186698,-6.78999996185303
1570.6342948,-8.71000003814697
1570.6499198,-10.1999998092651
1570.6655448,-11.2799997329712
1570.6811698,-12.0299997329712
1570.6967948,-12.539999961853
1570.7124198,-12.9700002670288
1570.7280448,-13.8400001525879
1570.7436698,-16.0200004577637
1570.7592948,-20.2600002288818
1570.7749198,-26.6299991607666
1570.7905448,-34.4599990844727
1570.8061698,-42.8600006103516
1570.8217948,-51.0699996948242
1570.8374198,-58.7200012207031
1570.8530448,-65.7300033569336
1570.8686698,-72.1999969482422
1570.8842948,-78.3499984741211
1570.8999198,-84.4000015258789
1570.9155448,-90.5299987792969
1570.9311698,-96.7300033569336
1570.9467948,-102.940002441406
1570.9624198,-109.129997253418
1570.9780448,-115.309997558594
1570.9936698,-121.419998168945
1571.0092948,-127.290000915527
1571.0249198,-132.600006103516
1571.0405448,-137.009994506836
1571.0561698,-140.169998168945
1571.0717948,-141.869995117188
1571.0874198,-142.050003051758
1571.1030448,-140.649993896484
1571.1186698,-137.479995727539
1571.1342948,-132.449996948242
1571.1499198,-125.870002746582
1571.1655448,-118.529998779297
1571.1811698,-111.440002441406
1571.1967948,-105.25
1571.2124198,-100.01000213623
1571.2280448,-95.4499969482422
1571.2436698,-91.6500015258789
1571.2592948,-88.9400024414063
1571.2749198,-87.5100021362305
1571.2905448,-87.1600036621094
1571.3061698,-87.4400024414063
1571.3217948,-88.0
1571.3374198,-88.879997253418
1571.3530448,-90.3099975585938
1571.3686698,-92.4199981689453
1571.3842948,-95.0800018310547
1571.3999198,-98.0100021362305
1571.4155448,-100.949996948242
1571.4311698,-101.769996643066
1571.4467948,-102.25
1571.4624198,-102.330001831055
1571.4780448,-102.089996337891
1571.4936698,-101.720001220703
1571.5092948,-101.419998168945
1571.5249198,-101.23999786377
1571.5405448,-101.040000915527
1571.5561698,-100.629997253418
1571.5717948,-99.9100036621094
1571.5874198,-98.8899993896484
1571.6030448,-97.6500015258789
1571.6186698,-96.2900009155273
1571.6342948,-94.9000015258789
1571.6499198,-93.4400024414063
1571.6655448,-91.6900024414063
1571.6811698,-89.2300033569336
1571.6967948,-85.6699981689453
1571.7124198,-80.9700012207031
1571.7280448,-75.4199981689453
1571.7436698,-69.379997253418
1571.7592948,-63.0900001525879
1571.7749198,-56.6199989318848
1571.7905448,-50.1599998474121
1571.8061698,-44.1500015258789
1571.8217948,-39.1100006103516
1571.8374198,-35.2799987792969
1571.8530448,-32.4500007629395
1571.8686698,-30.2399997711182
1571.8842948,-28.3600006103516
1571.8999198,-26.8299999237061
1571.9155448,-25.8700008392334
1571.9311698,-25.5900001525879
1571.9467948,-25.9099998474121
1571.9624198,-26.6700000762939
1571.9780448,-27.6900005340576
1571.9936698,-28.7900009155273
1572.0092948,-29.7399997711182
1572.0249198,-30.3199996948242
1572.0405448,-30.4300003051758
1572.0561698,-30.2000007629395
1572.0717948,-29.8500003814697
1572.0874198,-29.4799995422363
1572.1030448,-29.0100002288818
1572.1186698,-28.3099994659424
1572.1342948,-27.3199996948242
1572.1499198,-26.0900001525879
1572.1655448,-24.8199996948242
1572.1811698,-23.75
1572.1967948,-23.0799999237061
1572.2124198,-22.8099994659424
1572.2280448,-22.6499996185303
1572.2436698,-22.1000003814697
1572.2592948,-20.7099990844727
1572.2749198,-18.3400001525879
1572.2905448,-15.0699996948242
1572.3061698,-10.960000038147
1572.3217948,-5.92000007629395
1572.3374198,0.230000004172325
1572.3530448,7.3899998664856
1572.3686698,15.0200004577637
1572.3842948,22.3099994659424
1572.3999198,28.6800003051758
1572.4155448,33.9700012207031
1572.4311698,38.4500007629395
1572.4467948,42.2599983215332
1572.4624198,45.3899993896484
1572.4780448,47.689998626709
1572.4936698,49.0900001525879
1572.5092948,49.75
1572.5249198,49.9000015258789
1572.5405448,49.7799987792969
1572.5561698,49.560001373291
1572.5717948,49.3300018310547
1572.5874198,49.060001373291
1572.6030448,48.6599998474121
1572.6186698,47.9700012207031
1572.6342948,46.9199981689453
1572.6499198,45.6399993896484
1572.6655448,44.3400001525879
1572.6811698,43.2200012207031
1572.6967948,42.3800010681152
1572.7124198,41.7599983215332
1572.7280448,41.2200012207031
1572.7436698,40.5699996948242
1572.7592948,39.6599998474121
1572.7749198,38.4900016784668
1572.7905448,37.1300010681152
1572.8061698,35.689998626709
1572.8217948,34.2400016784668
1572.8374198,32.8600006103516
1572.8530448,31.6900005340576
1572.8686698,31.0100002288818
1572.8842948,31.1700000762939
1572.8999198,32.4599990844727
1572.9155448,34.939998626709
1572.9311698,38.3800010681152
1572.9467948,42.3400001525879
1572.9624198,46.3499984741211
1572.9780448,50.060001373291
1572.9936698,53.3400001525879
1573.0092948,56.1800003051758
1573.0249198,58.5999984741211
1573.0405448,60.6599998474121
1573.0561698,62.4000015258789
1573.0717948,63.8400001525879
1573.0874198,64.9700012207031
1573.1030448,65.7900009155273
1573.1186698,66.2799987792969
1573.1342948,66.4199981689453
1573.1499198,66.0599975585938
1573.1655448,64.9899978637695
1573.1811698,63.0499992370605
1573.1967948,60.2599983215332
1573.2124198,56.8800010681152
1573.2280448,53.2400016784668
1573.2436698,49.4300003051758
1573.2592948,45.4099998474121
1573.2749198,41.1100006103516
1573.2905448,36.7299995422363
1573.3061698,32.6199989318848
1573.3217948,29.0
1573.3374198,25.6900005340576
1573.3530448,22.3899993896484
1573.3686698,19.0100002288818
1573.3842948,15.8000001907349
1573.3999198,13.039999961853
1573.4155448,10.8800001144409
1573.4311698,9.3100004196167
1573.4467948,8.05000019073486
1573.4624198,6.94999980926514
1573.4780448,5.94999980926514
1573.4936698,5.03999996185303
1573.5092948,4.30999994277954
1573.5249198,3.86999988555908
1573.5405448,3.84999990463257
1573.5561698,4.26000022888184
1573.5717948,5.17000007629395
1573.5874198,6.69999980926514
1573.6030448,9.02999973297119
1573.6186698,12.0799999237061
1573.6342948,15.5
1573.6499198,18.7800006866455
1573.6655448,21.4899997711182
1573.6811698,23.4899997711182
1573.6967948,24.8899993896484
1573.7124198,25.9400005340576
1573.7280448,26.7800006866455
1573.7436698,27.3099994659424
1573.7592948,27.3500003814697
1573.7749198,26.8099994659424
1573.7905448,25.7199993133545
1573.8061698,24.2000007629395
1573.8217948,22.3500003814697
1573.8374198,20.3299999237061
1573.8530448,18.3899993896484
1573.8686698,16.8700008392334
1573.8842948,15.960000038147
1573.8999198,15.5299997329712
1573.9155448,15.2399997711182
1573.9311698,14.8800001144409
1573.9467948,14.4399995803833
1573.9624198,14.039999961853
1573.9780448,13.7799997329712
1573.9936698,13.6700000762939
1574.0092948,13.5699996948242
1574.0249198,13.2399997711182
1574.0405448,12.4799995422363
1574.0561698,11.2399997711182
1574.0717948,9.72999954223633
1574.0874198,8.25
1574.1030448,7.07999992370605
1574.1186698,6.36999988555908
1574.1342948,6.21999979019165
1574.1499198,6.84999990463257
1574.1655448,8.52999973297119
1574.1811698,11.3900003433228
1574.1967948,15.25
1574.2124198,19.6299991607666
1574.2280448,23.9099998474121
1574.2436698,27.6800003051758
1574.2592948,30.7900009155273
1574.2749198,33.3199996948242
1574.2905448,35.3300018310547
1574.3061698,36.7299995422363
1574.3217948,37.3600006103516
1574.3374198,37.1800003051758
1574.3530448,36.310001373291
1574.3686698,34.9300003051758
1574.3842948,33.2000007629395
1574.3999198,31.2700004577637
1574.4155448,29.2999992370605
1574.4311698,28.0200004577637
1574.4467948,26.7900009155273
1574.4624198,25.4799995422363
1574.4780448,23.8999996185303
1574.4936698,22.0599994659424
1574.5092948,20.1100006103516
1574.5249198,18.3099994659424
1574.5405448,16.75
1574.5561698,15.3999996185303
1574.5717948,14.039999961853
1574.5874198,12.3199996948242
1574.6030448,9.94999980926514
1574.6186698,6.86999988555908
1574.6342948,3.21000003814697
1574.6499198,-0.899999976158142
1574.6655448,-5.36999988555908
1574.6811698,-10.0299997329712
1574.6967948,-14.460000038147
1574.7124198,-18.0100002288818
1574.7280448,-19.9899997711182
1574.7436698,-20.0699996948242
1574.7592948,-18.3400001525879
1574.7749198,-15.210000038147
1574.7905448,-11.210000038147
1574.8061698,-6.8899998664856
1574.8217948,-2.67000007629395
1574.8374198,1.19000005722046
1574.8530448,4.59000015258789
1574.8686698,7.46000003814697
1574.8842948,9.80000019073486
1574.8999198,11.6400003433228
1574.9155448,12.9899997711182
1574.9311698,13.8000001907349
1574.9467948,13.9499998092651
1574.9624198,13.460000038147
1574.9780448,12.460000038147
1574.9936698,11.0600004196167
1575.0092948,9.22999954223633
1575.0249198,6.84999990463257
1575.0405448,3.90000009536743
1575.0561698,0.629999995231628
1575.0717948,-2.47000002861023
1575.0874198,-5.05999994277954
1575.1030448,-7.03999996185303
1575.1186698,-8.56999969482422
1575.1342948,-10.0100002288818
1575.1499198,-11.7799997329712
1575.1655448,-14.1400003433228
1575.1811698,-17.1399993896484
1575.1967948,-20.7199993133545
1575.2124198,-24.8999996185303
1575.2280448,-29.7299995422363
1575.2436698,-35.0800018310547
1575.2592948,-40.439998626709
1575.2749198,-44.9799995422363
1575.2905448,-48.0800018310547
1575.3061698,-49.6599998474121
1575.3217948,-50.0999984741211
1575.3374198,-49.7400016784668
1575.3530448,-48.7400016784668
1575.3686698,-47.1699981689453
1575.3842948,-45.189998626709
1575.3999198,-42.9599990844727
1575.4155448,-40.4300003051758
1575.4311698,-38.1500015258789
1575.4467948,-34.5200004577637
1575.4624198,-29.4200000762939
1575.4780448,-23.2399997711182
1575.4936698,-16.7600002288818
1575.5092948,-10.6899995803833
1575.5249198,-5.46000003814697
1575.5405448,-1.25999999046326
1575.5561698,1.71000003814697
1575.5717948,3.25999999046326
1575.5874198,3.24000000953674
1575.6030448,1.83000004291534
1575.6186698,-0.430000007152557
1575.6342948,-3.00999999046326
1575.6499198,-5.57000017166138
1575.6655448,-8.11999988555908
1575.6811698,-10.7799997329712
1575.6967948,-13.4700002670288
1575.7124198,-15.8800001144409
1575.7280448,-17.7700004577637
1575.7436698,-19.2199993133545
1575.7592948,-20.5100002288818
1575.7749198,-21.7800006866455
1575.7905448,-22.9500007629395
1575.8061698,-23.8400001525879
1575.8217948,-24.3700008392334
1575.8374198,-24.6100006103516
1575.8530448,-24.8299999237061
1575.8686698,-25.3700008392334
1575.8842948,-26.5100002288818
1575.8999198,-28.2700004577637
1575.9155448,-30.3999996185303
1575.9311698,-32.4900016784668
1575.9467948,-34.189998626709
1575.9624198,-35.2999992370605
1575.9780448,-35.6599998474121
1575.9936698,-34.8899993896484
1576.0092948,-32.3699989318848
1576.0249198,-27.4699993133545
1576.0405448,-20.0400009155273
1576.0561698,-10.7200002670288
1576.0717948,-0.649999976158142
1576.0874198,9.01000022888184
1576.1030448,17.6000003814697
1576.1186698,24.9599990844727
1576.1342948,31.2800006866455
1576.1499198,36.75
1576.1655448,41.5200004577637
1576.1811698,45.6699981689453
1576.1967948,49.2799987792969
1576.2124198,52.439998626709
1576.2280448,55.25
1576.2436698,57.7000007629395
1576.2592948,59.5400009155273
1576.2749198,60.2000007629395
1576.2905448,59.0900001525879
1576.3061698,55.9799995422363
1576.3217948,51.1800003051758
1576.3374198,45.4199981689453
1576.3530448,39.4599990844727
1576.3686698,33.8400001525879
1576.3842948,28.7700004577637
1576.3999198,24.1499996185303
1576.4155448,19.6399993896484
1576.4311698,14.9899997711182
1576.4467948,9.38000011444092
1576.4624198,2.71000003814697
1576.4780448,-4.92000007629395
1576.4936698,-13.5200004577637
1576.5092948,-23.1399993896484
1576.5249198,-33.5699996948242
1576.5405448,-44.1199989318848
1576.5561698,-53.6599998474121
1576.5717948,-61.1199989318848
1576.5874198,-65.9400024414063
1576.6030448,-68.129997253418
1576.6186698,-67.9499969482422
1576.6342948,-65.8399963378906
1576.6499198,-62.3699989318848
1576.6655448,-58.25
1576.6811698,-54.0099983215332
1576.6967948,-49.7099990844727
1576.7124198,-44.8300018310547
1576.7280448,-38.7099990844727
1576.7436698,-31.0900001525879
1576.7592948,-22.3400001525879
1576.7749198,-13.1000003814697
1576.7905448,-3.94000005722046
1576.8061698,4.61999988555908
1576.8217948,12.0299997329712
1576.8374198,17.4200000762939
1576.8530448,20.1000003814697
1576.8686698,20.0900001525879
1576.8842948,18.1299991607666
1576.8999198,15.1800003051758
1576.9155448,12.0200004577637
1576.9311698,9.0600004196167
1576.9467948,6.3899998664856
1576.9624198,3.91000008583069
1576.9780448,1.48000001907349
1576.9936698,-1.01999998092651
1577.0092948,-3.67000007629395
1577.0249198,-6.42999982833862
1577.0405448,-9.23999977111816
1577.0561698,-12.0699996948242
1577.0717948,-14.8900003433228
1577.0874198,-17.6900005340576
1577.1030448,-20.4300003051758
1577.1186698,-23.0699996948242
1577.1342948,-25.5900001525879
1577.1499198,-28.0400009155273
1577.1655448,-30.4500007629395
1577.1811698,-32.7999992370605
1577.1967948,-35.0099983215332
1577.2124198,-37.0099983215332
1577.2280448,-38.7700004577637
1577.2436698,-40.189998626709
1577.2592948,-40.6300010681152
1577.2749198,-38.7900009155273
1577.2905448,-33.4500007629395
1577.3061698,-24.4300003051758
1577.3217948,-12.4899997711182
1577.3374198,1.32000005245209
1577.3530448,16.1800003051758
1577.3686698,31.2800006866455
1577.3842948,45.3199996948242
1577.3999198,56.5200004577637
1577.4155448,63.5099983215332
1577.4311698,66.5999984741211
1577.4467948,66.4899978637695
1577.4624198,64.2799987792969
1577.4780448,60.6500015258789
1577.4936698,56.0499992370605
1577.5092948,50.8800010681152
1577.5249198,45.5200004577637
1577.5405448,40.1300010681152
1577.5561698,34.5800018310547
1577.5717948,28.6000003814697
1577.5874198,22.1100006103516
1577.6030448,15.2299995422363
1577.6186698,8.22000026702881
1577.6342948,1.33000004291534
1577.6499198,-5.28999996185303
1577.6655448,-11.6000003814697
1577.6811698,-17.6200008392334
1577.6967948,-23.6800003051758
1577.7124198,-30.3500003814697
1577.7280448,-38.1699981689453
1577.7436698,-47.1699981689453
1577.7592948,-56.8199996948242
1577.7749198,-66.2399978637695
1577.7905448,-74.6999969482422
1577.8061698,-81.8300018310547
1577.8217948,-87.4599990844727
1577.8374198,-91.3199996948242
1577.8530448,-92.8600006103516
1577.8686698,-91.3899993896484
1577.8842948,-86.7099990844727
1577.8999198,-79.5199966430664
1577.9155448,-71.1699981689453
1577.9311698,-63.0099983215332
1577.9467948,-55.8499984741211
1577.9624198,-49.9099998474121
1577.9780448,-45.2299995422363
1577.9936698,-41.9900016784668
1578.0092948,-40.4700012207031
1578.0249198,-40.6300010681152
1578.0405448,-41.9900016784668
1578.0561698,-43.9099998474121
1578.0717948,-45.7900009155273
1578.0874198,-47.3699989318848
1578.1030448,-48.689998626709
1578.1186698,-50.0900001525879
1578.1342948,-51.8899993896484
1578.1499198,-54.2400016784668
1578.1655448,-56.9700012207031
1578.1811698,-59.7299995422363
1578.1967948,-62.2000007629395
1578.2124198,-64.1999969482422
1578.2280448,-65.75
1578.2436698,-67.0
1578.2592948,-68.2600021362305
1578.2749198,-70.0199966430664
1578.2905448,-72.629997253418
1578.3061698,-76.129997253418
1578.3217948,-80.1999969482422
1578.3374198,-84.4300003051758
1578.3530448,-88.4700012207031
1578.3686698,-92.0899963378906
1578.3842948,-95.0299987792969
1578.3999198,-96.8000030517578
1578.4155448,-96.6100006103516
1578.4311698,-93.25
1578.4467948,-86.4400024414063
1578.4624198,-76.5500030517578
1578.4780448,-64.75
1578.4936698,-52.4900016784668
1578.5092948,-40.9000015258789
1578.5249198,-30.5200004577637
1578.5405448,-21.2999992370605
1578.5561698,-12.9399995803833
1578.5717948,-5.07999992370605
1578.5874198,2.47000002861023
1578.6030448,9.77999973297119
1578.6186698,16.7999992370605
1578.6342948,23.4500007629395
1578.6499198,29.5900001525879
1578.6655448,34.7200012207031
1578.6811698,37.9099998474121
1578.6967948,38.3300018310547
1578.7124198,35.8499984741211
1578.7280448,31.2299995422363
1578.7436698,25.6700000762939
1578.7592948,20.25
1578.7749198,15.5600004196167
1578.7905448,11.710000038147
1578.8061698,8.38000011444092
1578.8217948,4.8899998664856
1578.8374198,0.280000001192093
1578.8530448,-6.21000003814697
1578.8686698,-14.6199998855591
1578.8842948,-24.1900005340576
1578.8999198,-33.8699989318848
1578.9155448,-42.7999992370605
1578.9311698,-50.689998626709
1578.9467948,-58.0800018310547
1578.9624198,-66.3000030517578
1578.9780448,-76.5800018310547
1578.9936698,-89.2699966430664
1579.0092948,-103.919998168945
1579.0249198,-119.900001525879
1579.0405448,-136.729995727539
1579.0561698,-153.669998168945
1579.0717948,-169.080001831055
1579.0874198,-180.580001831055
1579.1030448,-186.679992675781
1579.1186698,-188.259994506836
1579.1342948,-187.820007324219
1579.1499198,-187.470001220703
1579.1655448,-188.460006713867
1579.1811698,-191.860000610352
1579.1967948,-198.470001220703
1579.2124198,-208.029998779297
1579.2280448,-218.639999389648
1579.2436698,-227.320007324219
1579.2592948,-231.710006713867
1579.2749198,-231.300003051758
1579.2905448,-226.869995117188
1579.3061698,-218.919998168945
1579.3217948,-207.410003662109
1579.3374198,-192.550003051758
1579.3530448,-175.300003051758
1579.3686698,-157.119995117188
