Time(s),Value(%)
308.0042358,29.8099994659424
308.0198608,23.6200008392334
308.0354858,17.5
308.0511108,11.8299999237061
308.0667358,6.53999996185303
308.0823608,1.28999996185303
308.0979858,-4.11999988555908
308.1136108,-9.46000003814697
308.1292358,-14.1499996185303
308.1448608,-17.8500003814697
308.1604858,-20.8099994659424
308.1761108,-23.3799991607666
308.1917358,-25.4099998474121
308.2073608,-26.3700008392334
308.2229858,-25.9599990844727
308.2386108,-24.6499996185303
308.2542358,-23.5200004577637
308.2698608,-23.4099998474121
308.2854858,-24.3700008392334
308.3011108,-25.8099994659424
308.3167358,-27.0100002288818
308.3323608,-27.6000003814697
308.3479858,-27.6100006103516
308.3636108,-27.2399997711182
308.3792358,-26.7000007629395
308.3948608,-26.0599994659424
308.4104858,-25.3400001525879
308.4261108,-24.3700008392334
308.4417358,-22.6499996185303
308.4573608,-19.25
308.4729858,-13.1800003051758
308.4886108,-4.03000020980835
308.5042358,7.67000007629395
308.5198608,20.5900001525879
308.5354858,32.8300018310547
308.5511108,42.5400009155273
308.5667358,48.5299987792969
308.5823608,50.5900001525879
308.5979858,49.5299987792969
308.6136108,46.689998626709
308.6292358,43.25
308.6448608,39.6599998474121
308.6604858,35.4799995422363
308.6761108,29.7999992370605
308.6917358,22.1299991607666
308.7073608,13.0500001907349
308.7229858,3.95000004768372
308.7386108,-3.80999994277954
308.7542358,-9.71000003814697
308.7698608,-14.0
308.7854858,-17.1200008392334
308.8011108,-19.2199993133545
308.8167358,-20.3799991607666
308.8323608,-21.0
308.8479858,-21.6299991607666
308.8636108,-22.6000003814697
308.8792358,-23.8299999237061
308.8948608,-25.2199993133545
308.9104858,-26.8299999237061
308.9261108,-28.6700000762939
308.9417358,-30.5100002288818
308.9573608,-31.8899993896484
308.9729858,-32.2700004577637
308.9886108,-31.3799991607666
309.0042358,-29.25
309.0198608,-26.2700004577637
309.0354858,-23.2999992370605
309.0511108,-21.3700008392334
309.0667358,-20.6599998474121
309.0823608,-19.6200008392334
309.0979858,-15.6999998092651
309.1136108,-7.09999990463257
309.1292358,5.78999996185303
309.1448608,20.7700004577637
309.1604858,34.9700012207031
309.1761108,46.2200012207031
309.1917358,53.4900016784668
309.2073608,56.7999992370605
309.2229858,56.9500007629395
309.2386108,55.0499992370605
309.2542358,51.9300003051758
309.2698608,47.7400016784668
309.2854858,42.1399993896484
309.3011108,34.7999992370605
309.3167358,25.9500007629395
309.3323608,16.5300006866455
309.3479858,7.71000003814697
309.3636108,0.479999989271164
309.3792358,-4.44999980926514
309.3948608,-6.65999984741211
309.4104858,-6.48999977111816
309.4261108,-5.28000020980835
309.4417358,-4.67999982833862
309.4573608,-5.73999977111816
309.4729858,-8.5
309.4886108,-12.3100004196167
309.5042358,-16.25
309.5198608,-19.3799991607666
309.5354858,-21.0300006866455
309.5511108,-21.1700000762939
309.5667358,-20.5200004577637
309.5823608,-20.2000007629395
309.5979858,-20.8799991607666
309.6136108,-22.3199996948242
309.6292358,-23.6499996185303
309.6448608,-24.1000003814697
309.6604858,-23.1700000762939
309.6761108,-20.4599990844727
309.6917358,-15.4899997711182
309.7073608,-7.76999998092651
309.7229858,2.90000009536743
309.7386108,16.0200004577637
309.7542358,29.9799995422363
309.7698608,42.4799995422363
309.7854858,51.3800010681152
309.8011108,55.7999992370605
309.8167358,56.3699989318848
309.8323608,54.7299995422363
309.8479858,52.5800018310547
309.8636108,50.8600006103516
309.8792358,49.2200012207031
309.8948608,46.3199996948242
309.9104858,40.7400016784668
309.9261108,31.9599990844727
309.9417358,20.7900009155273
309.9573608,9.09000015258789
309.9729858,-1.11000001430511
309.9886108,-8.28999996185303
310.0042358,-11.8400001525879
310.0198608,-12.3100004196167
310.0354858,-11.3699998855591
310.0511108,-11.1800003051758
310.0667358,-13.3000001907349
310.0823608,-17.8999996185303
310.0979858,-23.9400005340576
310.1136108,-29.9899997711182
310.1292358,-35.0200004577637
310.1448608,-38.6500015258789
310.1604858,-40.8600006103516
310.1761108,-41.6199989318848
310.1917358,-40.9799995422363
310.2073608,-39.1800003051758
310.2229858,-36.7099990844727
310.2386108,-34.1399993896484
310.2542358,-31.9500007629395
310.2698608,-30.1700000762939
310.2854858,-28.0699996948242
310.3011108,-24.3600006103516
310.3167358,-17.7399997711182
310.3323608,-7.61999988555908
310.3479858,5.3600001335144
310.3636108,19.4799995422363
310.3792358,32.7400016784668
310.3948608,43.7099990844727
310.4104858,51.6500015258789
310.4261108,56.3199996948242
310.4417358,57.8800010681152
310.4573608,56.9199981689453
310.4729858,54.1699981689453
310.4886108,50.1599998474121
310.5042358,45.2299995422363
310.5198608,39.560001373291
310.5354858,33.0099983215332
310.5511108,25.1299991607666
310.5667358,15.7399997711182
310.5823608,5.48999977111816
310.5979858,-4.19000005722046
310.6136108,-11.9899997711182
310.6292358,-17.4599990844727
310.6448608,-21.1299991607666
310.6604858,-24.0100002288818
310.6761108,-27.0300006866455
310.6917358,-30.7399997711182
310.7073608,-35.1199989318848
310.7229858,-39.6500015258789
310.7386108,-43.5299987792969
310.7542358,-46.1100006103516
310.7698608,-47.1300010681152
310.7854858,-46.6599998474121
310.8011108,-45.0099983215332
310.8167358,-42.7000007629395
310.8323608,-40.4500007629395
310.8479858,-38.9900016784668
310.8636108,-38.5099983215332
310.8792358,-38.3600006103516
310.8948608,-37.3699989318848
310.9104858,-34.5299987792969
310.9261108,-29.3400001525879
310.9417358,-21.5900001525879
310.9573608,-11.210000038147
310.9729858,1.37999999523163
310.9886108,15.039999961853
311.0042358,28.0699996948242
311.0198608,38.9099998474121
311.0354858,46.689998626709
311.0511108,51.4300003051758
311.0667358,53.7099990844727
311.0823608,54.2299995422363
311.0979858,53.5999984741211
311.1136108,52.2299995422363
311.1292358,49.8899993896484
311.1448608,45.7400016784668
311.1604858,38.7900009155273
311.1761108,28.9799995422363
311.1917358,17.5799999237061
311.2073608,6.55999994277954
311.2229858,-2.40000009536743
311.2386108,-8.67000007629395
311.2542358,-12.6999998092651
311.2698608,-15.6099996566772
311.2854858,-18.5100002288818
311.3011108,-21.9699993133545
311.3167358,-25.7800006866455
311.3323608,-29.3799991607666
311.3479858,-32.3199996948242
311.3636108,-34.3600006103516
311.3792358,-35.4799995422363
311.3948608,-35.8899993896484
311.4104858,-35.8800010681152
311.4261108,-35.5900001525879
311.4417358,-35.1300010681152
311.4573608,-34.6599998474121
311.4729858,-34.3499984741211
311.4886108,-34.1100006103516
311.5042358,-33.5800018310547
311.5198608,-32.2299995422363
311.5354858,-29.6200008392334
311.5511108,-25.1800003051758
311.5667358,-17.8600006103516
311.5823608,-6.59000015258789
311.5979858,8.47000026702881
311.6136108,25.2700004577637
311.6292358,40.4900016784668
311.6448608,51.2299995422363
311.6604858,56.4700012207031
311.6761108,57.1800003051758
311.6917358,55.2900009155273
311.7073608,52.4300003051758
311.7229858,49.5099983215332
311.7386108,46.7299995422363
311.7542358,43.75
311.7698608,39.9099998474121
311.7854858,34.5299987792969
311.8011108,27.4500007629395
311.8167358,19.2299995422363
311.8323608,10.75
311.8479858,2.5699999332428
311.8636108,-5.01999998092651
311.8792358,-11.5900001525879
311.8948608,-16.6599998474121
311.9104858,-20.1499996185303
311.9261108,-22.4500007629395
311.9417358,-24.0599994659424
311.9573608,-25.3099994659424
311.9729858,-26.4699993133545
311.9886108,-27.8299999237061
312.0042358,-29.6800003051758
312.0198608,-32.0800018310547
312.0354858,-34.7000007629395
312.0511108,-36.9300003051758
312.0667358,-38.1500015258789
312.0823608,-38.0
312.0979858,-36.4799995422363
312.1136108,-33.8600006103516
312.1292358,-30.5900001525879
312.1448608,-27.0900001525879
312.1604858,-23.4300003051758
312.1761108,-19.0900001525879
312.1917358,-13.0100002288818
312.2073608,-4.07000017166138
312.2229858,8.05000019073486
312.2386108,22.4899997711182
312.2542358,37.3199996948242
312.2698608,50.4099998474121
312.2854858,60.2700004577637
312.3011108,66.3899993896484
312.3167358,68.9300003051758
312.3323608,68.379997253418
312.3479858,65.379997253418
312.3636108,60.7599983215332
312.3792358,55.3199996948242
312.3948608,49.25
312.4104858,42.060001373291
312.4261108,33.2599983215332
312.4417358,23.3099994659424
312.4573608,13.539999961853
312.4729858,5.21000003814697
312.4886108,-1.26999998092651
312.5042358,-6.15000009536743
312.5198608,-9.72000026702881
312.5354858,-12.4099998474121
312.5511108,-15.0299997329712
312.5667358,-18.4300003051758
312.5823608,-22.7299995422363
312.5979858,-27.1499996185303
312.6136108,-30.7199993133545
312.6292358,-33.060001373291
312.6448608,-34.2900009155273
312.6604858,-34.5
312.6761108,-33.7000007629395
312.6917358,-32.1100006103516
312.7073608,-30.3400001525879
312.7229858,-29.1700000762939
312.7386108,-28.9300003051758
312.7542358,-29.3099994659424
312.7698608,-29.7000007629395
312.7854858,-29.4699993133545
312.8011108,-27.9699993133545
312.8167358,-24.4500007629395
312.8323608,-17.9899997711182
312.8479858,-7.86999988555908
312.8636108,5.88000011444092
312.8792358,22.0300006866455
312.8948608,38.1100006103516
312.9104858,51.25
312.9261108,59.5499992370605
312.9417358,62.6599998474121
312.9573608,61.5299987792969
312.9729858,57.7299995422363
312.9886108,52.8300018310547
313.0042358,47.9599990844727
313.0198608,43.5200004577637
313.0354858,38.9700012207031
313.0511108,33.1800003051758
313.0667358,25.2199993133545
313.0823608,15.4399995803833
313.0979858,5.42999982833862
313.1136108,-2.99000000953674
313.1292358,-9.03999996185303
313.1448608,-13.0100002288818
313.1604858,-15.6000003814697
313.1761108,-17.1700000762939
313.1917358,-17.8799991607666
313.2073608,-18.0699996948242
313.2229858,-18.4400005340576
313.2386108,-19.7099990844727
313.2542358,-22.1200008392334
313.2698608,-25.3700008392334
313.2854858,-28.8199996948242
313.3011108,-31.7299995422363
313.3167358,-33.5499992370605
313.3323608,-34.1800003051758
313.3479858,-33.9500007629395
313.3636108,-33.310001373291
313.3792358,-32.4500007629395
313.3948608,-31.3299999237061
313.4104858,-29.7999992370605
313.4261108,-27.7800006866455
313.4417358,-25.1299991607666
313.4573608,-21.3199996948242
313.4729858,-15.3800001144409
313.4886108,-6.3600001335144
313.5042358,5.65999984741211
313.5198608,19.2399997711182
313.5354858,32.1100006103516
313.5511108,42.2700004577637
313.5667358,48.5900001525879
313.5823608,51.0900001525879
313.5979858,50.5999984741211
313.6136108,48.2599983215332
313.6292358,44.8300018310547
313.6448608,40.5299987792969
313.6604858,35.2599983215332
313.6761108,28.8700008392334
313.6917358,21.2099990844727
313.7073608,12.210000038147
313.7229858,2.28999996185303
313.7386108,-7.40999984741211
313.7542358,-15.5
313.7698608,-21.1299991607666
313.7854858,-24.2600002288818
313.8011108,-25.2800006866455
313.8167358,-24.7800006866455
313.8323608,-23.5599994659424
313.8479858,-22.6200008392334
313.8636108,-22.7199993133545
313.8792358,-23.8500003814697
313.8948608,-25.3199996948242
313.9104858,-26.3899993896484
313.9261108,-26.6200008392334
313.9417358,-25.8700008392334
313.9573608,-24.1800003051758
313.9729858,-21.7800006866455
313.9886108,-19.1499996185303
314.0042358,-16.7900009155273
314.0198608,-15.0299997329712
314.0354858,-14.0
314.0511108,-13.6899995803833
314.0667358,-13.8299999237061
314.0823608,-13.6800003051758
314.0979858,-12.0200004577637
314.1136108,-7.51000022888184
314.1292358,0.610000014305115
314.1448608,11.9099998474121
314.1604858,24.8299999237061
314.1761108,37.060001373291
314.1917358,46.1500015258789
314.2073608,50.5200004577637
314.2229858,50.5400009155273
314.2386108,48.2400016784668
314.2542358,45.6599998474121
314.2698608,43.5400009155273
314.2854858,41.2799987792969
314.3011108,37.7799987792969
314.3167358,32.3600006103516
314.3323608,25.0799999237061
314.3479858,16.5100002288818
314.3636108,7.51999998092651
314.3792358,-0.720000028610229
314.3948608,-7.07999992370605
314.4104858,-11.0500001907349
314.4261108,-13.039999961853
314.4417358,-14.1800003051758
314.4573608,-15.6199998855591
314.4729858,-17.9400005340576
314.4886108,-20.9500007629395
314.5042358,-23.7900009155273
314.5198608,-25.3799991607666
314.5354858,-25.0300006866455
314.5511108,-23.0799999237061
314.5667358,-20.6800003051758
314.5823608,-18.9599990844727
314.5979858,-18.3400001525879
314.6136108,-18.5900001525879
314.6292358,-19.25
314.6448608,-20.0300006866455
314.6604858,-20.7800006866455
314.6761108,-21.3500003814697
314.6917358,-21.5900001525879
314.7073608,-21.4799995422363
314.7229858,-20.8899993896484
314.7386108,-18.9300003051758
314.7542358,-14.0299997329712
314.7698608,-5.1399998664856
314.7854858,7.05000019073486
314.8011108,20.2900009155273
314.8167358,31.9400005340576
314.8323608,40.1199989318848
314.8479858,44.3199996948242
314.8636108,45.4300003051758
314.8792358,44.9700012207031
314.8948608,43.8899993896484
314.9104858,42.1399993896484
314.9261108,39.310001373291
314.9417358,35.1199989318848
314.9573608,29.3600006103516
314.9729858,21.7900009155273
314.9886108,12.6199998855591
315.0042358,2.88000011444092
315.0198608,-5.82999992370605
315.0354858,-12.1899995803833
315.0511108,-15.8900003433228
315.0667358,-17.9300003051758
315.0823608,-19.8299999237061
315.0979858,-22.5100002288818
315.1136108,-25.8099994659424
315.1292358,-28.9599990844727
315.1448608,-31.1499996185303
315.1604858,-31.9699993133545
315.1761108,-31.5799999237061
315.1917358,-30.7399997711182
315.2073608,-30.3799991607666
315.2229858,-30.9099998474121
315.2386108,-31.8600006103516
315.2542358,-32.3300018310547
315.2698608,-31.7800006866455
315.2854858,-30.3500003814697
315.3011108,-28.5100002288818
315.3167358,-26.7199993133545
315.3323608,-25.3199996948242
315.3479858,-24.4200000762939
315.3636108,-23.5900001525879
315.3792358,-21.7800006866455
315.3948608,-17.5400009155273
315.4104858,-9.72000026702881
315.4261108,1.6599999666214
315.4417358,15.0100002288818
315.4573608,27.75
315.4729858,37.5800018310547
315.4886108,43.4700012207031
315.5042358,45.7900009155273
315.5198608,45.8300018310547
315.5354858,44.9199981689453
315.5511108,43.5999984741211
315.5667358,41.6399993896484
315.5823608,38.5
315.5979858,33.6800003051758
315.6136108,26.7299995422363
315.6292358,17.7199993133545
315.6448608,7.78999996185303
315.6604858,-1.23000001907349
315.6761108,-7.94999980926514
315.6917358,-12.3000001907349
315.7073608,-15.2600002288818
315.7229858,-17.7399997711182
315.7386108,-19.9400005340576
315.7542358,-21.6900005340576
315.7698608,-23.0900001525879
315.7854858,-24.6599998474121
315.8011108,-26.8199996948242
315.8167358,-29.2800006866455
315.8323608,-31.3500003814697
315.8479858,-32.6199989318848
315.8636108,-33.2400016784668
315.8792358,-33.5499992370605
315.8948608,-33.6800003051758
315.9104858,-33.5499992370605
315.9261108,-33.0699996948242
315.9417358,-32.1599998474121
315.9573608,-30.6399993896484
315.9729858,-28.3199996948242
315.9886108,-25.25
316.0042358,-21.6399993896484
316.0198608,-17.2600002288818
316.0354858,-11.1400003433228
316.0511108,-2.02999997138977
316.0667358,10.3999996185303
316.0823608,24.75
316.0979858,38.4099998474121
316.1136108,48.9000015258789
316.1292358,55.0200004577637
316.1448608,57.1100006103516
316.1604858,56.5400009155273
316.1761108,54.6599998474121
316.1917358,52.0200004577637
316.2073608,48.189998626709
316.2229858,42.3400001525879
316.2386108,33.8699989318848
316.2542358,22.9300003051758
316.2698608,10.6700000762939
316.2854858,-0.920000016689301
316.3011108,-9.84000015258789
316.3167358,-15.1300001144409
316.3323608,-17.25
316.3479858,-17.5200004577637
316.3636108,-17.2299995422363
316.3792358,-17.0400009155273
316.3948608,-17.1700000762939
316.4104858,-17.8799991607666
316.4261108,-19.5
316.4417358,-21.9899997711182
316.4573608,-24.6499996185303
316.4729858,-26.4500007629395
316.4886108,-26.7900009155273
316.5042358,-25.6499996185303
316.5198608,-23.3700008392334
316.5354858,-20.5100002288818
316.5511108,-17.8999996185303
316.5667358,-16.2800006866455
316.5823608,-15.8100004196167
316.5979858,-15.9700002670288
316.6136108,-16.0200004577637
316.6292358,-15.3400001525879
316.6448608,-13.4499998092651
316.6604858,-9.72000026702881
316.6761108,-3.35999989509583
316.6917358,6.15999984741211
316.7073608,18.2099990844727
316.7229858,30.7000007629395
316.7386108,41.0499992370605
316.7542358,47.4300003051758
316.7698608,49.6399993896484
316.7854858,49.0
316.8011108,47.3800010681152
316.8167358,45.9799995422363
316.8323608,44.7200012207031
316.8479858,42.75
316.8636108,39.2200012207031
316.8792358,33.5800018310547
316.8948608,25.7900009155273
316.9104858,16.3899993896484
316.9261108,6.59000015258789
316.9417358,-2.07999992370605
316.9573608,-8.61999988555908
316.9729858,-13.0200004577637
316.9886108,-16.0699996948242
317.0042358,-18.6499996185303
317.0198608,-21.2199993133545
317.0354858,-23.8400001525879
317.0511108,-26.2099990844727
317.0667358,-27.7999992370605
317.0823608,-28.2700004577637
317.0979858,-27.8799991607666
317.1136108,-27.25
317.1292358,-26.8600006103516
317.1448608,-26.7399997711182
317.1604858,-26.6200008392334
317.1761108,-26.2000007629395
317.1917358,-25.5499992370605
317.2073608,-25.2000007629395
317.2229858,-25.5699996948242
317.2386108,-26.5699996948242
317.2542358,-27.6100006103516
317.2698608,-27.8999996185303
317.2854858,-26.3600006103516
317.3011108,-21.3899993896484
317.3167358,-11.6599998474121
317.3323608,2.51999998092651
317.3479858,18.7900009155273
317.3636108,33.7700004577637
317.3792358,44.8600006103516
317.3948608,51.2000007629395
317.4104858,53.6599998474121
317.4261108,53.9900016784668
317.4417358,53.7400016784668
317.4573608,53.5499992370605
317.4729858,53.060001373291
317.4886108,51.1500015258789
317.5042358,46.5900001525879
317.5198608,38.7400016784668
317.5354858,28.0400009155273
317.5511108,15.8800001144409
317.5667358,4.03999996185303
317.5823608,-5.82000017166138
317.5979858,-12.7399997711182
317.6136108,-16.6000003814697
317.6292358,-17.9699993133545
317.6448608,-17.9500007629395
317.6604858,-17.7099990844727
317.6761108,-18.0900001525879
317.6917358,-19.3600006103516
317.7073608,-21.3600006103516
317.7229858,-23.5900001525879
317.7386108,-25.6000003814697
317.7542358,-27.3199996948242
317.7698608,-28.9599990844727
317.7854858,-30.5699996948242
317.8011108,-31.8500003814697
317.8167358,-32.4799995422363
317.8323608,-32.5400009155273
317.8479858,-32.3499984741211
317.8636108,-32.2400016784668
317.8792358,-32.310001373291
317.8948608,-32.310001373291
317.9104858,-31.3999996185303
317.9261108,-27.9899997711182
317.9417358,-20.3799991607666
317.9573608,-8.02999973297119
317.9729858,7.67000007629395
317.9886108,24.0400009155273
318.0042358,38.1800003051758
318.0198608,48.1699981689453
318.0354858,53.5900001525879
318.0511108,55.2700004577637
318.0667358,54.4300003051758
318.0823608,52.1300010681152
318.0979858,49.0800018310547
318.1136108,45.3600006103516
318.1292358,40.2999992370605
318.1448608,32.9900016784668
318.1604858,23.2099990844727
318.1761108,11.789999961853
318.1917358,0.280000001192093
318.2073608,-9.65999984741211
318.2229858,-16.8999996185303
318.2386108,-21.0499992370605
318.2542358,-22.5
318.2698608,-22.2299995422363
318.2854858,-21.3999996185303
318.3011108,-20.9200000762939
318.3167358,-21.2199993133545
318.3323608,-22.2199993133545
318.3479858,-23.5
318.3636108,-24.5799999237061
318.3792358,-25.25
318.3948608,-25.6900005340576
318.4104858,-26.25
318.4261108,-26.7999992370605
318.4417358,-26.7199993133545
318.4573608,-25.3999996185303
318.4729858,-22.8099994659424
318.4886108,-19.5699996948242
318.5042358,-16.4099998474121
318.5198608,-13.4300003051758
318.5354858,-9.72000026702881
318.5511108,-3.86999988555908
318.5667358,5.09000015258789
318.5823608,16.8700008392334
318.5979858,29.9099998474121
318.6136108,42.1500015258789
318.6292358,51.8400001525879
318.6448608,58.1500015258789
318.6604858,61.189998626709
318.6761108,61.5900001525879
318.6917358,59.8899993896484
318.7073608,56.3600006103516
318.7229858,51.1300010681152
