Time(s),Value(%)
0.022358,5.46999979019165
0.037983,8.39999961853027
0.053608,11.1899995803833
0.069233,13.5799999237061
0.084858,15.5699996948242
0.100483,17.3999996185303
0.116108,19.2600002288818
0.131733,21.1200008392334
0.147358,22.9099998474121
0.162983,24.7999992370605
0.178608,27.1200008392334
0.194233,30.1700000762939
0.209858,33.8499984741211
0.225483,37.5900001525879
0.241108,40.6399993896484
0.256733,42.560001373291
0.272358,43.310001373291
0.287983,43.2099990844727
0.303608,42.5299987792969
0.319233,41.3899993896484
0.334858,39.7099990844727
0.350483,37.4900016784668
0.366108,34.8300018310547
0.381733,31.9500007629395
0.397358,29.1399993896484
0.412983,26.7299995422363
0.428608,24.9099998474121
0.444233,23.6900005340576
0.459858,23.0
0.475483,22.8099994659424
0.491108,23.1299991607666
0.506733,23.8299999237061
0.522358,24.5
0.537983,24.4599990844727
0.553608,23.2999992370605
0.569233,21.2299995422363
0.584858,18.8899993896484
0.600483,16.7000007629395
0.616108,14.6400003433228
0.631733,12.4899997711182
0.647358,10.0600004196167
0.662983,7.34000015258789
0.678608,4.67000007629395
0.694233,2.60999989509583
0.709858,1.63999998569489
0.725483,1.87999999523163
0.741108,3.16000008583069
0.756733,5.30000019073486
0.772358,8.14000034332275
0.787983,11.4200000762939
0.803608,14.3900003433228
0.819233,15.960000038147
0.834858,15.2799997329712
0.850483,12.4099998474121
0.866108,8.10000038146973
0.881733,3.13000011444092
0.897358,-2.08999991416931
0.912983,-7.48000001907349
0.928608,-12.9799995422363
0.944233,-18.5
0.959858,-23.8199996948242
0.975483,-28.6800003051758
0.991108,-32.8400001525879
1.006733,-36.2700004577637
1.022358,-39.0
1.037983,-41.0400009155273
1.053608,-42.3800010681152
1.069233,-43.1300010681152
1.084858,-43.7400016784668
1.100483,-44.8800010681152
1.116108,-46.9799995422363
1.131733,-49.8499984741211
1.147358,-52.9199981689453
1.162983,-55.7700004577637
1.178608,-58.3800010681152
1.194233,-60.939998626709
1.209858,-63.6199989318848
1.225483,-66.3899993896484
1.241108,-68.9499969482422
1.256733,-70.75
1.272358,-71.3300018310547
1.287983,-70.5699996948242
1.303608,-68.6699981689453
1.319233,-65.8199996948242
1.334858,-62.189998626709
1.350483,-58.060001373291
1.366108,-54.1300010681152
1.381733,-51.4500007629395
1.397358,-50.7900009155273
1.412983,-52.0099983215332
1.428608,-54.310001373291
1.444233,-56.9300003051758
1.459858,-59.4099998474121
1.475483,-61.439998626709
1.491108,-62.7700004577637
1.506733,-63.3800010681152
1.522358,-63.6100006103516
1.537983,-64.0599975585938
1.553608,-65.1800003051758
1.569233,-66.9599990844727
1.584858,-69.0500030517578
1.600483,-71.2600021362305
1.616108,-73.629997253418
1.631733,-76.2600021362305
1.647358,-79.1399993896484
1.662983,-82.0899963378906
1.678608,-84.8000030517578
1.694233,-86.9300003051758
1.709858,-88.25
1.725483,-88.7200012207031
1.741108,-88.3000030517578
1.756733,-86.8000030517578
1.772358,-83.9800033569336
1.787983,-79.9499969482422
1.803608,-75.3600006103516
1.819233,-71.1600036621094
1.834858,-68.0299987792969
1.850483,-65.9300003051758
1.866108,-64.3899993896484
1.881733,-63.1800003051758
1.897358,-62.4700012207031
1.912983,-62.4700012207031
1.928608,-63.1500015258789
1.944233,-64.2399978637695
1.959858,-65.3099975585938
1.975483,-66.0199966430664
1.991108,-66.1399993896484
2.006733,-65.6900024414063
2.022358,-64.7399978637695
2.037983,-63.2799987792969
2.053608,-61.2700004577637
2.069233,-58.810001373291
2.084858,-56.2900009155273
2.100483,-54.4099998474121
2.116108,-53.7000007629395
2.131733,-54.1599998474121
2.147358,-55.310001373291
2.162983,-56.7000007629395
2.178608,-58.0800018310547
2.194233,-59.4099998474121
2.209858,-60.689998626709
2.225483,-61.8600006103516
2.241108,-62.6599998474121
2.256733,-62.6500015258789
2.272358,-61.439998626709
2.287983,-58.9300003051758
2.303608,-55.2000007629395
2.319233,-50.25
2.334858,-44.0200004577637
2.350483,-36.7700004577637
2.366108,-29.25
2.381733,-22.5699996948242
2.397358,-17.5699996948242
2.412983,-14.289999961853
2.428608,-12.25
2.444233,-11.0699996948242
2.459858,-10.7299995422363
2.475483,-11.2200002670288
2.491108,-12.3999996185303
2.506733,-13.9399995803833
2.522358,-15.6800003051758
2.537983,-17.7399997711182
2.553608,-20.3799991607666
2.569233,-23.7199993133545
2.584858,-27.6200008392334
2.600483,-31.9099998474121
2.616108,-36.3800010681152
2.631733,-40.8400001525879
2.647358,-45.060001373291
2.662983,-48.8499984741211
2.678608,-52.3800010681152
2.694233,-56.2200012207031
2.709858,-60.939998626709
2.725483,-66.5800018310547
2.741108,-72.5400009155273
2.756733,-78.0699996948242
2.772358,-82.6500015258789
2.787983,-86.1699981689453
2.803608,-88.8399963378906
2.819233,-90.9700012207031
2.834858,-92.8300018310547
2.850483,-94.5500030517578
2.866108,-96.2600021362305
2.881733,-98.1600036621094
2.897358,-100.449996948242
2.912983,-103.050003051758
2.928608,-105.379997253418
2.944233,-106.449996948242
2.959858,-105.569999694824
2.975483,-102.910003662109
2.991108,-99.25
3.006733,-95.2699966430664
3.022358,-91.1999969482422
3.037983,-86.9300003051758
3.053608,-82.3300018310547
3.069233,-77.3300018310547
3.084858,-71.7699966430664
3.100483,-65.2799987792969
3.116108,-57.5200004577637
3.131733,-48.4599990844727
3.147358,-38.3699989318848
3.162983,-27.5400009155273
3.178608,-16.2199993133545
3.194233,-4.6399998664856
3.209858,6.82000017166138
3.225483,17.8099994659424
3.241108,28.1399993896484
3.256733,37.9300003051758
3.272358,47.3600006103516
3.287983,56.3499984741211
3.303608,64.5599975585938
3.319233,71.7600021362305
3.334858,77.9599990844727
3.350483,83.4899978637695
3.366108,88.9599990844727
3.381733,95.2300033569336
3.397358,102.959999084473
3.412983,112.269996643066
3.428608,122.980003356934
3.444233,135.110000610352
3.459858,148.729995727539
3.475483,163.509994506836
3.491108,178.270004272461
3.506733,190.869995117188
3.522358,200.490005493164
3.537983,207.210006713867
3.553608,211.880004882813
3.569233,215.059997558594
3.584858,216.679992675781
3.600483,216.570007324219
3.616108,214.919998168945
3.631733,212.259994506836
3.647358,209.300003051758
3.662983,206.610000610352
3.678608,204.529998779297
3.694233,203.029998779297
3.709858,202.009994506836
3.725483,201.449996948242
3.741108,201.440002441406
3.756733,201.839996337891
3.772358,202.059997558594
3.787983,201.100006103516
3.803608,198.190002441406
3.819233,193.419998168945
3.834858,187.539993286133
3.850483,181.279998779297
3.866108,175.199996948242
3.881733,169.779998779297
3.897358,165.399993896484
3.912983,162.089996337891
3.928608,159.389999389648
3.944233,156.550003051758
3.959858,153.240005493164
3.975483,149.919998168945
3.991108,147.330001831055
4.006733,145.600006103516
4.022358,144.119995117188
4.037983,142.100006103516
4.053608,139.100006103516
4.069233,135.229995727539
4.084858,130.940002441406
4.100483,126.870002746582
4.116108,123.470001220703
4.131733,120.860000610352
4.147358,119.029998779297
4.162983,118.059997558594
4.178608,118.099998474121
4.194233,118.930000305176
4.209858,119.650001525879
4.225483,118.809997558594
4.241108,115.269996643066
4.256733,109.069999694824
4.272358,101.180000305176
4.287983,92.5699996948242
4.303608,83.7099990844727
4.319233,74.6999969482422
4.334858,65.5699996948242
4.350483,56.4099998474121
4.366108,47.3400001525879
4.381733,38.4700012207031
4.397358,29.8500003814697
4.412983,21.5200004577637
4.428608,13.7200002670288
4.444233,6.88000011444092
4.459858,1.42999994754791
4.475483,-2.63000011444092
4.491108,-5.82999992370605
4.506733,-8.9399995803833
4.522358,-12.4300003051758
4.537983,-15.9399995803833
4.553608,-18.8099994659424
4.569233,-20.8799991607666
4.584858,-22.6100006103516
4.600483,-24.6100006103516
4.616108,-27.2199993133545
4.631733,-30.3999996185303
4.647358,-33.8400001525879
4.662983,-37.25
4.678608,-40.439998626709
4.694233,-43.3400001525879
4.709858,-45.8699989318848
4.725483,-47.8699989318848
4.741108,-49.1599998474121
4.756733,-49.7900009155273
4.772358,-50.2999992370605
4.787983,-51.560001373291
4.803608,-54.2900009155273
4.819233,-58.5
4.834858,-63.6300010681152
4.850483,-69.0500030517578
4.866108,-74.4000015258789
4.881733,-79.5699996948242
4.897358,-84.5500030517578
4.912983,-89.3000030517578
4.928608,-93.7699966430664
4.944233,-97.8300018310547
4.959858,-101.389999389648
4.975483,-104.389999389648
4.991108,-106.620002746582
5.006733,-107.650001525879
5.022358,-107.089996337891
5.037983,-104.970001220703
5.053608,-101.879997253418
5.069233,-98.7399978637695
5.084858,-96.0800018310547
5.100483,-93.8000030517578
5.116108,-91.4899978637695
5.131733,-89.1699981689453
5.147358,-87.3099975585938
5.162983,-86.3199996948242
5.178608,-86.2799987792969
5.194233,-86.9100036621094
5.209858,-87.9800033569336
5.225483,-89.5999984741211
5.241108,-92.0100021362305
5.256733,-95.3000030517578
5.272358,-99.379997253418
5.287983,-104.059997558594
5.303608,-109.199996948242
5.319233,-114.569999694824
5.334858,-119.919998168945
5.350483,-125.029998779297
5.366108,-129.949996948242
5.381733,-134.970001220703
5.397358,-140.279998779297
5.412983,-145.639999389648
5.428608,-150.479995727539
5.444233,-154.309997558594
5.459858,-156.979995727539
5.475483,-158.649993896484
5.491108,-159.539993286133
5.506733,-158.179992675781
5.522358,-156.149993896484
5.537983,-153.429992675781
5.553608,-150.0
5.569233,-145.789993286133
5.584858,-140.729995727539
5.600483,-134.929992675781
5.616108,-128.619995117188
5.631733,-121.959999084473
5.647358,-114.959999084473
5.662983,-107.430000305176
5.678608,-99.370002746582
5.694233,-91.120002746582
5.709858,-83.3000030517578
5.725483,-76.3300018310547
5.741108,-70.3000030517578
5.756733,-64.9800033569336
5.772358,-60.0
5.787983,-55.0900001525879
5.803608,-50.0999984741211
5.819233,-45.0400009155273
5.834858,-39.9199981689453
5.850483,-34.6800003051758
5.866108,-29.2000007629395
5.881733,-23.5300006866455
5.897358,-17.9300003051758
5.912983,-12.9200000762939
5.928608,-8.88000011444092
5.944233,-5.84999990463257
5.959858,-3.53999996185303
5.975483,-1.66999995708466
5.991108,-0.0700000002980232
6.006733,1.30999994277954
6.022358,2.52999997138977
6.037983,3.6800000667572
6.053608,4.90000009536743
6.069233,6.40000009536743
6.084858,8.32999992370605
6.100483,10.7700004577637
6.116108,13.8699998855591
6.131733,17.9699993133545
6.147358,23.4400005340576
6.162983,30.2099990844727
6.178608,37.6399993896484
6.194233,44.8300018310547
6.209858,51.1599998474121
6.225483,56.7299995422363
6.241108,61.8400001525879
6.256733,66.4800033569336
6.272358,70.2799987792969
6.287983,73.0199966430664
6.303608,74.8899993896484
6.319233,76.25
6.334858,77.2699966430664
6.350483,77.6999969482422
6.366108,77.1699981689453
6.381733,75.5899963378906
6.397358,73.2200012207031
6.412983,70.4199981689453
6.428608,67.4700012207031
6.444233,64.5
6.459858,61.5999984741211
6.475483,58.7799987792969
6.491108,55.9099998474121
6.506733,52.310001373291
6.522358,48.2599983215332
6.537983,43.7599983215332
6.553608,39.1300010681152
6.569233,34.9300003051758
6.584858,31.6200008392334
6.600483,29.3600006103516
6.616108,28.0200004577637
6.631733,27.4099998474121
6.647358,27.5
6.662983,28.4400005340576
6.678608,30.2700004577637
6.694233,32.6500015258789
6.709858,35.0099983215332
6.725483,36.8699989318848
6.741108,38.060001373291
6.756733,38.6800003051758
6.772358,38.8600006103516
6.787983,38.5999984741211
6.803608,37.7799987792969
6.819233,36.4199981689453
6.834858,34.7400016784668
6.850483,33.1800003051758
6.866108,32.1199989318848
6.881733,31.7000007629395
6.897358,31.7399997711182
6.912983,31.9300003051758
6.928608,32.1300010681152
6.944233,32.5499992370605
6.959858,33.5299987792969
6.975483,35.0999984741211
6.991108,36.9099998474121
7.006733,38.560001373291
7.022358,39.7700004577637
7.037983,40.439998626709
7.053608,40.4000015258789
7.069233,39.2200012207031
7.084858,36.4700012207031
7.100483,32.1199989318848
7.116108,26.5599994659424
7.131733,20.3299999237061
7.147358,13.8599996566772
7.162983,7.48999977111816
7.178608,1.52999997138977
7.194233,-3.6800000667572
7.209858,-7.88000011444092
7.225483,-10.9700002670288
7.241108,-12.9899997711182
7.256733,-14.0600004196167
7.272358,-14.3000001907349
7.287983,-13.9300003051758
7.303608,-13.1899995803833
7.319233,-12.2600002288818
7.334858,-10.9700002670288
7.350483,-8.68000030517578
7.366108,-4.75
7.381733,0.949999988079071
7.397358,7.90999984741211
7.412983,15.289999961853
7.428608,22.3700008392334
7.444233,28.6800003051758
7.459858,33.7700004577637
7.475483,37.0099983215332
7.491108,37.8199996948242
7.506733,36.1599998474121
7.522358,32.4000015258789
7.537983,27.4400005340576
7.553608,22.1900005340576
7.569233,17.2700004577637
7.584858,12.9300003051758
7.600483,9.10999965667725
7.616108,5.51000022888184
7.631733,1.72000002861023
7.647358,-2.52999997138977
7.662983,-7.32999992370605
7.678608,-12.5299997329712
7.694233,-18.0
7.709858,-23.6700000762939
7.725483,-29.3999996185303
7.741108,-34.7999992370605
7.756733,-39.2700004577637
7.772358,-42.3699989318848
7.787983,-44.1399993896484
7.803608,-45.0200004577637
7.819233,-45.3800010681152
7.834858,-45.4000015258789
7.850483,-45.0999984741211
7.866108,-44.5
7.881733,-43.6500015258789
7.897358,-42.6399993896484
7.912983,-41.5499992370605
7.928608,-40.4099998474121
7.944233,-39.2099990844727
7.959858,-37.8899993896484
7.975483,-36.3400001525879
7.991108,-34.4500007629395
8.006733,-32.189998626709
8.022358,-29.6000003814697
8.037983,-26.6800003051758
8.053608,-23.3600006103516
8.069233,-19.6399993896484
8.084858,-15.6300001144409
8.100483,-11.6300001144409
8.116108,-7.94999980926514
8.131733,-4.78000020980835
8.147358,-2.08999991416931
8.162983,0.189999997615814
8.178608,2.04999995231628
8.194233,3.14000010490417
8.209858,3.0699999332428
8.225483,1.79999995231628
8.241108,-0.340000003576279
8.256733,-2.8199999332428
8.272358,-5.13000011444092
8.287983,-6.98000001907349
8.303608,-8.13000011444092
8.319233,-8.30000019073486
8.334858,-7.26000022888184
8.350483,-5.07000017166138
8.366108,-2.01999998092651
8.381733,1.49000000953674
8.397358,5.21000003814697
8.412983,8.93000030517578
8.428608,12.5100002288818
8.444233,15.8699998855591
8.459858,19.0699996948242
8.475483,22.3099994659424
8.491108,25.7999992370605
8.506733,29.7199993133545
8.522358,33.7000007629395
8.537983,37.6399993896484
8.553608,41.5699996948242
8.569233,45.5
8.584858,49.310001373291
8.600483,52.6399993896484
8.616108,55.1599998474121
8.631733,56.7799987792969
8.647358,57.5999984741211
8.662983,57.7799987792969
8.678608,57.3800010681152
8.694233,56.4500007629395
8.709858,55.0999984741211
8.725483,53.4799995422363
8.741108,51.7200012207031
8.756733,49.9000015258789
8.772358,48.0
8.787983,45.9700012207031
8.803608,43.810001373291
8.819233,41.5699996948242
8.834858,39.3800010681152
8.850483,37.3300018310547
8.866108,35.4599990844727
8.881733,33.7299995422363
8.897358,32.0900001525879
8.912983,30.5200004577637
8.928608,29.0100002288818
8.944233,27.5900001525879
8.959858,26.3199996948242
8.975483,25.2999992370605
8.991108,24.6599998474121
9.006733,24.3799991607666
9.022358,24.3700008392334
9.037983,24.5
9.053608,24.7800006866455
9.069233,25.3500003814697
9.084858,26.3199996948242
9.100483,27.5799999237061
9.116108,28.8299999237061
9.131733,29.7999992370605
9.147358,30.3400001525879
9.162983,30.5
9.178608,30.3799991607666
9.194233,30.0100002288818
9.209858,29.3899993896484
9.225483,28.5200004577637
9.241108,27.4500007629395
9.256733,26.2700004577637
9.272358,25.0599994659424
9.287983,23.8500003814697
9.303608,22.5699996948242
9.319233,21.0300006866455
9.334858,19.0300006866455
9.350483,16.5499992370605
9.366108,13.6899995803833
9.381733,10.6099996566772
9.397358,7.44999980926514
9.412983,4.30999994277954
9.428608,1.29999995231628
9.444233,-1.49000000953674
9.459858,-4.03999996185303
9.475483,-6.3600001335144
9.491108,-8.55000019073486
9.506733,-10.6999998092651
9.522358,-12.6599998474121
9.537983,-14.3100004196167
9.553608,-15.5799999237061
9.569233,-16.5
9.584858,-17.1599998474121
9.600483,-17.6299991607666
9.616108,-17.8600006103516
9.631733,-17.7199993133545
9.647358,-17.1299991607666
9.662983,-16.1599998474121
9.678608,-15.0699996948242
9.694233,-14.0900001525879
9.709858,-13.3599996566772
9.725483,-12.8699998855591
9.741108,-12.539999961853
9.756733,-12.2399997711182
9.772358,-11.9200000762939
9.787983,-11.5600004196167
9.803608,-11.1700000762939
9.819233,-10.8100004196167
9.834858,-10.4899997711182
9.850483,-10.25
9.866108,-10.1800003051758
9.881733,-10.4499998092651
9.897358,-11.289999961853
9.912983,-12.8100004196167
9.928608,-14.9399995803833
9.944233,-17.4599990844727
9.959858,-20.0699996948242
9.975483,-22.5599994659424
9.991108,-24.7999992370605
10.006733,-26.7800006866455
10.022358,-28.5200004577637
10.037983,-30.0400009155273
10.053608,-31.3299999237061
10.069233,-32.3699989318848
10.084858,-33.2400016784668
10.100483,-33.9900016784668
10.116108,-34.7000007629395
10.131733,-35.4000015258789
10.147358,-36.060001373291
10.162983,-36.6100006103516
10.178608,-36.9799995422363
10.194233,-37.0999984741211
10.209858,-36.9799995422363
10.225483,-36.6500015258789
10.241108,-36.189998626709
10.256733,-35.6599998474121
10.272358,-35.1300010681152
10.287983,-34.6199989318848
10.303608,-34.189998626709
10.319233,-33.9099998474121
10.334858,-33.8499984741211
10.350483,-34.0299987792969
10.366108,-34.4000015258789
10.381733,-34.8899993896484
10.397358,-35.4599990844727
10.412983,-36.0699996948242
10.428608,-36.6300010681152
10.444233,-37.0499992370605
10.459858,-37.2599983215332
10.475483,-37.310001373291
10.491108,-37.2799987792969
10.506733,-37.4099998474121
10.522358,-37.4599990844727
10.537983,-37.3699989318848
10.553608,-37.1300010681152
10.569233,-36.7700004577637
10.584858,-36.3800010681152
10.600483,-36.0800018310547
10.616108,-35.9799995422363
10.631733,-36.0999984741211
10.647358,-36.3899993896484
10.662983,-36.7900009155273
10.678608,-37.2400016784668
10.694233,-37.7000007629395
10.709858,-38.0400009155273
10.725483,-38.0400009155273
10.741108,-37.4799995422363
10.756733,-36.2299995422363
10.772358,-34.310001373291
10.787983,-31.8600006103516
10.803608,-29.0900001525879
10.819233,-26.2199993133545
10.834858,-23.4200000762939
10.850483,-20.7700004577637
10.866108,-18.3400001525879
10.881733,-16.1800003051758
10.897358,-14.3299999237061
10.912983,-12.7600002288818
10.928608,-11.3699998855591
10.944233,-10.0500001907349
10.959858,-8.67000007629395
10.975483,-7.19999980926514
10.991108,-5.67999982833862
11.006733,-4.19000005722046
11.022358,-2.80999994277954
11.037983,-1.60000002384186
11.053608,-0.589999973773956
11.069233,0.209999993443489
11.084858,0.759999990463257
11.100483,0.920000016689301
11.116108,0.620000004768372
11.131733,-0.119999997317791
11.147358,-1.12999999523163
11.162983,-2.1800000667572
11.178608,-3.14000010490417
11.194233,-4.0
11.209858,-4.82999992370605
11.225483,-5.53999996185303
11.241108,-5.96999979019165
11.256733,-6.01000022888184
11.272358,-5.67999982833862
11.287983,-5.09000015258789
11.303608,-4.30000019073486
11.319233,-3.21000003814697
11.334858,-1.63999998569489
11.350483,0.430000007152557
11.366108,2.94000005722046
11.381733,5.75
11.397358,8.73999977111816
11.412983,11.7799997329712
11.428608,14.6999998092651
11.444233,17.3199996948242
11.459858,19.5
11.475483,21.2199993133545
11.491108,22.5599994659424
11.506733,23.6599998474121
11.522358,24.4500007629395
11.537983,24.9400005340576
11.553608,25.2099990844727
11.569233,25.3199996948242
11.584858,25.2399997711182
11.600483,24.7800006866455
11.616108,23.7199993133545
11.631733,22.0
11.647358,19.6299991607666
11.662983,16.5900001525879
11.678608,12.8500003814697
11.694233,8.53999996185303
11.709858,4.05999994277954
11.725483,-0.0700000002980232
11.741108,-3.59999990463257
11.756733,-6.75
11.772358,-9.89999961853027
11.787983,-13.1499996185303
11.803608,-16.1800003051758
11.819233,-18.6200008392334
11.834858,-20.3199996948242
11.850483,-21.3999996185303
11.866108,-22.2900009155273
11.881733,-23.5
11.897358,-25.4300003051758
11.912983,-28.1599998474121
