Time(s),Value(%)
863.0071752,131.259994506836
863.0228002,125.050003051758
863.0384252,118.639999389648
863.0540502,112.73999786377
863.0696752,106.430000305176
863.0853002,98.5699996948242
863.1009252,88.7099990844727
863.1165502,77.3399963378906
863.1321752,65.5
863.1478002,54.1599998474121
863.1634252,43.7000007629395
863.1790502,33.9099998474121
863.1946752,24.4200000762939
863.2103002,14.9099998474121
863.2259252,5.19000005722046
863.2415502,-4.76999998092651
863.2571752,-15.0
863.2728002,-25.5100002288818
863.2884252,-36.0800018310547
863.3040502,-46.1300010681152
863.3196752,-55.0299987792969
863.3353002,-62.4799995422363
863.3509252,-68.5599975585938
863.3665502,-73.4700012207031
863.3821752,-77.3899993896484
863.3978002,-80.4499969482422
863.4134252,-82.7900009155273
863.4290502,-84.379997253418
863.4446752,-84.9599990844727
863.4603002,-84.2900009155273
863.4759252,-82.4000015258789
863.4915502,-79.5599975585938
863.5071752,-76.0999984741211
863.5228002,-72.2900009155273
863.5384252,-68.2200012207031
863.5540502,-63.7299995422363
863.5696752,-58.5499992370605
863.5853002,-52.560001373291
863.6009252,-45.9500007629395
863.6165502,-39.1300010681152
863.6321752,-32.4599990844727
863.6478002,-25.8500003814697
863.6634252,-18.4899997711182
863.6790502,-8.82999992370605
863.6946752,5.21999979019165
863.7103002,25.6700000762939
863.7259252,52.8400001525879
863.7415502,83.9899978637695
863.7571752,113.699996948242
863.7728002,136.429992675781
863.7884252,149.139999389648
863.8040502,152.050003051758
863.8196752,147.75
863.8353002,139.479995727539
863.8509252,129.679992675781
863.8665502,119.410003662109
863.8821752,108.680000305176
863.8978002,97.2799987792969
863.9134252,85.25
863.9290502,72.9700012207031
863.9446752,61.0
863.9603002,49.8300018310547
863.9759252,39.6399993896484
863.9915502,30.2600002288818
864.0071752,21.3299999237061
864.0228002,12.6099996566772
864.0384252,4.03000020980835
864.0540502,-4.34999990463257
864.0696752,-12.5200004577637
864.0853002,-20.4699993133545
864.1009252,-28.1700000762939
864.1165502,-35.6399993896484
864.1321752,-42.9599990844727
864.1478002,-50.25
864.1634252,-57.5900001525879
864.1790502,-64.8300018310547
864.1946752,-71.5400009155273
864.2103002,-77.2799987792969
864.2259252,-81.7300033569336
864.2415502,-84.7600021362305
864.2571752,-86.370002746582
864.2728002,-86.7099990844727
864.2884252,-85.9700012207031
864.3040502,-84.2399978637695
864.3196752,-81.6600036621094
864.3353002,-78.5400009155273
864.3509252,-75.3399963378906
864.3665502,-72.2900009155273
864.3821752,-69.0400009155273
864.3978002,-63.9799995422363
864.4134252,-54.0299987792969
864.4290502,-36.4599990844727
864.4446752,-11.5500001907349
864.4603002,16.9699993133545
864.4759252,43.9199981689453
864.4915502,65.2099990844727
864.5071752,79.5500030517578
864.5228002,88.5500030517578
864.5384252,94.8399963378906
864.5540502,100.040000915527
864.5696752,104.23999786377
864.5853002,106.550003051758
864.6009252,105.849998474121
864.6165502,101.430000305176
864.6321752,93.1399993896484
864.6478002,81.2799987792969
864.6634252,66.4899978637695
864.6790502,49.7299995422363
864.6946752,32.1699981689453
864.7103002,14.9200000762939
864.7259252,-1.12999999523163
864.7415502,-15.5100002288818
864.7571752,-28.2299995422363
864.7728002,-39.7000007629395
864.7884252,-50.3400001525879
864.8040502,-60.2299995422363
864.8196752,-69.0999984741211
864.8353002,-76.629997253418
864.8509252,-82.75
864.8665502,-87.7099990844727
864.8821752,-91.75
864.8978002,-95.0699996948242
864.9134252,-97.870002746582
864.9290502,-100.360000610352
864.9446752,-102.470001220703
864.9603002,-103.900001525879
864.9759252,-104.440002441406
864.9915502,-104.099998474121
865.0071752,-103.01000213623
865.0228002,-101.360000610352
865.0384252,-99.2099990844727
865.0540502,-96.4000015258789
865.0696752,-92.8300018310547
865.0853002,-88.5699996948242
865.1009252,-83.8899993896484
865.1165502,-79.0599975585938
865.1321752,-73.9800033569336
865.1478002,-67.7799987792969
865.1634252,-58.9300003051758
865.1790502,-45.560001373291
865.1946752,-26.1200008392334
865.2103002,-0.509999990463257
865.2259252,29.3199996948242
865.2415502,59.9900016784668
865.2571752,88.1900024414063
865.2728002,112.069999694824
865.2884252,131.550003051758
865.3040502,147.139999389648
865.3196752,158.679992675781
865.3353002,165.5
865.3509252,167.25
865.3665502,164.130004882813
865.3821752,156.770004272461
865.3978002,145.809997558594
865.4134252,131.779998779297
865.4290502,115.150001525879
865.4446752,96.5500030517578
865.4603002,77.0800018310547
865.4759252,58.0800018310547
865.4915502,40.7700004577637
865.5071752,25.7999992370605
865.5228002,13.0299997329712
865.5384252,1.77999997138977
865.5540502,-8.65999984741211
865.5696752,-18.7399997711182
865.5853002,-28.4799995422363
865.6009252,-37.7200012207031
865.6165502,-46.2700004577637
865.6321752,-54.0499992370605
865.6478002,-60.9099998474121
865.6634252,-66.4000015258789
865.6790502,-70.129997253418
865.6946752,-72.379997253418
865.7103002,-73.9000015258789
865.7259252,-75.0500030517578
865.7415502,-75.5599975585938
865.7571752,-75.0400009155273
865.7728002,-73.3499984741211
865.7884252,-70.8000030517578
865.8040502,-68.0199966430664
865.8196752,-65.5299987792969
865.8353002,-63.3199996948242
865.8509252,-60.810001373291
865.8665502,-56.9799995422363
865.8821752,-50.4199981689453
865.8978002,-39.3199996948242
865.9134252,-22.2199993133545
865.9290502,1.16999995708466
865.9446752,29.7399997711182
865.9603002,61.0
865.9759252,91.3399963378906
865.9915502,117.199996948242
866.0071752,136.350006103516
866.0228002,148.229995727539
866.0384252,153.639999389648
866.0540502,154.100006103516
866.0696752,150.910003662109
866.0853002,144.479995727539
866.1009252,134.460006713867
866.1165502,120.529998779297
866.1321752,103.019996643066
866.1478002,82.9300003051758
866.1634252,61.6300010681152
866.1790502,40.3899993896484
866.1946752,20.0799999237061
866.2103002,1.10000002384186
866.2259252,-16.4200000762939
866.2415502,-32.6199989318848
866.2571752,-47.7900009155273
866.2728002,-62.1699981689453
866.2884252,-75.8199996948242
866.3040502,-88.7399978637695
866.3196752,-100.75
866.3353002,-111.360000610352
866.3509252,-119.910003662109
866.3665502,-125.809997558594
866.3821752,-128.779998779297
866.3978002,-128.910003662109
866.4134252,-126.540000915527
866.4290502,-122.209999084473
866.4446752,-116.669998168945
866.4603002,-110.680000305176
866.4759252,-104.599998474121
866.4915502,-98.4100036621094
866.5071752,-91.9199981689453
866.5228002,-85.0299987792969
866.5384252,-77.8499984741211
866.5540502,-70.5299987792969
866.5696752,-62.9700012207031
866.5853002,-54.6199989318848
866.6009252,-44.7000007629395
866.6165502,-32.5999984741211
866.6321752,-18.1900005340576
866.6478002,-2.10999989509583
866.6634252,14.3999996185303
866.6790502,29.8199996948242
866.6946752,42.9199981689453
866.7103002,53.1100006103516
866.7259252,60.5299987792969
866.7415502,65.8199996948242
866.7571752,69.7600021362305
866.7728002,72.9899978637695
866.7884252,75.7799987792969
866.8040502,78.0599975585938
866.8196752,79.5
866.8353002,79.8600006103516
866.8509252,79.1699981689453
866.8665502,77.75
866.8821752,75.9800033569336
866.8978002,74.1500015258789
866.9134252,72.3199996948242
866.9290502,70.370002746582
866.9446752,68.129997253418
866.9603002,65.5599975585938
866.9759252,62.7599983215332
866.9915502,59.939998626709
867.0071752,57.2400016784668
867.0228002,54.6500015258789
867.0384252,52.0800018310547
867.0540502,49.3499984741211
867.0696752,46.2799987792969
867.0853002,42.8699989318848
867.1009252,39.2299995422363
867.1165502,35.5099983215332
867.1321752,31.8700008392334
867.1478002,28.5300006866455
867.1634252,25.7199993133545
867.1790502,23.4599990844727
867.1946752,21.4799995422363
867.2103002,19.4300003051758
867.2259252,17.1800003051758
867.2415502,14.8900003433228
867.2571752,12.8699998855591
867.2728002,11.5100002288818
867.2884252,11.3199996948242
867.3040502,12.8199996948242
867.3196752,16.2299995422363
867.3353002,21.1299991607666
867.3509252,26.6499996185303
867.3665502,31.7600002288818
867.3821752,35.5699996948242
867.3978002,37.4900016784668
867.4134252,37.4500007629395
867.4290502,35.9000015258789
867.4446752,33.5900001525879
867.4603002,31.0499992370605
867.4759252,28.4099998474121
867.4915502,25.4599990844727
867.5071752,21.8600006103516
867.5228002,17.3799991607666
867.5384252,12.1400003433228
867.5540502,6.51000022888184
867.5696752,0.899999976158142
867.5853002,-4.44999980926514
867.6009252,-9.43000030517578
867.6165502,-14.0100002288818
867.6321752,-18.2600002288818
867.6478002,-22.2099990844727
867.6634252,-25.8799991607666
867.6790502,-29.3099994659424
867.6946752,-32.5699996948242
867.7103002,-35.75
867.7259252,-38.8800010681152
867.7415502,-41.9199981689453
867.7571752,-44.75
867.7728002,-47.2299995422363
867.7884252,-49.3600006103516
867.8040502,-51.25
867.8196752,-53.0499992370605
867.8353002,-54.75
867.8509252,-56.2099990844727
867.8665502,-57.2900009155273
867.8821752,-57.9099998474121
867.8978002,-58.0900001525879
867.9134252,-57.939998626709
867.9290502,-57.5699996948242
867.9446752,-57.0200004577637
867.9603002,-56.2599983215332
867.9759252,-55.2299995422363
867.9915502,-53.9700012207031
868.0071752,-52.5099983215332
868.0228002,-50.7299995422363
868.0384252,-48.25
868.0540502,-44.4599990844727
868.0696752,-38.9099998474121
868.0853002,-31.6800003051758
868.1009252,-23.4099998474121
868.1165502,-15.1199998855591
868.1321752,-7.78000020980835
868.1478002,-1.99000000953674
868.1634252,2.21000003814697
868.1790502,5.11999988555908
868.1946752,7.15000009536743
868.2103002,8.68000030517578
868.2259252,9.77000045776367
868.2415502,10.289999961853
868.2571752,10.1199998855591
868.2728002,9.32999992370605
868.2884252,8.13000011444092
868.3040502,6.69999980926514
868.3196752,5.1100001335144
868.3353002,3.38000011444092
868.3509252,1.62000000476837
868.3665502,-0.0199999995529652
868.3821752,-1.42999994754791
868.3978002,-2.60999989509583
868.4134252,-3.66000008583069
868.4290502,-4.65999984741211
868.4446752,-5.59000015258789
868.4603002,-6.40000009536743
868.4759252,-7.07999992370605
868.4915502,-7.69000005722046
868.5071752,-8.3100004196167
868.5228002,-9.0
868.5384252,-9.77999973297119
868.5540502,-10.5699996948242
868.5696752,-11.3000001907349
868.5853002,-11.9499998092651
868.6009252,-12.5600004196167
868.6165502,-13.1099996566772
868.6321752,-13.4899997711182
868.6478002,-13.5699996948242
868.6634252,-13.3400001525879
868.6790502,-12.8800001144409
868.6946752,-12.289999961853
868.7103002,-11.6300001144409
868.7259252,-10.9399995803833
868.7415502,-10.2600002288818
868.7571752,-9.60999965667725
868.7728002,-8.9399995803833
868.7884252,-8.11999988555908
868.8040502,-6.8899998664856
868.8196752,-4.90000009536743
868.8353002,-1.85000002384186
868.8509252,2.35999989509583
868.8665502,7.63000011444092
868.8821752,13.5900001525879
868.8978002,19.6900005340576
868.9134252,25.2700004577637
868.9290502,29.7399997711182
868.9446752,32.810001373291
868.9603002,34.4700012207031
868.9759252,34.9700012207031
868.9915502,34.8300018310547
869.0071752,34.5800018310547
869.0228002,34.439998626709
869.0384252,34.2799987792969
869.0540502,33.7799987792969
869.0696752,32.6199989318848
869.0853002,30.6900005340576
869.1009252,28.1399993896484
869.1165502,25.2999992370605
869.1321752,22.5100002288818
869.1478002,19.9500007629395
869.1634252,17.6599998474121
869.1790502,15.5699996948242
869.1946752,13.5100002288818
869.2103002,11.3699998855591
869.2259252,9.13000011444092
869.2415502,6.8899998664856
869.2571752,4.73000001907349
869.2728002,2.71000003814697
869.2884252,0.920000016689301
869.3040502,-0.560000002384186
869.3196752,-1.94000005722046
869.3353002,-3.51999998092651
869.3509252,-5.48000001907349
869.3665502,-7.57999992370605
869.3821752,-9.4399995803833
869.3978002,-10.789999961853
869.4134252,-11.6499996185303
869.4290502,-12.210000038147
869.4446752,-12.6999998092651
869.4603002,-13.1899995803833
869.4759252,-13.6499996185303
869.4915502,-14.0299997329712
869.5071752,-14.2700004577637
869.5228002,-14.25
869.5384252,-13.8800001144409
869.5540502,-13.1099996566772
869.5696752,-11.8599996566772
869.5853002,-9.77000045776367
869.6009252,-6.01000022888184
869.6165502,0.600000023841858
869.6321752,10.960000038147
869.6478002,24.6299991607666
869.6634252,39.560001373291
869.6790502,52.9500007629395
869.6946752,62.439998626709
869.7103002,67.120002746582
869.7259252,67.5999984741211
869.7415502,65.3099975585938
869.7571752,61.5499992370605
869.7728002,56.9900016784668
869.7884252,51.7400016784668
869.8040502,45.560001373291
869.8196752,38.0499992370605
869.8353002,29.0799999237061
869.8509252,19.1900005340576
869.8665502,9.31999969482422
869.8821752,0.300000011920929
869.8978002,-7.30999994277954
869.9134252,-12.9399995803833
869.9290502,-15.9499998092651
869.9446752,-16.1200008392334
869.9603002,-14.0900001525879
869.9759252,-11.1899995803833
869.9915502,-8.63000011444092
870.0071752,-6.92000007629395
870.0228002,-5.82999992370605
870.0384252,-4.78000020980835
870.0540502,-3.63000011444092
870.0696752,-3.66000008583069
870.0853002,-7.40999984741211
870.1009252,-17.2099990844727
870.1165502,-33.5499992370605
870.1321752,-54.4500007629395
870.1478002,-75.870002746582
870.1634252,-93.25
870.1790502,-103.419998168945
870.1946752,-105.919998168945
870.2103002,-102.98999786377
870.2259252,-98.2300033569336
870.2415502,-94.5899963378906
870.2571752,-92.9599990844727
870.2728002,-92.3099975585938
870.2884252,-90.8199996948242
870.3040502,-86.9599990844727
870.3196752,-79.9100036621094
870.3353002,-69.1699981689453
870.3509252,-54.3400001525879
870.3665502,-35.5900001525879
870.3821752,-14.1300001144409
870.3978002,7.84000015258789
870.4134252,27.7900009155273
870.4290502,43.5800018310547
870.4446752,54.2299995422363
870.4603002,60.1800003051758
870.4759252,62.8800010681152
870.4915502,63.9799995422363
870.5071752,64.5299987792969
870.5228002,64.8199996948242
870.5384252,64.4899978637695
870.5540502,62.9300003051758
870.5696752,59.7900009155273
870.5853002,55.0699996948242
870.6009252,49.0
870.6165502,41.9099998474121
870.6321752,34.1699981689453
870.6478002,26.3500003814697
870.6634252,19.1900005340576
870.6790502,13.3000001907349
870.6946752,8.97000026702881
870.7103002,5.92999982833862
870.7259252,3.54999995231628
870.7415502,1.25999999046326
870.7571752,-1.20000004768372
870.7728002,-3.86999988555908
870.7884252,-6.61999988555908
870.8040502,-9.35000038146973
870.8196752,-11.9200000762939
870.8353002,-14.1999998092651
870.8509252,-16.1399993896484
870.8665502,-17.8799991607666
870.8821752,-19.7999992370605
870.8978002,-22.1900005340576
870.9134252,-25.1000003814697
870.9290502,-28.1700000762939
870.9446752,-30.7399997711182
870.9603002,-32.1800003051758
870.9759252,-32.0200004577637
870.9915502,-30.0
871.0071752,-26.4099998474121
871.0228002,-22.4300003051758
871.0384252,-19.8600006103516
871.0540502,-19.8700008392334
871.0696752,-21.5200004577637
871.0853002,-21.5699996948242
871.1009252,-16.0900001525879
871.1165502,-2.83999991416931
871.1321752,16.9599990844727
871.1478002,38.7400016784668
871.1634252,56.810001373291
871.1790502,67.5199966430664
871.1946752,70.6999969482422
871.2103002,68.8199996948242
871.2259252,65.0400009155273
871.2415502,61.6100006103516
871.2571752,59.2999992370605
871.2728002,57.6699981689453
871.2884252,55.6599998474121
871.3040502,52.189998626709
871.3196752,46.6500015258789
871.3353002,39.1399993896484
871.3509252,30.4500007629395
871.3665502,21.7900009155273
871.3821752,14.3100004196167
871.3978002,8.73999977111816
871.4134252,5.11999988555908
871.4290502,2.92000007629395
871.4446752,1.37000000476837
871.4603002,-0.28999999165535
871.4759252,-2.67000007629395
871.4915502,-6.01000022888184
871.5071752,-10.210000038147
871.5228002,-14.8000001907349
871.5384252,-19.2199993133545
871.5540502,-23.0499992370605
871.5696752,-26.1000003814697
871.5853002,-28.4799995422363
871.6009252,-30.5300006866455
871.6165502,-32.5800018310547
871.6321752,-34.7900009155273
871.6478002,-36.9599990844727
871.6634252,-38.6599998474121
871.6790502,-39.3899993896484
871.6946752,-38.7799987792969
871.7103002,-36.8199996948242
871.7259252,-33.8199996948242
871.7415502,-30.1700000762939
871.7571752,-26.0699996948242
871.7728002,-21.2999992370605
871.7884252,-15.1899995803833
871.8040502,-6.76999998092651
871.8196752,4.71999979019165
871.8353002,19.3999996185303
871.8509252,36.0699996948242
871.8665502,52.0800018310547
871.8821752,64.3499984741211
871.8978002,70.9800033569336
871.9134252,71.9100036621094
871.9290502,68.6699981689453
871.9446752,63.3199996948242
871.9603002,57.5499992370605
871.9759252,52.0999984741211
871.9915502,46.8699989318848
872.0071752,41.4199981689453
872.0228002,35.2900009155273
872.0384252,28.2000007629395
872.0540502,20.2199993133545
872.0696752,11.8100004196167
872.0853002,3.60999989509583
872.1009252,-3.8199999332428
872.1165502,-10.1400003433228
872.1321752,-15.1400003433228
872.1478002,-18.8899993896484
872.1634252,-21.7800006866455
872.1790502,-24.3500003814697
872.1946752,-27.1100006103516
872.2103002,-30.3199996948242
872.2259252,-33.9099998474121
872.2415502,-37.6199989318848
872.2571752,-41.2000007629395
872.2728002,-44.6100006103516
872.2884252,-47.9000015258789
872.3040502,-51.0400009155273
872.3196752,-53.9300003051758
872.3353002,-56.5
872.3509252,-58.6699981689453
872.3665502,-60.2900009155273
872.3821752,-61.1500015258789
872.3978002,-61.1300010681152
872.4134252,-60.2999992370605
872.4290502,-58.7999992370605
872.4446752,-56.7799987792969
872.4603002,-54.310001373291
872.4759252,-51.2000007629395
872.4915502,-46.5499992370605
872.5071752,-38.5800018310547
872.5228002,-25.7700004577637
872.5384252,-8.42000007629395
872.5540502,11.1099996566772
872.5696752,29.5100002288818
872.5853002,44.1100006103516
872.6009252,53.9099998474121
872.6165502,59.5699996948242
872.6321752,62.4500007629395
872.6478002,63.5999984741211
872.6634252,63.3800010681152
872.6790502,61.6800003051758
872.6946752,58.2999992370605
872.7103002,53.2000007629395
872.7259252,46.4900016784668
872.7415502,38.4000015258789
872.7571752,29.3600006103516
872.7728002,20.0300006866455
872.7884252,11.1899995803833
872.8040502,3.44000005722046
872.8196752,-2.99000000953674
872.8353002,-8.26000022888184
872.8509252,-12.6999998092651
872.8665502,-16.7399997711182
872.8821752,-20.6700000762939
872.8978002,-24.4799995422363
872.9134252,-28.0
872.9290502,-31.1700000762939
872.9446752,-34.060001373291
872.9603002,-36.7700004577637
872.9759252,-39.2900009155273
872.9915502,-41.5800018310547
873.0071752,-43.6500015258789
873.0228002,-45.4900016784668
873.0384252,-46.9599990844727
873.0540502,-47.75
873.0696752,-47.6199989318848
873.0853002,-46.5099983215332
873.1009252,-44.6100006103516
873.1165502,-42.4700012207031
873.1321752,-40.6100006103516
873.1478002,-39.2200012207031
873.1634252,-37.9300003051758
873.1790502,-35.9700012207031
873.1946752,-32.1500015258789
873.2103002,-24.9899997711182
873.2259252,-13.4399995803833
873.2415502,2.22000002861023
873.2571752,20.1499996185303
873.2728002,37.5400009155273
873.2884252,51.5999984741211
873.3040502,60.7400016784668
873.3196752,65.0299987792969
873.3353002,65.8199996948242
873.3509252,64.7600021362305
873.3665502,63.0699996948242
873.3821752,61.2400016784668
873.3978002,59.0699996948242
873.4134252,56.0499992370605
873.4290502,51.7900009155273
873.4446752,46.2900009155273
873.4603002,39.9199981689453
873.4759252,33.2400016784668
873.4915502,26.7900009155273
873.5071752,20.9200000762939
873.5228002,15.8299999237061
873.5384252,11.5299997329712
873.5540502,7.80000019073486
873.5696752,4.3899998664856
873.5853002,1.07000005245209
873.6009252,-2.22000002861023
873.6165502,-5.53000020980835
873.6321752,-8.73999977111816
873.6478002,-11.6800003051758
873.6634252,-14.3000001907349
873.6790502,-16.6800003051758
873.6946752,-18.8999996185303
873.7103002,-20.9400005340576
873.7259252,-22.7700004577637
