Time(s),Value(%)
437.0039886,-0.300000011920929
437.0196136,-4.1100001335144
437.0352386,-8.71000003814697
437.0508636,-13.960000038147
437.0664886,-19.7000007629395
437.0821136,-25.8500003814697
437.0977386,-32.2299995422363
437.1133636,-38.4099998474121
437.1289886,-43.7599983215332
437.1446136,-47.9000015258789
437.1602386,-51.0299987792969
437.1758636,-53.6599998474121
437.1914886,-56.1199989318848
437.2071136,-58.3199996948242
437.2227386,-60.0499992370605
437.2383636,-61.189998626709
437.2539886,-61.7099990844727
437.2696136,-61.4099998474121
437.2852386,-59.6699981689453
437.3008636,-55.8899993896484
437.3164886,-49.9599990844727
437.3321136,-42.25
437.3477386,-33.2000007629395
437.3633636,-23.1499996185303
437.3789886,-12.5200004577637
437.3946136,-2.02999997138977
437.4102386,7.40999984741211
437.4258636,15.1400003433228
437.4414886,21.0699996948242
437.4571136,25.4400005340576
437.4727386,28.4099998474121
437.4883636,29.9699993133545
437.5039886,30.2000007629395
437.5196136,29.4599990844727
437.5352386,28.2700004577637
437.5508636,27.25
437.5664886,27.0
437.5821136,27.8999996185303
437.5977386,29.9500007629395
437.6133636,32.939998626709
437.6289886,36.7999992370605
437.6446136,41.5400009155273
437.6602386,46.9599990844727
437.6758636,52.4500007629395
437.6914886,57.0900001525879
437.7071136,60.2700004577637
437.7227386,62.189998626709
437.7383636,63.4700012207031
437.7539886,64.4400024414063
437.7696136,64.9400024414063
437.7852386,64.620002746582
437.8008636,63.3800010681152
437.8164886,61.3499984741211
437.8321136,58.6500015258789
437.8477386,55.0999984741211
437.8633636,50.3499984741211
437.8789886,44.0999984741211
437.8946136,36.4799995422363
437.9102386,27.9899997711182
437.9258636,19.3799991607666
437.9414886,11.2299995422363
437.9571136,3.83999991416931
437.9727386,-2.72000002861023
437.9883636,-8.3100004196167
438.0039886,-12.4300003051758
438.0196136,-14.5699996948242
438.0352386,-14.6700000762939
438.0508636,-13.2399997711182
438.0664886,-10.9899997711182
438.0821136,-8.52000045776367
438.0977386,-6.25
438.1133636,-4.53999996185303
438.1289886,-3.78999996185303
438.1446136,-4.38000011444092
438.1602386,-6.42000007629395
438.1758636,-9.72999954223633
438.1914886,-13.8900003433228
438.2071136,-18.4599990844727
438.2227386,-23.1399993896484
438.2383636,-28.0
438.2539886,-33.5900001525879
438.2696136,-40.4500007629395
438.2852386,-48.6399993896484
438.3008636,-57.939998626709
438.3164886,-68.3600006103516
438.3321136,-80.3099975585938
438.3477386,-94.0699996948242
438.3633636,-109.209999084473
438.3789886,-124.279998779297
438.3946136,-137.589996337891
438.4102386,-148.080001831055
438.4258636,-155.800003051758
438.4414886,-161.570007324219
438.4571136,-166.139999389648
438.4727386,-169.720001220703
438.4883636,-172.039993286133
438.5039886,-172.860000610352
438.5196136,-172.300003051758
438.5352386,-170.710006713867
438.5508636,-168.25
438.5664886,-164.619995117188
438.5821136,-159.320007324219
438.5977386,-152.190002441406
438.6133636,-143.270004272461
438.6289886,-132.520004272461
438.6446136,-119.900001525879
438.6602386,-105.699996948242
438.6758636,-90.5500030517578
438.6914886,-74.9300003051758
438.7071136,-58.4799995422363
438.7227386,-40.0
438.7383636,-18.5900001525879
438.7539886,5.01000022888184
438.7696136,28.6800003051758
438.7852386,50.2900009155273
438.8008636,68.7799987792969
438.8164886,84.3399963378906
438.8321136,97.870002746582
438.8477386,110.319999694824
438.8633636,122.290000915527
438.8789886,133.970001220703
438.8946136,145.460006713867
438.9102386,157.080001831055
438.9258636,169.199996948242
438.9414886,181.660003662109
438.9571136,193.25
438.9727386,201.910003662109
438.9883636,206.550003051758
439.0039886,208.520004272461
439.0196136,210.550003051758
439.0352386,214.490005493164
439.0508636,220.210006713867
439.0664886,226.339996337891
439.0821136,231.440002441406
439.0977386,234.919998168945
439.1133636,237.539993286133
439.1289886,241.25
439.1446136,247.910003662109
439.1602386,258.010009765625
439.1758636,270.410003662109
439.1914886,283.179992675781
439.2071136,294.600006103516
439.2227386,303.5
439.2383636,308.470001220703
439.2539886,307.260009765625
439.2696136,297.920013427734
439.2852386,280.619995117188
439.3008636,258.010009765625
439.3164886,233.889999389648
439.3321136,211.470001220703
439.3477386,190.490005493164
439.3633636,172.520004272461
439.3789886,155.919998168945
439.3946136,139.270004272461
439.4102386,122.349998474121
439.4258636,105.76000213623
439.4414886,90.1800003051758
439.4571136,76.0199966430664
439.4727386,63.7000007629395
439.4883636,53.5099983215332
439.5039886,45.2900009155273
439.5196136,38.25
439.5352386,31.1599998474121
439.5508636,23.1599998474121
439.5664886,14.2299995422363
439.5821136,4.82999992370605
439.5977386,-4.82000017166138
439.6133636,-14.960000038147
439.6289886,-25.7299995422363
439.6446136,-36.9900016784668
439.6602386,-48.3699989318848
439.6758636,-59.6500015258789
439.6914886,-71.0
439.7071136,-82.7699966430664
439.7227386,-95.120002746582
439.7383636,-107.980003356934
439.7539886,-121.25
439.7696136,-134.809997558594
439.7852386,-148.440002441406
439.8008636,-161.690002441406
439.8164886,-174.100006103516
439.8321136,-185.429992675781
439.8477386,-195.830001831055
439.8633636,-205.5
439.8789886,-214.320007324219
439.8946136,-221.910003662109
439.9102386,-228.0
439.9258636,-232.649993896484
439.9414886,-236.229995727539
439.9571136,-239.339996337891
439.9727386,-242.679992675781
439.9883636,-246.729995727539
440.0039886,-251.600006103516
440.0196136,-257.390014648438
440.0352386,-264.570007324219
440.0508636,-273.630004882813
440.0664886,-284.380004882813
440.0821136,-295.630004882813
440.0977386,-305.609985351563
440.1133636,-313.230010986328
440.1289886,-318.799987792969
440.1446136,-323.320007324219
440.1602386,-327.010009765625
440.1758636,-327.679992675781
440.1914886,-327.679992675781
440.2071136,-326.619995117188
440.2227386,-322.209991455078
440.2383636,-316.049987792969
440.2539886,-307.549987792969
440.2696136,-295.839996337891
440.2852386,-280.760009765625
440.3008636,-262.989990234375
440.3164886,-243.550003051758
440.3321136,-223.360000610352
440.3477386,-199.929992675781
440.3633636,-177.910003662109
440.3789886,-157.759994506836
440.3946136,-139.649993896484
440.4102386,-123.349998474121
440.4258636,-108.449996948242
440.4414886,-94.9000015258789
440.4571136,-83.0800018310547
440.4727386,-73.5500030517578
440.4883636,-66.5400009155273
440.5039886,-61.7200012207031
440.5196136,-58.3400001525879
440.5352386,-55.7000007629395
440.5508636,-53.4799995422363
440.5664886,-51.6100006103516
440.5821136,-49.9700012207031
440.5977386,-48.0699996948242
440.6133636,-45.2799987792969
440.6289886,-41.2900009155273
440.6446136,-36.2700004577637
440.6602386,-30.8199996948242
440.6758636,-25.9799995422363
440.6914886,-23.0300006866455
440.7071136,-22.9200000762939
440.7227386,-25.6700000762939
440.7383636,-30.5100002288818
440.7539886,-36.5299987792969
440.7696136,-43.0499992370605
440.7852386,-49.4799995422363
440.8008636,-54.8800010681152
440.8164886,-57.8199996948242
440.8321136,-56.9599990844727
440.8477386,-51.8600006103516
440.8633636,-43.0999984741211
440.8789886,-31.75
440.8946136,-19.0
440.9102386,-5.84000015258789
440.9258636,6.98999977111816
440.9414886,19.1200008392334
440.9571136,30.4300003051758
440.9727386,40.9799995422363
440.9883636,50.9099998474121
441.0039886,60.2999992370605
441.0196136,69.0400009155273
441.0352386,76.8000030517578
441.0508636,83.2799987792969
441.0664886,88.3899993896484
441.0821136,92.3000030517578
441.0977386,95.1600036621094
441.1133636,96.9800033569336
441.1289886,97.6600036621094
441.1446136,97.370002746582
441.1602386,96.6600036621094
441.1758636,96.2600021362305
441.1914886,96.6600036621094
441.2071136,97.9000015258789
441.2227386,99.6900024414063
441.2383636,101.849998474121
441.2539886,104.529998779297
441.2696136,108.040000915527
441.2852386,112.540000915527
441.3008636,118.080001831055
441.3164886,124.849998474121
441.3321136,132.990005493164
441.3477386,139.0
441.3633636,145.240005493164
441.3789886,150.979995727539
441.3946136,156.160003662109
441.4102386,161.630004882813
441.4258636,168.240005493164
441.4414886,175.820007324219
441.4571136,183.229995727539
441.4727386,189.25
441.4883636,193.330001831055
441.5039886,195.669998168945
441.5196136,197.050003051758
441.5352386,198.389999389648
441.5508636,200.360000610352
441.5664886,203.270004272461
441.5821136,207.740005493164
441.5977386,215.160003662109
441.6133636,226.809997558594
441.6289886,242.429992675781
441.6446136,259.660003662109
441.6602386,274.839996337891
441.6758636,284.600006103516
441.6914886,287.100006103516
441.7071136,281.920013427734
441.7227386,269.369995117188
441.7383636,250.460006713867
441.7539886,227.110000610352
441.7696136,201.860000610352
441.7852386,176.820007324219
441.8008636,152.380004882813
441.8164886,126.860000610352
441.8321136,98.0699996948242
441.8477386,65.0400009155273
441.8633636,27.9699993133545
441.8789886,-12.9099998474121
441.8946136,-57.3600006103516
441.9102386,-104.0
441.9258636,-149.399993896484
441.9414886,-188.550003051758
441.9571136,-217.149993896484
441.9727386,-233.779998779297
441.9883636,-239.570007324219
442.0039886,-236.470001220703
442.0196136,-226.410003662109
442.0352386,-211.559997558594
442.0508636,-194.330001831055
442.0664886,-176.789993286133
442.0821136,-159.899993896484
442.0977386,-143.300003051758
442.1133636,-126.040000915527
442.1289886,-107.559997558594
442.1446136,-88.1500015258789
442.1602386,-68.6500015258789
442.1758636,-49.9700012207031
442.1914886,-32.7799987792969
442.2071136,-17.8199996948242
442.2227386,-5.96999979019165
442.2383636,2.38000011444092
442.2539886,8.17000007629395
442.2696136,13.1899995803833
442.2852386,19.0499992370605
442.3008636,26.5200004577637
442.3164886,35.6599998474121
442.3321136,46.0200004577637
442.3477386,58.060001373291
442.3633636,69.75
442.3789886,79.620002746582
442.3946136,86.4400024414063
442.4102386,89.9000015258789
442.4258636,90.4400024414063
442.4414886,88.7600021362305
442.4571136,85.4899978637695
442.4727386,81.129997253418
442.4883636,76.1699981689453
442.5039886,71.0
442.5196136,65.8300018310547
442.5352386,60.5900001525879
442.5508636,55.1199989318848
442.5664886,49.2599983215332
442.5821136,42.75
442.5977386,35.1300010681152
442.6133636,25.9899997711182
442.6289886,15.3800001144409
442.6446136,4.0
442.6602386,-7.28999996185303
442.6758636,-18.6000003814697
442.6914886,-31.3799991607666
442.7071136,-47.2700004577637
442.7227386,-66.2900009155273
442.7383636,-86.6699981689453
442.7539886,-106.120002746582
442.7696136,-123.099998474121
442.7852386,-137.289993286133
442.8008636,-149.399993896484
442.8164886,-160.520004272461
442.8321136,-171.550003051758
442.8477386,-182.779998779297
442.8633636,-194.059997558594
442.8789886,-205.100006103516
442.8946136,-215.660003662109
442.9102386,-225.350006103516
442.9258636,-232.899993896484
442.9414886,-235.929992675781
442.9571136,-232.119995117188
442.9727386,-220.830001831055
442.9883636,-203.479995727539
443.0039886,-182.729995727539
443.0196136,-161.220001220703
443.0352386,-140.759994506836
443.0508636,-122.029998779297
443.0664886,-104.889999389648
443.0821136,-88.7600021362305
443.0977386,-72.9899978637695
443.1133636,-57.2000007629395
443.1289886,-41.3800010681152
443.1446136,-25.8199996948242
443.1602386,-10.9399995803833
443.1758636,2.96000003814697
443.1914886,15.7600002288818
443.2071136,27.2299995422363
443.2227386,36.9300003051758
443.2383636,44.4099998474121
443.2539886,49.5099983215332
443.2696136,52.6300010681152
443.2852386,54.5099983215332
443.3008636,55.9799995422363
443.3164886,57.5699996948242
443.3321136,59.4500007629395
443.3477386,63.1199989318848
443.3633636,67.0800018310547
443.3789886,71.7200012207031
443.3946136,77.5
443.4102386,84.5299987792969
443.4258636,92.4700012207031
443.4414886,100.629997253418
443.4571136,108.410003662109
443.4727386,115.400001525879
443.4883636,121.330001831055
443.5039886,125.959999084473
443.5196136,129.229995727539
443.5352386,131.520004272461
443.5508636,133.490005493164
443.5664886,135.690002441406
443.5821136,138.289993286133
443.5977386,141.089996337891
443.6133636,143.75
443.6289886,145.850006103516
443.6446136,146.699996948242
443.6602386,145.169998168945
443.6758636,140.289993286133
443.6914886,132.020004272461
443.7071136,121.290000915527
443.7227386,109.459999084473
443.7383636,97.6500015258789
443.7539886,86.5800018310547
443.7696136,76.8199996948242
443.7852386,69.1399993896484
443.8008636,64.4199981689453
443.8164886,63.2099990844727
443.8321136,65.370002746582
443.8477386,70.0800018310547
443.8633636,76.0999984741211
443.8789886,82.2600021362305
443.8946136,87.7699966430664
443.9102386,91.9700012207031
443.9258636,93.25
443.9414886,88.4599990844727
443.9571136,74.75
443.9727386,51.8800010681152
443.9883636,22.7199993133545
444.0039886,-8.42000007629395
444.0196136,-37.9099998474121
444.0352386,-63.5900001525879
444.0508636,-83.9499969482422
444.0664886,-97.0400009155273
444.0821136,-100.889999389648
444.0977386,-94.9100036621094
444.1133636,-80.7200012207031
444.1289886,-61.6199989318848
444.1446136,-41.2599983215332
444.1602386,-22.3099994659424
444.1758636,-5.92999982833862
444.1914886,7.82999992370605
444.2071136,18.8999996185303
444.2227386,26.2800006866455
444.2383636,28.7600002288818
444.2539886,26.2600002288818
444.2696136,20.2099990844727
444.2852386,12.9200000762939
444.3008636,6.44000005722046
444.3164886,1.86000001430511
444.3321136,-0.519999980926514
444.3477386,-0.600000023841858
444.3633636,2.01999998092651
444.3789886,7.82000017166138
444.3946136,16.7600002288818
444.4102386,27.9400005340576
444.4258636,40.0800018310547
444.4414886,52.3400001525879
444.4571136,64.5100021362305
444.4727386,76.5699996948242
444.4883636,88.0699996948242
444.5039886,98.0199966430664
444.5196136,105.809997558594
444.5352386,112.150001525879
444.5508636,118.419998168945
444.5664886,125.319999694824
444.5821136,132.449996948242
444.5977386,138.869995117188
444.6133636,143.860000610352
444.6289886,147.220001220703
444.6446136,148.990005493164
444.6602386,149.139999389648
444.6758636,147.559997558594
444.6914886,144.300003051758
444.7071136,139.529998779297
444.7227386,133.350006103516
444.7383636,125.819999694824
444.7539886,117.069999694824
444.7696136,107.180000305176
444.7852386,95.7699966430664
444.8008636,81.629997253418
444.8164886,63.0200004577637
444.8321136,39.0299987792969
444.8477386,10.7399997711182
444.8633636,-19.1399993896484
444.8789886,-47.7900009155273
444.8946136,-73.4899978637695
444.9102386,-95.6800003051758
444.9258636,-113.76000213623
444.9414886,-126.110000610352
444.9571136,-131.059997558594
444.9727386,-128.460006713867
444.9883636,-119.819999694824
445.0039886,-107.080001831055
445.0196136,-91.8499984741211
445.0352386,-75.4599990844727
445.0508636,-59.3600006103516
445.0664886,-44.9700012207031
445.0821136,-33.0299987792969
445.0977386,-23.1100006103516
445.1133636,-14.4200000762939
445.1289886,-6.98999977111816
445.1446136,-1.61000001430511
445.1602386,1.08000004291534
445.1758636,1.28999996185303
445.1914886,-0.140000000596046
445.2071136,-2.35999989509583
445.2227386,-4.98999977111816
445.2383636,-8.06999969482422
445.2539886,-11.6800003051758
445.2696136,-15.3900003433228
445.2852386,-18.25
445.3008636,-19.2600002288818
445.3164886,-18.1900005340576
445.3321136,-15.7799997329712
445.3477386,-13.0
445.3633636,-10.1300001144409
445.3789886,-5.32000017166138
445.3946136,3.46000003814697
445.4102386,16.3199996948242
445.4258636,31.1900005340576
445.4414886,45.3600006103516
445.4571136,56.9900016784668
445.4727386,66.5899963378906
445.4883636,79.370002746582
445.5039886,105.230003356934
445.5196136,152.860000610352
445.5352386,223.800003051758
445.5508636,314.279998779297
445.5664886,327.670013427734
445.5821136,327.670013427734
445.5977386,327.670013427734
445.6133636,327.670013427734
445.6289886,327.670013427734
445.6446136,327.670013427734
445.6602386,327.670013427734
445.6758636,327.670013427734
445.6914886,327.670013427734
445.7071136,327.670013427734
445.7227386,327.670013427734
445.7383636,327.670013427734
445.7539886,327.670013427734
445.7696136,327.670013427734
445.7852386,327.670013427734
445.8008636,327.670013427734
445.8164886,327.670013427734
445.8321136,327.670013427734
445.8477386,299.029998779297
445.8633636,217.289993286133
445.8789886,143.559997558594
445.8946136,78.1999969482422
445.9102386,20.6800003051758
445.9258636,-28.9799995422363
445.9414886,-70.120002746582
445.9571136,-102.620002746582
445.9727386,-128.199996948242
445.9883636,-150.050003051758
446.0039886,-171.190002441406
446.0196136,-193.279998779297
446.0352386,-216.729995727539
446.0508636,-242.350006103516
446.0664886,-272.399993896484
446.0821136,-309.25
446.0977386,-327.679992675781
446.1133636,-327.679992675781
446.1289886,-327.679992675781
446.1446136,-327.679992675781
446.1602386,-327.679992675781
446.1758636,-327.679992675781
446.1914886,-327.679992675781
446.2071136,-327.679992675781
446.2227386,-327.679992675781
446.2383636,-327.679992675781
446.2539886,-327.679992675781
446.2696136,-327.679992675781
446.2852386,-327.679992675781
446.3008636,-327.679992675781
446.3164886,-327.679992675781
446.3321136,-327.679992675781
446.3477386,-327.679992675781
446.3633636,-327.679992675781
446.3789886,-327.679992675781
446.3946136,-327.679992675781
446.4102386,-327.679992675781
446.4258636,-327.679992675781
446.4414886,-327.679992675781
446.4571136,-327.679992675781
446.4727386,-327.679992675781
446.4883636,-327.679992675781
446.5039886,-327.679992675781
446.5196136,-327.679992675781
446.5352386,-327.679992675781
446.5508636,-327.679992675781
446.5664886,-327.679992675781
446.5821136,-327.679992675781
446.5977386,-327.679992675781
446.6133636,-327.679992675781
446.6289886,-327.679992675781
446.6446136,-327.679992675781
446.6602386,-327.679992675781
446.6758636,-327.679992675781
446.6914886,-327.679992675781
446.7071136,-327.679992675781
446.7227386,-327.679992675781
446.7383636,-327.679992675781
446.7539886,-327.679992675781
446.7696136,-327.679992675781
446.7852386,-327.679992675781
446.8008636,-327.679992675781
446.8164886,-327.679992675781
446.8321136,-327.679992675781
446.8477386,-317.089996337891
446.8633636,-301.510009765625
446.8789886,-287.209991455078
446.8946136,-273.799987792969
446.9102386,-260.970001220703
446.9258636,-248.860000610352
446.9414886,-238.229995727539
446.9571136,-229.669998168945
446.9727386,-222.860000610352
446.9883636,-216.630004882813
447.0039886,-209.740005493164
447.0196136,-201.449996948242
447.0352386,-192.240005493164
447.0508636,-184.899993896484
447.0664886,-184.550003051758
447.0821136,-195.800003051758
447.0977386,-219.270004272461
447.1133636,-251.449996948242
447.1289886,-287.290008544922
447.1446136,-322.549987792969
447.1602386,-327.679992675781
447.1758636,-327.679992675781
447.1914886,-327.679992675781
447.2071136,-327.679992675781
447.2227386,-327.679992675781
447.2383636,-327.679992675781
447.2539886,-327.679992675781
447.2696136,-312.359985351563
447.2852386,-298.880004882813
447.3008636,-285.799987792969
447.3164886,-270.970001220703
447.3321136,-252.740005493164
447.3477386,-229.639999389648
447.3633636,-200.789993286133
447.3789886,-166.740005493164
447.3946136,-129.059997558594
447.4102386,-89.2900009155273
447.4258636,-48.5299987792969
447.4414886,-7.42999982833862
447.4571136,33.9000015258789
447.4727386,76.1100006103516
447.4883636,120.360000610352
447.5039886,167.559997558594
447.5196136,217.289993286133
447.5352386,267.369995117188
447.5508636,314.880004882813
447.5664886,327.670013427734
447.5821136,327.670013427734
447.5977386,327.670013427734
447.6133636,327.670013427734
447.6289886,327.670013427734
447.6446136,327.670013427734
447.6602386,327.670013427734
447.6758636,327.670013427734
447.6914886,327.670013427734
447.7071136,327.670013427734
447.7227386,327.670013427734
447.7383636,327.670013427734
447.7539886,327.670013427734
