Time(s),Value(%)
1314.0064631,-49.0499992370605
1314.0220881,-40.9799995422363
1314.0377131,-31.5100002288818
1314.0533381,-20.75
1314.0689631,-9.07999992370605
1314.0845881,2.75999999046326
1314.1002131,13.8800001144409
1314.1158381,23.7000007629395
1314.1314631,32.25
1314.1470881,39.8300018310547
1314.1627131,46.3699989318848
1314.1783381,51.4599990844727
1314.1939631,54.8699989318848
1314.2095881,56.7799987792969
1314.2252131,57.6800003051758
1314.2408381,57.939998626709
1314.2564631,57.5200004577637
1314.2720881,56.1300010681152
1314.2877131,53.6399993896484
1314.3033381,50.1800003051758
1314.3189631,46.0400009155273
1314.3345881,41.4799995422363
1314.3502131,36.7700004577637
1314.3658381,32.1599998474121
1314.3814631,27.8400001525879
1314.3970881,23.8199996948242
1314.4127131,19.8799991607666
1314.4283381,15.7399997711182
1314.4439631,11.4099998474121
1314.4595881,7.17999982833862
1314.4752131,3.33999991416931
1314.4908381,0.0500000007450581
1314.5064631,-2.76999998092651
1314.5220881,-5.44999980926514
1314.5377131,-8.40999984741211
1314.5533381,-12.0
1314.5689631,-16.3199996948242
1314.5845881,-21.2800006866455
1314.6002131,-26.8799991607666
1314.6158381,-33.1100006103516
1314.6314631,-39.810001373291
1314.6470881,-46.3800010681152
1314.6627131,-51.9000015258789
1314.6783381,-55.7999992370605
1314.6939631,-58.2700004577637
1314.7095881,-60.0099983215332
1314.7252131,-61.4700012207031
1314.7408381,-62.6500015258789
1314.7564631,-63.3199996948242
1314.7720881,-63.3499984741211
1314.7877131,-62.7299995422363
1314.8033381,-61.2700004577637
1314.8189631,-58.3699989318848
1314.8345881,-53.4099998474121
1314.8502131,-46.2999992370605
1314.8658381,-37.4300003051758
1314.8814631,-27.2600002288818
1314.8970881,-16.1800003051758
1314.9127131,-4.61999988555908
1314.9283381,6.73999977111816
1314.9439631,17.1200008392334
1314.9595881,26.0900001525879
1314.9752131,33.9300003051758
1314.9908381,41.189998626709
1315.0064631,48.0
1315.0220881,53.9700012207031
1315.0377131,58.7099990844727
1315.0533381,62.1399993896484
1315.0689631,64.6100006103516
1315.0845881,66.8600006103516
1315.1002131,69.7799987792969
1315.1158381,74.0699996948242
1315.1314631,79.7699966430664
1315.1470881,86.4100036621094
1315.1627131,93.3600006103516
1315.1783381,100.129997253418
1315.1939631,106.330001831055
1315.2095881,111.300003051758
1315.2252131,113.970001220703
1315.2408381,113.339996337891
1315.2564631,109.230003356934
1315.2720881,102.370002746582
1315.2877131,93.879997253418
1315.3033381,84.5100021362305
1315.3189631,74.3199996948242
1315.3345881,63.0099983215332
1315.3502131,50.5200004577637
1315.3658381,37.3400001525879
1315.3814631,24.1900005340576
1315.3970881,11.3900003433228
1315.4127131,-1.51999998092651
1315.4283381,-15.1000003814697
1315.4439631,-29.0799999237061
1315.4595881,-42.3800010681152
1315.4752131,-54.060001373291
1315.4908381,-64.0400009155273
1315.5064631,-73.1100006103516
1315.5220881,-82.0
1315.5377131,-90.4800033569336
1315.5533381,-97.6800003051758
1315.5689631,-103.029998779297
1315.5845881,-106.669998168945
1315.6002131,-108.779998779297
1315.6158381,-109.879997253418
1315.6314631,-109.709999084473
1315.6470881,-107.870002746582
1315.6627131,-104.26000213623
1315.6783381,-99.0400009155273
1315.6939631,-92.3899993896484
1315.7095881,-84.4899978637695
1315.7252131,-75.8000030517578
1315.7408381,-67.0299987792969
1315.7564631,-58.7999992370605
1315.7720881,-51.4099998474121
1315.7877131,-44.9099998474121
1315.8033381,-39.439998626709
1315.8189631,-35.4700012207031
1315.8345881,-33.4900016784668
1315.8502131,-33.5200004577637
1315.8658381,-34.9700012207031
1315.8814631,-36.939998626709
1315.8970881,-38.6599998474121
1315.9127131,-39.7000007629395
1315.9283381,-39.8699989318848
1315.9439631,-38.9900016784668
1315.9595881,-36.9199981689453
1315.9752131,-33.6800003051758
1315.9908381,-29.5499992370605
1316.0064631,-25.0200004577637
1316.0220881,-20.5599994659424
1316.0377131,-16.4799995422363
1316.0533381,-12.8699998855591
1316.0689631,-9.60000038146973
1316.0845881,-6.3600001335144
1316.1002131,-2.6800000667572
1316.1158381,1.78999996185303
1316.1314631,7.07000017166138
1316.1470881,12.7799997329712
1316.1627131,18.3400001525879
1316.1783381,23.2600002288818
1316.1939631,27.3099994659424
1316.2095881,30.3400001525879
1316.2252131,32.1500015258789
1316.2408381,32.4799995422363
1316.2564631,31.2900009155273
1316.2720881,28.8999996185303
1316.2877131,25.9400005340576
1316.3033381,23.0499992370605
1316.3189631,20.6700000762939
1316.3345881,18.8600006103516
1316.3502131,16.4500007629395
1316.3658381,8.22999954223633
1316.3814631,-15.7600002288818
1316.3970881,-64.5899963378906
1316.4127131,-139.070007324219
1316.4283381,-230.710006713867
1316.4439631,-326.730010986328
1316.4595881,-327.679992675781
1316.4752131,-327.679992675781
1316.4908381,-327.679992675781
1316.5064631,-327.679992675781
1316.5220881,-327.679992675781
1316.5377131,-327.679992675781
1316.5533381,-327.679992675781
1316.5689631,-327.679992675781
1316.5845881,-327.679992675781
1316.6002131,-327.679992675781
1316.6158381,-327.679992675781
1316.6314631,-327.679992675781
1316.6470881,-327.679992675781
1316.6627131,-327.679992675781
1316.6783381,-327.679992675781
1316.6939631,-327.679992675781
1316.7095881,-327.679992675781
1316.7252131,-327.679992675781
1316.7408381,-327.679992675781
1316.7564631,-327.679992675781
1316.7720881,-327.679992675781
1316.7877131,-327.679992675781
1316.8033381,-327.679992675781
1316.8189631,-327.679992675781
1316.8345881,-327.679992675781
1316.8502131,-327.679992675781
1316.8658381,-327.679992675781
1316.8814631,-327.679992675781
1316.8970881,-327.679992675781
1316.9127131,-327.679992675781
1316.9283381,-327.679992675781
1316.9439631,-232.710006713867
1316.9595881,-23.9200000762939
1316.9752131,205.529998779297
1316.9908381,327.670013427734
1317.0064631,327.670013427734
1317.0220881,327.670013427734
1317.0377131,327.670013427734
1317.0533381,327.670013427734
1317.0689631,327.670013427734
1317.0845881,327.670013427734
1317.1002131,327.670013427734
1317.1158381,327.670013427734
1317.1314631,327.670013427734
1317.1470881,327.670013427734
1317.1627131,327.670013427734
1317.1783381,327.670013427734
1317.1939631,327.670013427734
1317.2095881,327.670013427734
1317.2252131,327.670013427734
1317.2408381,327.670013427734
1317.2564631,327.670013427734
1317.2720881,327.670013427734
1317.2877131,327.670013427734
1317.3033381,327.670013427734
1317.3189631,327.670013427734
1317.3345881,327.670013427734
1317.3502131,327.670013427734
1317.3658381,327.670013427734
1317.3814631,327.670013427734
1317.3970881,327.670013427734
1317.4127131,327.670013427734
1317.4283381,327.670013427734
1317.4439631,327.670013427734
1317.4595881,327.670013427734
1317.4752131,327.670013427734
1317.4908381,327.670013427734
1317.5064631,327.670013427734
1317.5220881,327.670013427734
1317.5377131,327.670013427734
1317.5533381,327.670013427734
1317.5689631,327.670013427734
1317.5845881,327.670013427734
1317.6002131,327.670013427734
1317.6158381,327.670013427734
1317.6314631,327.670013427734
1317.6470881,327.670013427734
1317.6627131,327.670013427734
1317.6783381,327.670013427734
1317.6939631,327.670013427734
1317.7095881,327.670013427734
1317.7252131,327.670013427734
1317.7408381,327.670013427734
1317.7564631,327.670013427734
1317.7720881,327.670013427734
1317.7877131,327.670013427734
1317.8033381,327.670013427734
1317.8189631,327.670013427734
1317.8345881,117.0
1317.8502131,-229.270004272461
1317.8658381,-327.679992675781
1317.8814631,-327.679992675781
1317.8970881,-327.679992675781
1317.9127131,-327.679992675781
1317.9283381,-327.679992675781
1317.9439631,-327.679992675781
1317.9595881,-327.679992675781
1317.9752131,-327.679992675781
1317.9908381,-327.679992675781
1318.0064631,-327.679992675781
1318.0220881,-327.679992675781
1318.0377131,-327.679992675781
1318.0533381,-327.679992675781
1318.0689631,-327.679992675781
1318.0845881,-327.679992675781
1318.1002131,-327.679992675781
1318.1158381,-327.679992675781
1318.1314631,-327.679992675781
1318.1470881,-327.679992675781
1318.1627131,-327.679992675781
1318.1783381,-327.679992675781
1318.1939631,-327.679992675781
1318.2095881,-327.679992675781
1318.2252131,-327.679992675781
1318.2408381,-327.679992675781
1318.2564631,-327.679992675781
1318.2720881,-327.679992675781
1318.2877131,-327.679992675781
1318.3033381,-327.679992675781
1318.3189631,-327.679992675781
1318.3345881,-327.679992675781
1318.3502131,-78.2200012207031
1318.3658381,303.670013427734
1318.3814631,327.670013427734
1318.3970881,327.670013427734
1318.4127131,327.670013427734
1318.4283381,327.670013427734
1318.4439631,327.670013427734
1318.4595881,327.670013427734
1318.4752131,327.670013427734
1318.4908381,327.670013427734
1318.5064631,327.670013427734
1318.5220881,327.670013427734
1318.5377131,327.670013427734
1318.5533381,327.670013427734
1318.5689631,327.670013427734
1318.5845881,273.760009765625
1318.6002131,-233.240005493164
1318.6158381,-327.679992675781
1318.6314631,-327.679992675781
1318.6470881,-327.679992675781
1318.6627131,-327.679992675781
1318.6783381,-327.679992675781
1318.6939631,-327.679992675781
1318.7095881,-327.679992675781
1318.7252131,-327.679992675781
1318.7408381,-327.679992675781
1318.7564631,-327.679992675781
1318.7720881,-327.679992675781
1318.7877131,-327.679992675781
1318.8033381,-327.679992675781
1318.8189631,-327.679992675781
1318.8345881,140.080001831055
1318.8502131,327.670013427734
1318.8658381,327.670013427734
1318.8814631,327.670013427734
1318.8970881,327.670013427734
1318.9127131,327.670013427734
1318.9283381,327.670013427734
1318.9439631,327.670013427734
1318.9595881,327.670013427734
1318.9752131,327.670013427734
1318.9908381,327.670013427734
1319.0064631,327.670013427734
1319.0220881,327.670013427734
1319.0377131,327.670013427734
1319.0533381,118.059997558594
1319.0689631,-197.350006103516
1319.0845881,-327.679992675781
1319.1002131,-327.679992675781
1319.1158381,-327.679992675781
1319.1314631,-327.679992675781
1319.1470881,-327.679992675781
1319.1627131,-327.679992675781
1319.1783381,-327.679992675781
1319.1939631,-327.679992675781
1319.2095881,-327.679992675781
1319.2252131,-327.679992675781
1319.2408381,-327.679992675781
1319.2564631,-327.679992675781
1319.2720881,-327.679992675781
1319.2877131,-327.679992675781
1319.3033381,-327.679992675781
1319.3189631,-327.679992675781
1319.3345881,-327.679992675781
1319.3502131,-327.679992675781
1319.3658381,-327.679992675781
1319.3814631,-327.679992675781
1319.3970881,-327.679992675781
1319.4127131,-327.679992675781
1319.4283381,-327.679992675781
1319.4439631,-327.679992675781
1319.4595881,-327.679992675781
1319.4752131,-327.679992675781
1319.4908381,-327.679992675781
1319.5064631,-327.679992675781
1319.5220881,-327.679992675781
1319.5377131,-327.679992675781
1319.5533381,-327.679992675781
1319.5689631,-327.679992675781
1319.5845881,-327.679992675781
1319.6002131,-327.679992675781
1319.6158381,-327.679992675781
1319.6314631,-327.679992675781
1319.6470881,-327.679992675781
1319.6627131,-327.679992675781
1319.6783381,-327.679992675781
1319.6939631,-327.679992675781
1319.7095881,-327.679992675781
1319.7252131,-327.679992675781
1319.7408381,-327.679992675781
1319.7564631,-327.679992675781
1319.7720881,-327.679992675781
1319.7877131,-327.679992675781
1319.8033381,-327.679992675781
1319.8189631,-327.679992675781
1319.8345881,-327.679992675781
1319.8502131,-327.679992675781
1319.8658381,-327.679992675781
1319.8814631,-327.679992675781
1319.8970881,-327.679992675781
1319.9127131,-327.679992675781
1319.9283381,-165.259994506836
1319.9439631,196.410003662109
1319.9595881,327.670013427734
1319.9752131,327.670013427734
1319.9908381,327.670013427734
1320.0064631,327.670013427734
1320.0220881,327.670013427734
1320.0377131,327.670013427734
1320.0533381,327.670013427734
1320.0689631,327.670013427734
1320.0845881,327.670013427734
1320.1002131,327.670013427734
1320.1158381,327.670013427734
1320.1314631,327.670013427734
1320.1470881,327.670013427734
1320.1627131,327.670013427734
1320.1783381,327.670013427734
1320.1939631,327.670013427734
1320.2095881,327.670013427734
1320.2252131,327.670013427734
1320.2408381,327.670013427734
1320.2564631,327.670013427734
1320.2720881,327.670013427734
1320.2877131,327.670013427734
1320.3033381,327.670013427734
1320.3189631,327.670013427734
1320.3345881,327.670013427734
1320.3502131,327.670013427734
1320.3658381,327.670013427734
1320.3814631,327.670013427734
1320.3970881,327.670013427734
1320.4127131,327.670013427734
1320.4283381,327.670013427734
1320.4439631,327.670013427734
1320.4595881,327.670013427734
1320.4752131,327.670013427734
1320.4908381,327.670013427734
1320.5064631,327.670013427734
1320.5220881,327.670013427734
1320.5377131,327.670013427734
1320.5533381,327.670013427734
1320.5689631,327.670013427734
1320.5845881,327.670013427734
1320.6002131,327.670013427734
1320.6158381,327.670013427734
1320.6314631,327.670013427734
1320.6470881,327.670013427734
1320.6627131,327.670013427734
1320.6783381,327.670013427734
1320.6939631,327.670013427734
1320.7095881,327.670013427734
1320.7252131,327.670013427734
1320.7408381,327.670013427734
1320.7564631,327.670013427734
1320.7720881,327.670013427734
1320.7877131,327.670013427734
1320.8033381,327.670013427734
1320.8189631,327.670013427734
1320.8345881,327.670013427734
1320.8502131,327.670013427734
1320.8658381,327.670013427734
1320.8814631,327.670013427734
1320.8970881,327.670013427734
1320.9127131,327.670013427734
1320.9283381,327.670013427734
1320.9439631,327.670013427734
1320.9595881,327.670013427734
1320.9752131,327.670013427734
1320.9908381,327.670013427734
1321.0064631,327.670013427734
1321.0220881,327.670013427734
1321.0377131,327.670013427734
1321.0533381,327.670013427734
1321.0689631,327.670013427734
1321.0845881,327.670013427734
1321.1002131,327.670013427734
1321.1158381,327.670013427734
1321.1314631,327.670013427734
1321.1470881,327.670013427734
1321.1627131,327.670013427734
1321.1783381,327.670013427734
1321.1939631,327.670013427734
1321.2095881,327.670013427734
1321.2252131,327.670013427734
1321.2408381,244.220001220703
1321.2564631,138.389999389648
1321.2720881,41.060001373291
1321.2877131,-46.8499984741211
1321.3033381,-127.98999786377
1321.3189631,-207.300003051758
1321.3345881,-288.859985351563
1321.3502131,-327.679992675781
1321.3658381,-327.679992675781
1321.3814631,-327.679992675781
1321.3970881,-327.679992675781
1321.4127131,-327.679992675781
1321.4283381,-327.679992675781
1321.4439631,-327.679992675781
1321.4595881,-327.679992675781
1321.4752131,-327.679992675781
1321.4908381,-327.679992675781
1321.5064631,-327.679992675781
1321.5220881,-327.679992675781
1321.5377131,-327.679992675781
1321.5533381,-327.679992675781
1321.5689631,-327.679992675781
1321.5845881,-327.679992675781
1321.6002131,-327.679992675781
1321.6158381,-327.679992675781
1321.6314631,-327.679992675781
1321.6470881,-327.679992675781
1321.6627131,-327.679992675781
1321.6783381,-327.679992675781
1321.6939631,-327.679992675781
1321.7095881,-327.679992675781
1321.7252131,-327.679992675781
1321.7408381,-327.679992675781
1321.7564631,-327.679992675781
1321.7720881,-327.679992675781
1321.7877131,-327.679992675781
1321.8033381,-327.679992675781
1321.8189631,-327.679992675781
1321.8345881,-327.679992675781
1321.8502131,-327.679992675781
1321.8658381,-327.679992675781
1321.8814631,-327.679992675781
1321.8970881,-327.679992675781
1321.9127131,-327.679992675781
1321.9283381,-327.679992675781
1321.9439631,-327.679992675781
1321.9595881,-327.679992675781
1321.9752131,-327.679992675781
1321.9908381,-327.679992675781
1322.0064631,-327.679992675781
1322.0220881,-327.679992675781
1322.0377131,-327.679992675781
1322.0533381,-327.679992675781
1322.0689631,-327.679992675781
1322.0845881,-327.679992675781
1322.1002131,-327.679992675781
1322.1158381,-327.679992675781
1322.1314631,-327.679992675781
1322.1470881,-327.679992675781
1322.1627131,-327.679992675781
1322.1783381,-327.679992675781
1322.1939631,-327.679992675781
1322.2095881,-327.679992675781
1322.2252131,-327.679992675781
1322.2408381,-327.679992675781
1322.2564631,-327.679992675781
1322.2720881,-327.679992675781
1322.2877131,-327.679992675781
1322.3033381,-327.679992675781
1322.3189631,-327.679992675781
1322.3345881,-327.679992675781
1322.3502131,-327.679992675781
1322.3658381,-327.679992675781
1322.3814631,-327.679992675781
1322.3970881,-327.679992675781
1322.4127131,-327.679992675781
1322.4283381,-327.679992675781
1322.4439631,-327.679992675781
1322.4595881,-327.679992675781
1322.4752131,-327.679992675781
1322.4908381,-327.679992675781
1322.5064631,-327.679992675781
1322.5220881,-327.679992675781
1322.5377131,-327.679992675781
1322.5533381,-327.679992675781
1322.5689631,-327.679992675781
1322.5845881,-327.679992675781
1322.6002131,-327.679992675781
1322.6158381,-327.679992675781
1322.6314631,-327.679992675781
1322.6470881,-327.679992675781
1322.6627131,-327.679992675781
1322.6783381,-327.679992675781
1322.6939631,-327.679992675781
1322.7095881,-327.679992675781
1322.7252131,-327.679992675781
1322.7408381,-327.679992675781
1322.7564631,-327.679992675781
1322.7720881,-327.679992675781
1322.7877131,-327.679992675781
1322.8033381,-303.529998779297
1322.8189631,-267.049987792969
1322.8345881,-232.0
1322.8502131,-198.279998779297
1322.8658381,-165.240005493164
1322.8814631,-131.759994506836
1322.8970881,-97.0
1322.9127131,-61.0400009155273
1322.9283381,-24.7000007629395
1322.9439631,11.2799997329712
1322.9595881,46.5999984741211
1322.9752131,81.2600021362305
1322.9908381,115.330001831055
1323.0064631,148.800003051758
1323.0220881,181.580001831055
1323.0377131,213.619995117188
1323.0533381,244.899993896484
1323.0689631,275.380004882813
1323.0845881,304.910003662109
1323.1002131,327.670013427734
1323.1158381,327.670013427734
1323.1314631,327.670013427734
1323.1470881,327.670013427734
1323.1627131,327.670013427734
1323.1783381,327.670013427734
1323.1939631,327.670013427734
1323.2095881,327.670013427734
1323.2252131,327.670013427734
1323.2408381,327.670013427734
1323.2564631,327.670013427734
1323.2720881,327.670013427734
1323.2877131,327.670013427734
1323.3033381,327.670013427734
1323.3189631,327.670013427734
1323.3345881,327.670013427734
1323.3502131,327.670013427734
1323.3658381,327.670013427734
1323.3814631,327.670013427734
1323.3970881,327.670013427734
1323.4127131,327.670013427734
1323.4283381,327.670013427734
1323.4439631,327.670013427734
1323.4595881,327.670013427734
1323.4752131,327.670013427734
1323.4908381,327.670013427734
1323.5064631,327.670013427734
1323.5220881,327.670013427734
1323.5377131,327.670013427734
1323.5533381,327.670013427734
1323.5689631,327.670013427734
1323.5845881,327.670013427734
1323.6002131,327.670013427734
1323.6158381,327.670013427734
1323.6314631,327.670013427734
1323.6470881,327.670013427734
1323.6627131,327.670013427734
1323.6783381,327.670013427734
1323.6939631,327.670013427734
1323.7095881,327.670013427734
1323.7252131,327.670013427734
1323.7408381,327.670013427734
1323.7564631,327.670013427734
1323.7720881,327.670013427734
1323.7877131,327.670013427734
1323.8033381,327.670013427734
1323.8189631,327.670013427734
1323.8345881,327.670013427734
1323.8502131,327.670013427734
1323.8658381,327.670013427734
1323.8814631,327.670013427734
1323.8970881,327.670013427734
1323.9127131,327.670013427734
1323.9283381,327.670013427734
1323.9439631,327.670013427734
1323.9595881,327.670013427734
1323.9752131,327.670013427734
1323.9908381,327.670013427734
1324.0064631,327.670013427734
1324.0220881,327.670013427734
1324.0377131,327.670013427734
1324.0533381,327.670013427734
1324.0689631,327.670013427734
1324.0845881,327.670013427734
1324.1002131,327.670013427734
1324.1158381,327.670013427734
1324.1314631,327.670013427734
1324.1470881,327.670013427734
1324.1627131,327.670013427734
1324.1783381,327.670013427734
1324.1939631,327.670013427734
1324.2095881,327.670013427734
1324.2252131,327.670013427734
1324.2408381,327.670013427734
1324.2564631,327.670013427734
1324.2720881,327.670013427734
