Time(s),Value(%)
915.0022828,-14.6800003051758
915.0179078,-14.2399997711182
915.0335328,-13.3999996185303
915.0491578,-12.25
915.0647828,-11.039999961853
915.0804078,-9.96000003814697
915.0960328,-9.0600004196167
915.1116578,-8.01000022888184
915.1272828,-5.90999984741211
915.1429078,-1.38999998569489
915.1585328,6.76000022888184
915.1741578,18.6499996185303
915.1897828,32.5499992370605
915.2054078,45.2799987792969
915.2210328,53.6599998474121
915.2366578,56.0400009155273
915.2522828,53.0200004577637
915.2679078,46.7000007629395
915.2835328,39.3499984741211
915.2991578,32.5299987792969
915.3147828,26.8700008392334
915.3304078,22.2700004577637
915.3460328,18.1100006103516
915.3616578,13.6499996185303
915.3772828,8.4399995803833
915.3929078,2.6800000667572
915.4085328,-2.71000003814697
915.4241578,-6.67999982833862
915.4397828,-8.47999954223633
915.4554078,-8.06999969482422
915.4710328,-6.09999990463257
915.4866578,-3.94000005722046
915.5022828,-3.17000007629395
915.5179078,-4.6100001335144
915.5335328,-7.84000015258789
915.5491578,-11.6199998855591
915.5647828,-14.9499998092651
915.5804078,-17.5699996948242
915.5960328,-19.6599998474121
915.6116578,-21.3799991607666
915.6272828,-22.8099994659424
915.6429078,-24.0100002288818
915.6585328,-25.0400009155273
915.6741578,-25.9500007629395
915.6897828,-26.5599994659424
915.7054078,-26.5499992370605
915.7210328,-25.8199996948242
915.7366578,-24.7399997711182
915.7522828,-23.8600006103516
915.7679078,-23.3500003814697
915.7835328,-22.9799995422363
915.7991578,-22.2999992370605
915.8147828,-21.0
915.8304078,-18.9200000762939
915.8460328,-16.2800006866455
915.8616578,-13.5600004196167
915.8772828,-11.2799997329712
915.8929078,-9.55000019073486
915.9085328,-8.11999988555908
915.9241578,-6.71999979019165
915.9397828,-5.23000001907349
915.9554078,-3.0699999332428
915.9710328,1.25999999046326
915.9866578,9.63000011444092
916.0022828,22.7000007629395
916.0179078,38.7900009155273
916.0335328,54.0800018310547
916.0491578,64.2799987792969
916.0647828,66.6999969482422
916.0804078,61.5099983215332
916.0960328,51.4199981689453
916.1116578,40.1199989318848
916.1272828,30.4300003051758
916.1429078,23.2199993133545
916.1585328,17.7099990844727
916.1741578,12.5799999237061
916.1897828,6.98999977111816
916.2054078,0.920000016689301
916.2210328,-5.01000022888184
916.2366578,-9.89000034332275
916.2522828,-12.9399995803833
916.2679078,-13.8999996185303
916.2835328,-13.0500001907349
916.2991578,-11.210000038147
916.3147828,-9.39999961853027
916.3304078,-8.48999977111816
916.3460328,-8.8100004196167
916.3616578,-10.0200004577637
916.3772828,-11.4499998092651
916.3929078,-12.5200004577637
916.4085328,-13.1099996566772
916.4241578,-13.5600004196167
916.4397828,-14.3800001144409
916.4554078,-15.7299995422363
916.4710328,-17.1800003051758
916.4866578,-18.0900001525879
916.5022828,-18.2399997711182
916.5179078,-18.0400009155273
916.5335328,-18.0400009155273
916.5491578,-18.3999996185303
916.5647828,-18.8899993896484
916.5804078,-19.1700000762939
916.5960328,-18.8500003814697
916.6116578,-17.5100002288818
916.6272828,-15.1899995803833
916.6429078,-12.5900001525879
916.6585328,-10.7700004577637
916.6741578,-10.1999998092651
916.6897828,-10.5600004196167
916.7054078,-11.0799999237061
916.7210328,-11.1300001144409
916.7366578,-10.5299997329712
916.7522828,-9.47000026702881
916.7679078,-8.35999965667725
916.7835328,-7.38000011444092
916.7991578,-5.78000020980835
916.8147828,-1.76999998092651
916.8304078,6.44999980926514
916.8460328,19.3199996948242
916.8616578,34.8899993896484
916.8772828,49.3800010681152
916.8929078,58.8400001525879
916.9085328,61.0999984741211
916.9241578,56.5900001525879
916.9397828,47.8400001525879
916.9554078,38.0400009155273
916.9710328,29.7999992370605
916.9866578,24.2999992370605
917.0022828,21.0499992370605
917.0179078,18.5499992370605
917.0335328,15.3999996185303
917.0491578,11.1400003433228
917.0647828,6.42000007629395
917.0804078,2.25
917.0960328,-0.579999983310699
917.1116578,-1.8400000333786
917.1272828,-1.86000001430511
917.1429078,-1.50999999046326
917.1585328,-1.77999997138977
917.1741578,-3.32999992370605
917.1897828,-6.17999982833862
917.2054078,-9.78999996185303
917.2210328,-13.4799995422363
917.2366578,-16.7800006866455
917.2522828,-19.5
917.2679078,-21.6000003814697
917.2835328,-23.2199993133545
917.2991578,-24.5499992370605
917.3147828,-25.6200008392334
917.3304078,-26.3400001525879
917.3460328,-26.7199993133545
917.3616578,-26.8899993896484
917.3772828,-26.7600002288818
917.3929078,-25.9899997711182
917.4085328,-24.3700008392334
917.4241578,-22.0100002288818
917.4397828,-19.2299995422363
917.4554078,-16.3799991607666
917.4710328,-13.7799997329712
917.4866578,-11.7700004577637
917.5022828,-10.6400003433228
917.5179078,-10.4700002670288
917.5335328,-11.0799999237061
917.5491578,-12.1099996566772
917.5647828,-13.2600002288818
917.5804078,-14.289999961853
917.5960328,-14.7799997329712
917.6116578,-13.8699998855591
917.6272828,-10.3900003433228
917.6429078,-3.26999998092651
917.6585328,7.94000005722046
917.6741578,22.5900001525879
917.6897828,38.3800010681152
917.7054078,51.9000015258789
917.7210328,59.9300003051758
917.7366578,60.9099998474121
917.7522828,55.6300010681152
917.7679078,46.6699981689453
917.7835328,37.0499992370605
917.7991578,28.8899993896484
917.8147828,22.7800006866455
917.8304078,18.0300006866455
917.8460328,13.4300003051758
917.8616578,8.05000019073486
917.8772828,1.91999995708466
917.8929078,-3.89000010490417
917.9085328,-8.02000045776367
917.9241578,-9.78999996185303
917.9397828,-9.40999984741211
917.9554078,-7.59000015258789
917.9710328,-5.1399998664856
917.9866578,-2.91000008583069
918.0022828,-1.83000004291534
918.0179078,-2.65000009536743
918.0335328,-5.46999979019165
918.0491578,-9.56999969482422
918.0647828,-13.8800001144409
918.0804078,-17.5400009155273
918.0960328,-20.1100006103516
918.1116578,-21.4500007629395
918.1272828,-21.6399993896484
918.1429078,-21.0599994659424
918.1585328,-20.3199996948242
918.1741578,-19.8099994659424
918.1897828,-19.5499992370605
918.2054078,-19.4500007629395
918.2210328,-19.6499996185303
918.2366578,-20.2999992370605
918.2522828,-21.2399997711182
918.2679078,-22.0200004577637
918.2835328,-22.1200008392334
918.2991578,-21.1599998474121
918.3147828,-19.0200004577637
918.3304078,-15.9099998474121
918.3460328,-12.3299999237061
918.3616578,-9.03999996185303
918.3772828,-6.65999984741211
918.3929078,-5.40000009536743
918.4085328,-4.8899998664856
918.4241578,-4.55999994277954
918.4397828,-3.84999990463257
918.4554078,-2.10999989509583
918.4710328,1.75
918.4866578,9.22000026702881
918.5022828,20.9699993133545
918.5179078,35.7299995422363
918.5335328,50.4500007629395
918.5491578,61.5800018310547
918.5647828,66.620002746582
918.5804078,65.1399993896484
918.5960328,58.689998626709
918.6116578,49.7700004577637
918.6272828,40.689998626709
918.6429078,32.6800003051758
918.6585328,25.8799991607666
918.6741578,19.9300003051758
918.6897828,14.4700002670288
918.7054078,9.43000030517578
918.7210328,4.86999988555908
918.7366578,0.860000014305115
918.7522828,-2.53999996185303
918.7679078,-5.32000017166138
918.7835328,-7.48000001907349
918.7991578,-8.98999977111816
918.8147828,-9.68000030517578
918.8304078,-9.46000003814697
918.8460328,-8.8100004196167
918.8616578,-8.6899995803833
918.8772828,-9.77000045776367
918.8929078,-11.6099996566772
918.9085328,-13.1099996566772
918.9241578,-13.6400003433228
918.9397828,-13.7799997329712
918.9554078,-14.6899995803833
918.9710328,-17.0200004577637
918.9866578,-20.3700008392334
919.0022828,-23.7399997711182
919.0179078,-26.2399997711182
919.0335328,-27.4200000762939
919.0491578,-27.1900005340576
919.0647828,-25.8899993896484
919.0804078,-24.2399997711182
919.0960328,-22.9300003051758
919.1116578,-22.0499992370605
919.1272828,-21.0900001525879
919.1429078,-19.3999996185303
919.1585328,-16.8500003814697
919.1741578,-13.8500003814697
919.1897828,-11.039999961853
919.2054078,-9.18000030517578
919.2210328,-8.85999965667725
919.2366578,-10.0699996948242
919.2522828,-11.9700002670288
919.2679078,-13.25
919.2835328,-12.5299997329712
919.2991578,-8.61999988555908
919.3147828,-0.620000004768372
919.3304078,11.6199998855591
919.3460328,26.8099994659424
919.3616578,42.0400009155273
919.3772828,54.0099983215332
919.3929078,60.3800010681152
919.4085328,60.560001373291
919.4241578,55.5400009155273
919.4397828,47.2400016784668
919.4554078,37.7099990844727
919.4710328,28.6200008392334
919.4866578,20.8299999237061
919.5022828,14.3299999237061
919.5179078,8.47000026702881
919.5335328,2.5699999332428
919.5491578,-3.30999994277954
919.5647828,-8.39999961853027
919.5804078,-11.8000001907349
919.5960328,-13.0900001525879
919.6116578,-12.3900003433228
919.6272828,-10.25
919.6429078,-7.69999980926514
919.6585328,-5.84999990463257
919.6741578,-5.21999979019165
919.6897828,-5.55000019073486
919.7054078,-6.25
919.7210328,-7.03000020980835
919.7366578,-8.10999965667725
919.7522828,-9.90999984741211
919.7679078,-12.5100002288818
919.7835328,-15.4200000762939
919.7991578,-17.8700008392334
919.8147828,-19.5300006866455
919.8304078,-20.5900001525879
919.8460328,-21.3999996185303
919.8616578,-22.2299995422363
919.8772828,-23.25
919.8929078,-24.4699993133545
919.9085328,-25.5100002288818
919.9241578,-25.7199993133545
919.9397828,-24.5699996948242
919.9554078,-21.9799995422363
919.9710328,-18.4200000762939
919.9866578,-14.7700004577637
920.0022828,-11.9399995803833
920.0179078,-10.3699998855591
920.0335328,-9.97999954223633
920.0491578,-10.1700000762939
920.0647828,-9.92000007629395
920.0804078,-7.75
920.0960328,-1.98000001907349
920.1116578,8.39000034332275
920.1272828,22.6299991607666
920.1429078,38.0099983215332
920.1585328,51.0200004577637
920.1741578,59.0499992370605
920.1897828,61.3499984741211
920.2054078,58.7299995422363
920.2210328,52.7599983215332
920.2366578,45.060001373291
920.2522828,36.939998626709
920.2679078,29.1399993896484
920.2835328,21.8700008392334
920.2991578,15.0600004196167
920.3147828,8.61999988555908
920.3304078,2.58999991416931
920.3460328,-2.65000009536743
920.3616578,-6.40999984741211
920.3772828,-8.05000019073486
920.3929078,-7.65999984741211
920.4085328,-6.15000009536743
920.4241578,-4.69000005722046
920.4397828,-4.1100001335144
920.4554078,-4.6100001335144
920.4710328,-5.92999982833862
920.4866578,-7.6399998664856
920.5022828,-9.40999984741211
920.5179078,-11.0900001525879
920.5335328,-12.6099996566772
920.5491578,-13.9200000762939
920.5647828,-15.0600004196167
920.5804078,-16.2399997711182
920.5960328,-17.4899997711182
920.6116578,-18.5300006866455
920.6272828,-19.1200008392334
920.6429078,-19.5100002288818
920.6585328,-20.2399997711182
920.6741578,-21.4200000762939
920.6897828,-22.3999996185303
920.7054078,-22.3600006103516
920.7210328,-21.1100006103516
920.7366578,-19.1299991607666
920.7522828,-17.0799999237061
920.7679078,-15.3199996948242
920.7835328,-14.0299997329712
920.7991578,-13.4899997711182
920.8147828,-13.9499998092651
920.8304078,-15.1999998092651
920.8460328,-16.3899993896484
920.8616578,-16.3999996185303
920.8772828,-14.3299999237061
920.8929078,-9.8100004196167
920.9085328,-2.8199999332428
920.9241578,6.55999994277954
920.9397828,18.1100006103516
920.9554078,30.9799995422363
920.9710328,43.4000015258789
920.9866578,53.060001373291
921.0022828,57.9900016784668
921.0179078,57.5
921.0335328,52.5200004577637
921.0491578,45.0200004577637
921.0647828,37.0999984741211
921.0804078,29.9599990844727
921.0960328,23.75
921.1116578,17.9699993133545
921.1272828,12.0699996948242
921.1429078,5.94999980926514
921.1585328,0.0
921.1741578,-5.19000005722046
921.1897828,-9.21000003814697
921.2054078,-12.3299999237061
921.2210328,-15.8500003814697
921.2366578,-21.3799991607666
921.2522828,-28.5200004577637
921.2679078,-33.7200012207031
921.2835328,-32.4799995422363
921.2991578,-23.2800006866455
921.3147828,-9.13000011444092
921.3304078,4.38000011444092
921.3460328,12.3800001144409
921.3616578,12.6300001144409
921.3772828,6.0
921.3929078,-4.32000017166138
921.4085328,-14.4700002670288
921.4241578,-21.5799999237061
921.4397828,-24.9699993133545
921.4554078,-25.6599998474121
921.4710328,-25.1399993896484
921.4866578,-24.2399997711182
921.5022828,-23.0799999237061
921.5179078,-21.7099990844727
921.5335328,-20.4799995422363
921.5491578,-19.6900005340576
921.5647828,-19.0900001525879
921.5804078,-18.1499996185303
921.5960328,-16.5900001525879
921.6116578,-14.6899995803833
921.6272828,-12.9899997711182
921.6429078,-11.8599996566772
921.6585328,-11.2600002288818
921.6741578,-10.75
921.6897828,-9.64999961853027
921.7054078,-7.19000005722046
921.7210328,-2.41000008583069
921.7366578,5.73000001907349
921.7522828,17.6700000762939
921.7679078,32.3199996948242
921.7835328,46.8800010681152
921.7991578,57.7799987792969
921.8147828,62.4599990844727
921.8304078,60.4900016784668
921.8460328,53.4300003051758
921.8616578,43.7000007629395
921.8772828,33.6100006103516
921.8929078,24.7600002288818
921.9085328,17.9300003051758
921.9241578,13.1199998855591
921.9397828,9.60999965667725
921.9554078,6.28000020980835
921.9710328,2.30999994277954
921.9866578,-2.15000009536743
922.0022828,-6.19999980926514
922.0179078,-8.85000038146973
922.0335328,-9.68000030517578
922.0491578,-8.89999961853027
922.0647828,-7.30999994277954
922.0804078,-6.03999996185303
922.0960328,-5.90000009536743
922.1116578,-7.05999994277954
922.1272828,-9.14999961853027
922.1429078,-11.6099996566772
922.1585328,-13.9899997711182
922.1741578,-16.0799999237061
922.1897828,-17.8700008392334
922.2054078,-19.4899997711182
922.2210328,-21.0599994659424
922.2366578,-22.6900005340576
922.2522828,-24.3400001525879
922.2679078,-25.5599994659424
922.2835328,-25.7399997711182
922.2991578,-24.7800006866455
922.3147828,-23.3199996948242
922.3304078,-22.2600002288818
922.3460328,-21.9500007629395
922.3616578,-22.0799999237061
922.3772828,-22.0599994659424
922.3929078,-21.3999996185303
922.4085328,-20.0200004577637
922.4241578,-18.1900005340576
922.4397828,-16.3199996948242
922.4554078,-14.710000038147
922.4710328,-13.4499998092651
922.4866578,-12.3900003433228
922.5022828,-11.2600002288818
922.5179078,-9.47000026702881
922.5335328,-5.86999988555908
922.5491578,1.13999998569489
922.5647828,12.6700000762939
922.5804078,27.9799995422363
922.5960328,44.2299995422363
922.6116578,57.6300010681152
922.6272828,65.1900024414063
922.6429078,65.8899993896484
922.6585328,60.689998626709
922.6741578,51.75
922.6897828,41.2900009155273
922.7054078,31.0200004577637
922.7210328,21.9799995422363
922.7366578,14.8000001907349
922.7522828,9.69999980926514
922.7679078,6.42999982833862
922.7835328,4.42000007629395
922.7991578,3.03999996185303
922.8147828,2.05999994277954
922.8304078,1.52999997138977
922.8460328,1.47000002861023
922.8616578,1.50999999046326
922.8772828,0.939999997615814
922.8929078,-0.730000019073486
922.9085328,-3.40000009536743
922.9241578,-6.3600001335144
922.9397828,-8.94999980926514
922.9554078,-11.039999961853
922.9710328,-12.8000001907349
922.9866578,-14.25
923.0022828,-15.5
923.0179078,-17.0499992370605
923.0335328,-19.5799999237061
923.0491578,-23.1299991607666
923.0647828,-26.6700000762939
923.0804078,-28.6000003814697
923.0960328,-27.8600006103516
923.1116578,-24.8199996948242
923.1272828,-21.0499992370605
923.1429078,-18.2900009155273
923.1585328,-17.3600006103516
923.1741578,-17.7700004577637
923.1897828,-18.2099990844727
923.2054078,-17.4200000762939
923.2210328,-14.8900003433228
923.2366578,-11.039999961853
923.2522828,-7.03999996185303
923.2679078,-4.1399998664856
923.2835328,-2.9300000667572
923.2991578,-3.15000009536743
923.3147828,-4.21999979019165
923.3304078,-5.76999998092651
923.3460328,-7.48999977111816
923.3616578,-8.44999980926514
923.3772828,-6.73000001907349
923.3929078,-0.209999993443489
923.4085328,11.9399995803833
923.4241578,28.1399993896484
923.4397828,44.7799987792969
923.4554078,57.8199996948242
923.4710328,64.7200012207031
923.4866578,65.3000030517578
923.5022828,61.2000007629395
923.5179078,54.5299987792969
923.5335328,46.75
923.5491578,38.4000015258789
923.5647828,29.6800003051758
923.5804078,20.8999996185303
923.5960328,12.5
923.6116578,5.03000020980835
923.6272828,-0.800000011920929
923.6429078,-4.46000003814697
923.6585328,-5.94999980926514
923.6741578,-5.84999990463257
923.6897828,-4.92000007629395
923.7054078,-4.03000020980835
923.7210328,-3.96000003814697
923.7366578,-5.03000020980835
923.7522828,-6.76999998092651
923.7679078,-8.26000022888184
923.7835328,-9.01000022888184
923.7991578,-9.25
923.8147828,-9.72000026702881
923.8304078,-11.0500001907349
923.8460328,-13.5500001907349
923.8616578,-17.1499996185303
923.8772828,-21.4599990844727
923.8929078,-25.8199996948242
923.9085328,-29.4699993133545
923.9241578,-31.9699993133545
923.9397828,-33.4900016784668
923.9554078,-34.4900016784668
923.9710328,-35.2400016784668
923.9866578,-35.7000007629395
924.0022828,-35.7999992370605
924.0179078,-35.439998626709
924.0335328,-34.4099998474121
924.0491578,-32.2799987792969
924.0647828,-28.8600006103516
924.0804078,-24.5499992370605
924.0960328,-20.3799991607666
924.1116578,-17.4799995422363
924.1272828,-16.3400001525879
924.1429078,-16.4500007629395
924.1585328,-16.6200008392334
924.1741578,-15.5600004196167
924.1897828,-12.6099996566772
924.2054078,-7.71999979019165
924.2210328,-0.819999992847443
924.2366578,8.42000007629395
924.2522828,20.1200008392334
924.2679078,33.3800010681152
924.2835328,46.0999984741211
924.2991578,55.6699981689453
924.3147828,60.1100006103516
924.3304078,58.9500007629395
924.3460328,53.2799987792969
924.3616578,45.1800003051758
924.3772828,36.8699989318848
924.3929078,29.9099998474121
924.4085328,24.8099994659424
924.4241578,21.1000003814697
924.4397828,17.6599998474121
924.4554078,13.4700002670288
924.4710328,8.22999954223633
924.4866578,2.61999988555908
924.5022828,-2.10999989509583
924.5179078,-4.90999984741211
924.5335328,-5.55000019073486
924.5491578,-4.69999980926514
924.5647828,-3.44000005722046
924.5804078,-2.80999994277954
924.5960328,-3.34999990463257
924.6116578,-5.03999996185303
924.6272828,-7.42999982833862
924.6429078,-10.039999961853
924.6585328,-12.5100002288818
924.6741578,-14.6400003433228
924.6897828,-16.2600002288818
924.7054078,-17.1800003051758
924.7210328,-17.3999996185303
924.7366578,-17.3899993896484
924.7522828,-17.7199993133545
924.7679078,-18.6000003814697
924.7835328,-19.7900009155273
924.7991578,-21.1299991607666
924.8147828,-22.5499992370605
924.8304078,-23.7600002288818
924.8460328,-24.1299991607666
924.8616578,-23.1399993896484
924.8772828,-21.0200004577637
924.8929078,-18.6800003051758
924.9085328,-16.9899997711182
924.9241578,-16.1800003051758
924.9397828,-15.7399997711182
924.9554078,-14.9399995803833
924.9710328,-13.289999961853
924.9866578,-10.75
925.0022828,-7.65999984741211
925.0179078,-4.26000022888184
925.0335328,0.0500000007450581
925.0491578,6.65000009536743
925.0647828,16.4200000762939
925.0804078,28.5699996948242
925.0960328,40.6500015258789
925.1116578,49.7599983215332
925.1272828,54.189998626709
925.1429078,54.1300010681152
925.1585328,51.2999992370605
925.1741578,47.6599998474121
925.1897828,44.2099990844727
925.2054078,40.8199996948242
925.2210328,36.75
925.2366578,31.2900009155273
925.2522828,24.3099994659424
925.2679078,16.6499996185303
925.2835328,9.76000022888184
925.2991578,4.78000020980835
925.3147828,1.87000000476837
925.3304078,0.370000004768372
925.3460328,-0.550000011920929
925.3616578,-1.45000004768372
925.3772828,-2.72000002861023
925.3929078,-4.63000011444092
925.4085328,-7.28999996185303
925.4241578,-10.5
925.4397828,-13.8199996948242
925.4554078,-16.8099994659424
925.4710328,-19.0900001525879
925.4866578,-20.5499992370605
925.5022828,-21.3799991607666
925.5179078,-22.0
925.5335328,-22.6499996185303
925.5491578,-23.1700000762939
925.5647828,-23.25
925.5804078,-22.7399997711182
925.5960328,-21.7999992370605
925.6116578,-20.6800003051758
925.6272828,-19.5300006866455
925.6429078,-18.4699993133545
925.6585328,-17.8500003814697
925.6741578,-18.1000003814697
