Time(s),Value(μS)
915.0022828,0.819000005722046
915.0179078,0.819000005722046
915.0335328,0.819999992847443
915.0491578,0.819999992847443
915.0647828,0.820999979972839
915.0804078,0.820999979972839
915.0960328,0.822000026702881
915.1116578,0.822000026702881
915.1272828,0.823000013828278
915.1429078,0.824000000953674
915.1585328,0.824000000953674
915.1741578,0.824999988079071
915.1897828,0.825999975204468
915.2054078,0.827000021934509
915.2210328,0.828000009059906
915.2366578,0.828999996185303
915.2522828,0.829999983310699
915.2679078,0.832000017166138
915.2835328,0.833000004291534
915.2991578,0.834999978542328
915.3147828,0.836000025272369
915.3304078,0.837999999523163
915.3460328,0.839999973773956
915.3616578,0.842000007629395
915.3772828,0.843999981880188
915.3929078,0.847000002861023
915.4085328,0.848999977111816
915.4241578,0.851000010967255
915.4397828,0.853999972343445
915.4554078,0.856000006198883
915.4710328,0.859000027179718
915.4866578,0.861999988555908
915.5022828,0.864000022411346
915.5179078,0.866999983787537
915.5335328,0.870000004768372
915.5491578,0.873000025749207
915.5647828,0.875999987125397
915.5804078,0.878000020980835
915.5960328,0.880999982357025
915.6116578,0.88400000333786
915.6272828,0.887000024318695
915.6429078,0.889999985694885
915.6585328,0.892000019550323
915.6741578,0.894999980926514
915.6897828,0.898000001907349
915.7054078,0.899999976158142
915.7210328,0.902999997138977
915.7366578,0.904999971389771
915.7522828,0.907999992370605
915.7679078,0.910000026226044
915.7835328,0.912000000476837
915.7991578,0.913999974727631
915.8147828,0.916000008583069
915.8304078,0.917999982833862
915.8460328,0.920000016689301
915.8616578,0.921999990940094
915.8772828,0.924000024795532
915.8929078,0.925000011920929
915.9085328,0.926999986171722
915.9241578,0.929000020027161
915.9397828,0.930000007152557
915.9554078,0.931999981403351
915.9710328,0.934000015258789
915.9866578,0.935000002384186
916.0022828,0.936999976634979
916.0179078,0.938000023365021
916.0335328,0.939000010490417
916.0491578,0.940999984741211
916.0647828,0.941999971866608
916.0804078,0.943000018596649
916.0960328,0.944000005722046
916.1116578,0.944999992847443
916.1272828,0.945999979972839
916.1429078,0.947000026702881
916.1585328,0.947000026702881
916.1741578,0.948000013828278
916.1897828,0.949000000953674
916.2054078,0.949999988079071
916.2210328,0.949999988079071
916.2366578,0.950999975204468
916.2522828,0.950999975204468
916.2679078,0.952000021934509
916.2835328,0.952000021934509
916.2991578,0.953000009059906
916.3147828,0.953000009059906
916.3304078,0.953999996185303
916.3460328,0.953999996185303
916.3616578,0.954999983310699
916.3772828,0.954999983310699
916.3929078,0.955999970436096
916.4085328,0.955999970436096
916.4241578,0.957000017166138
916.4397828,0.958000004291534
916.4554078,0.958000004291534
916.4710328,0.958999991416931
916.4866578,0.959999978542328
916.5022828,0.959999978542328
916.5179078,0.959999978542328
916.5335328,0.959999978542328
916.5491578,0.961000025272369
916.5647828,0.961000025272369
916.5804078,0.961000025272369
916.5960328,0.961000025272369
916.6116578,0.962000012397766
916.6272828,0.962000012397766
916.6429078,0.962000012397766
916.6585328,0.962999999523163
916.6741578,0.962999999523163
916.6897828,0.96399998664856
916.7054078,0.96399998664856
916.7210328,0.96399998664856
916.7366578,0.964999973773956
916.7522828,0.964999973773956
916.7679078,0.966000020503998
916.7835328,0.966000020503998
916.7991578,0.967000007629395
916.8147828,0.967000007629395
916.8304078,0.967999994754791
916.8460328,0.967999994754791
916.8616578,0.968999981880188
916.8772828,0.970000028610229
916.8929078,0.970000028610229
916.9085328,0.971000015735626
916.9241578,0.971000015735626
916.9397828,0.972000002861023
916.9554078,0.972000002861023
916.9710328,0.972000002861023
916.9866578,0.972000002861023
917.0022828,0.972000002861023
917.0179078,0.972000002861023
917.0335328,0.972000002861023
917.0491578,0.971000015735626
917.0647828,0.971000015735626
917.0804078,0.971000015735626
917.0960328,0.970000028610229
917.1116578,0.970000028610229
917.1272828,0.970000028610229
917.1429078,0.970000028610229
917.1585328,0.968999981880188
917.1741578,0.968999981880188
917.1897828,0.968999981880188
917.2054078,0.968999981880188
917.2210328,0.968999981880188
917.2366578,0.968999981880188
917.2522828,0.968999981880188
917.2679078,0.968999981880188
917.2835328,0.967999994754791
917.2991578,0.967999994754791
917.3147828,0.967999994754791
917.3304078,0.967000007629395
917.3460328,0.967000007629395
917.3616578,0.967000007629395
917.3772828,0.966000020503998
917.3929078,0.966000020503998
917.4085328,0.966000020503998
917.4241578,0.964999973773956
917.4397828,0.964999973773956
917.4554078,0.964999973773956
917.4710328,0.964999973773956
917.4866578,0.96399998664856
917.5022828,0.96399998664856
917.5179078,0.96399998664856
917.5335328,0.96399998664856
917.5491578,0.96399998664856
917.5647828,0.96399998664856
917.5804078,0.96399998664856
917.5960328,0.964999973773956
917.6116578,0.964999973773956
917.6272828,0.964999973773956
917.6429078,0.964999973773956
917.6585328,0.964999973773956
917.6741578,0.964999973773956
917.6897828,0.964999973773956
917.7054078,0.964999973773956
917.7210328,0.964999973773956
917.7366578,0.964999973773956
917.7522828,0.964999973773956
917.7679078,0.964999973773956
917.7835328,0.966000020503998
917.7991578,0.966000020503998
917.8147828,0.966000020503998
917.8304078,0.966000020503998
917.8460328,0.964999973773956
917.8616578,0.964999973773956
917.8772828,0.964999973773956
917.8929078,0.96399998664856
917.9085328,0.962999999523163
917.9241578,0.962999999523163
917.9397828,0.962000012397766
917.9554078,0.962000012397766
917.9710328,0.961000025272369
917.9866578,0.959999978542328
918.0022828,0.959999978542328
918.0179078,0.958999991416931
918.0335328,0.958000004291534
918.0491578,0.958000004291534
918.0647828,0.957000017166138
918.0804078,0.957000017166138
918.0960328,0.955999970436096
918.1116578,0.955999970436096
918.1272828,0.954999983310699
918.1429078,0.954999983310699
918.1585328,0.954999983310699
918.1741578,0.953999996185303
918.1897828,0.953999996185303
918.2054078,0.953000009059906
918.2210328,0.953000009059906
918.2366578,0.952000021934509
918.2522828,0.952000021934509
918.2679078,0.952000021934509
918.2835328,0.952000021934509
918.2991578,0.952000021934509
918.3147828,0.952000021934509
918.3304078,0.952000021934509
918.3460328,0.950999975204468
918.3616578,0.952000021934509
918.3772828,0.952000021934509
918.3929078,0.952000021934509
918.4085328,0.952000021934509
918.4241578,0.952000021934509
918.4397828,0.953000009059906
918.4554078,0.953000009059906
918.4710328,0.953999996185303
918.4866578,0.953999996185303
918.5022828,0.954999983310699
918.5179078,0.954999983310699
918.5335328,0.955999970436096
918.5491578,0.957000017166138
918.5647828,0.958000004291534
918.5804078,0.958000004291534
918.5960328,0.958999991416931
918.6116578,0.959999978542328
918.6272828,0.961000025272369
918.6429078,0.962000012397766
918.6585328,0.962999999523163
918.6741578,0.96399998664856
918.6897828,0.964999973773956
918.7054078,0.964999973773956
918.7210328,0.966000020503998
918.7366578,0.967000007629395
918.7522828,0.967999994754791
918.7679078,0.968999981880188
918.7835328,0.970000028610229
918.7991578,0.971000015735626
918.8147828,0.972000002861023
918.8304078,0.972000002861023
918.8460328,0.97299998998642
918.8616578,0.973999977111816
918.8772828,0.975000023841858
918.8929078,0.975000023841858
918.9085328,0.976000010967255
918.9241578,0.976999998092651
918.9397828,0.976999998092651
918.9554078,0.977999985218048
918.9710328,0.977999985218048
918.9866578,0.978999972343445
919.0022828,0.978999972343445
919.0179078,0.978999972343445
919.0335328,0.980000019073486
919.0491578,0.980000019073486
919.0647828,0.980000019073486
919.0804078,0.981000006198883
919.0960328,0.981000006198883
919.1116578,0.981000006198883
919.1272828,0.981000006198883
919.1429078,0.98199999332428
919.1585328,0.98199999332428
919.1741578,0.98199999332428
919.1897828,0.98199999332428
919.2054078,0.982999980449677
919.2210328,0.982999980449677
919.2366578,0.982999980449677
919.2522828,0.982999980449677
919.2679078,0.982999980449677
919.2835328,0.984000027179718
919.2991578,0.984000027179718
919.3147828,0.984000027179718
919.3304078,0.984000027179718
919.3460328,0.984000027179718
919.3616578,0.984000027179718
919.3772828,0.984000027179718
919.3929078,0.984000027179718
919.4085328,0.984000027179718
919.4241578,0.984000027179718
919.4397828,0.984000027179718
919.4554078,0.984000027179718
919.4710328,0.984000027179718
919.4866578,0.984000027179718
919.5022828,0.984000027179718
919.5179078,0.982999980449677
919.5335328,0.982999980449677
919.5491578,0.982999980449677
919.5647828,0.982999980449677
919.5804078,0.982999980449677
919.5960328,0.982999980449677
919.6116578,0.982999980449677
919.6272828,0.98199999332428
919.6429078,0.98199999332428
919.6585328,0.98199999332428
919.6741578,0.98199999332428
919.6897828,0.98199999332428
919.7054078,0.98199999332428
919.7210328,0.98199999332428
919.7366578,0.98199999332428
919.7522828,0.98199999332428
919.7679078,0.98199999332428
919.7835328,0.98199999332428
919.7991578,0.98199999332428
919.8147828,0.98199999332428
919.8304078,0.98199999332428
919.8460328,0.98199999332428
919.8616578,0.98199999332428
919.8772828,0.98199999332428
919.8929078,0.98199999332428
919.9085328,0.98199999332428
919.9241578,0.982999980449677
919.9397828,0.982999980449677
919.9554078,0.982999980449677
919.9710328,0.982999980449677
919.9866578,0.982999980449677
920.0022828,0.982999980449677
920.0179078,0.982999980449677
920.0335328,0.984000027179718
920.0491578,0.984000027179718
920.0647828,0.984000027179718
920.0804078,0.984000027179718
920.0960328,0.985000014305115
920.1116578,0.985000014305115
920.1272828,0.985000014305115
920.1429078,0.985000014305115
920.1585328,0.985000014305115
920.1741578,0.985000014305115
920.1897828,0.985000014305115
920.2054078,0.986000001430511
920.2210328,0.986000001430511
920.2366578,0.986000001430511
920.2522828,0.986000001430511
920.2679078,0.986000001430511
920.2835328,0.986000001430511
920.2991578,0.986000001430511
920.3147828,0.986000001430511
920.3304078,0.986000001430511
920.3460328,0.986000001430511
920.3616578,0.986000001430511
920.3772828,0.986000001430511
920.3929078,0.985000014305115
920.4085328,0.985000014305115
920.4241578,0.985000014305115
920.4397828,0.985000014305115
920.4554078,0.985000014305115
920.4710328,0.984000027179718
920.4866578,0.984000027179718
920.5022828,0.984000027179718
920.5179078,0.984000027179718
920.5335328,0.982999980449677
920.5491578,0.982999980449677
920.5647828,0.982999980449677
920.5804078,0.982999980449677
920.5960328,0.98199999332428
920.6116578,0.98199999332428
920.6272828,0.98199999332428
920.6429078,0.981000006198883
920.6585328,0.981000006198883
920.6741578,0.981000006198883
920.6897828,0.980000019073486
920.7054078,0.980000019073486
920.7210328,0.980000019073486
920.7366578,0.978999972343445
920.7522828,0.978999972343445
920.7679078,0.978999972343445
920.7835328,0.977999985218048
920.7991578,0.977999985218048
920.8147828,0.977999985218048
920.8304078,0.976999998092651
920.8460328,0.976999998092651
920.8616578,0.976999998092651
920.8772828,0.976999998092651
920.8929078,0.976999998092651
920.9085328,0.976999998092651
920.9241578,0.976999998092651
920.9397828,0.976999998092651
920.9554078,0.976999998092651
920.9710328,0.976999998092651
920.9866578,0.976999998092651
921.0022828,0.976999998092651
921.0179078,0.976999998092651
921.0335328,0.977999985218048
921.0491578,0.977999985218048
921.0647828,0.978999972343445
921.0804078,0.978999972343445
921.0960328,0.978999972343445
921.1116578,0.980000019073486
921.1272828,0.980000019073486
921.1429078,0.981000006198883
921.1585328,0.981000006198883
921.1741578,0.98199999332428
921.1897828,0.982999980449677
921.2054078,0.984000027179718
921.2210328,0.984000027179718
921.2366578,0.985000014305115
921.2522828,0.986000001430511
921.2679078,0.986999988555908
921.2835328,0.987999975681305
921.2991578,0.989000022411346
921.3147828,0.990000009536743
921.3304078,0.99099999666214
921.3460328,0.991999983787537
921.3616578,0.992999970912933
921.3772828,0.994000017642975
921.3929078,0.994000017642975
921.4085328,0.995000004768372
921.4241578,0.995999991893768
921.4397828,0.996999979019165
921.4554078,0.996999979019165
921.4710328,0.998000025749207
921.4866578,0.998000025749207
921.5022828,0.999000012874603
921.5179078,1.0
921.5335328,1.0
921.5491578,1.00100004673004
921.5647828,1.00199997425079
921.5804078,1.00199997425079
921.5960328,1.00300002098083
921.6116578,1.00300002098083
921.6272828,1.00399994850159
921.6429078,1.00399994850159
921.6585328,1.00499999523163
921.6741578,1.00600004196167
921.6897828,1.00600004196167
921.7054078,1.00699996948242
921.7210328,1.00699996948242
921.7366578,1.00800001621246
921.7522828,1.00800001621246
921.7679078,1.00899994373322
921.7835328,1.00899994373322
921.7991578,1.00899994373322
921.8147828,1.00999999046326
921.8304078,1.00999999046326
921.8460328,1.0110000371933
921.8616578,1.0110000371933
921.8772828,1.01199996471405
921.8929078,1.01199996471405
921.9085328,1.01199996471405
921.9241578,1.01300001144409
921.9397828,1.01300001144409
921.9554078,1.01300001144409
921.9710328,1.01300001144409
921.9866578,1.01300001144409
922.0022828,1.01300001144409
922.0179078,1.01400005817413
922.0335328,1.01400005817413
922.0491578,1.01400005817413
922.0647828,1.01400005817413
922.0804078,1.01400005817413
922.0960328,1.01400005817413
922.1116578,1.01400005817413
922.1272828,1.01400005817413
922.1429078,1.01400005817413
922.1585328,1.01400005817413
922.1741578,1.01300001144409
922.1897828,1.01300001144409
922.2054078,1.01300001144409
922.2210328,1.01300001144409
922.2366578,1.01300001144409
922.2522828,1.01300001144409
922.2679078,1.01300001144409
922.2835328,1.01300001144409
922.2991578,1.01300001144409
922.3147828,1.01199996471405
922.3304078,1.01199996471405
922.3460328,1.01199996471405
922.3616578,1.0110000371933
922.3772828,1.0110000371933
922.3929078,1.0110000371933
922.4085328,1.00999999046326
922.4241578,1.00999999046326
922.4397828,1.00899994373322
922.4554078,1.00800001621246
922.4710328,1.00800001621246
922.4866578,1.00699996948242
922.5022828,1.00699996948242
922.5179078,1.00699996948242
922.5335328,1.00600004196167
922.5491578,1.00600004196167
922.5647828,1.00499999523163
922.5804078,1.00399994850159
922.5960328,1.00399994850159
922.6116578,1.00300002098083
922.6272828,1.00300002098083
922.6429078,1.00199997425079
922.6585328,1.00100004673004
922.6741578,1.00100004673004
922.6897828,1.0
922.7054078,0.999000012874603
922.7210328,0.999000012874603
922.7366578,0.998000025749207
922.7522828,0.996999979019165
922.7679078,0.995999991893768
922.7835328,0.995999991893768
922.7991578,0.995000004768372
922.8147828,0.994000017642975
922.8304078,0.992999970912933
922.8460328,0.992999970912933
922.8616578,0.991999983787537
922.8772828,0.99099999666214
922.8929078,0.99099999666214
922.9085328,0.990000009536743
922.9241578,0.990000009536743
922.9397828,0.989000022411346
922.9554078,0.989000022411346
922.9710328,0.989000022411346
922.9866578,0.987999975681305
923.0022828,0.986999988555908
923.0179078,0.986999988555908
923.0335328,0.986000001430511
923.0491578,0.985000014305115
923.0647828,0.984000027179718
923.0804078,0.984000027179718
923.0960328,0.982999980449677
923.1116578,0.98199999332428
923.1272828,0.981000006198883
923.1429078,0.980000019073486
923.1585328,0.980000019073486
923.1741578,0.978999972343445
923.1897828,0.978999972343445
923.2054078,0.977999985218048
923.2210328,0.977999985218048
923.2366578,0.977999985218048
923.2522828,0.976999998092651
923.2679078,0.976999998092651
923.2835328,0.976000010967255
923.2991578,0.975000023841858
923.3147828,0.973999977111816
923.3304078,0.973999977111816
923.3460328,0.97299998998642
923.3616578,0.972000002861023
923.3772828,0.971000015735626
923.3929078,0.970000028610229
923.4085328,0.968999981880188
923.4241578,0.967999994754791
923.4397828,0.967000007629395
923.4554078,0.966000020503998
923.4710328,0.964999973773956
923.4866578,0.96399998664856
923.5022828,0.962999999523163
923.5179078,0.962000012397766
923.5335328,0.962000012397766
923.5491578,0.961000025272369
923.5647828,0.959999978542328
923.5804078,0.958999991416931
923.5960328,0.958000004291534
923.6116578,0.957000017166138
923.6272828,0.955999970436096
923.6429078,0.955999970436096
923.6585328,0.954999983310699
923.6741578,0.953999996185303
923.6897828,0.953000009059906
923.7054078,0.952000021934509
923.7210328,0.952000021934509
923.7366578,0.950999975204468
923.7522828,0.949999988079071
923.7679078,0.949000000953674
923.7835328,0.949000000953674
923.7991578,0.948000013828278
923.8147828,0.947000026702881
923.8304078,0.947000026702881
923.8460328,0.945999979972839
923.8616578,0.944999992847443
923.8772828,0.944999992847443
923.8929078,0.944000005722046
923.9085328,0.943000018596649
923.9241578,0.943000018596649
923.9397828,0.941999971866608
923.9554078,0.940999984741211
923.9710328,0.940999984741211
923.9866578,0.939999997615814
924.0022828,0.939000010490417
924.0179078,0.939000010490417
924.0335328,0.938000023365021
924.0491578,0.936999976634979
924.0647828,0.936999976634979
924.0804078,0.935999989509583
924.0960328,0.935999989509583
924.1116578,0.935000002384186
924.1272828,0.935000002384186
924.1429078,0.934000015258789
924.1585328,0.934000015258789
924.1741578,0.933000028133392
924.1897828,0.933000028133392
924.2054078,0.931999981403351
924.2210328,0.931999981403351
924.2366578,0.930999994277954
924.2522828,0.930999994277954
924.2679078,0.930000007152557
924.2835328,0.930000007152557
924.2991578,0.929000020027161
924.3147828,0.929000020027161
924.3304078,0.927999973297119
924.3460328,0.927999973297119
924.3616578,0.926999986171722
924.3772828,0.926999986171722
924.3929078,0.925999999046326
924.4085328,0.925000011920929
924.4241578,0.925000011920929
924.4397828,0.924000024795532
924.4554078,0.924000024795532
924.4710328,0.922999978065491
924.4866578,0.922999978065491
924.5022828,0.921999990940094
924.5179078,0.921999990940094
924.5335328,0.921000003814697
924.5491578,0.921000003814697
924.5647828,0.920000016689301
924.5804078,0.920000016689301
924.5960328,0.919000029563904
924.6116578,0.919000029563904
924.6272828,0.919000029563904
924.6429078,0.917999982833862
924.6585328,0.917999982833862
924.6741578,0.916999995708466
924.6897828,0.916999995708466
924.7054078,0.916000008583069
924.7210328,0.916000008583069
924.7366578,0.915000021457672
924.7522828,0.915000021457672
924.7679078,0.915000021457672
924.7835328,0.913999974727631
924.7991578,0.913999974727631
924.8147828,0.913999974727631
924.8304078,0.912999987602234
924.8460328,0.912999987602234
924.8616578,0.912000000476837
924.8772828,0.912000000476837
924.8929078,0.912000000476837
924.9085328,0.91100001335144
924.9241578,0.91100001335144
924.9397828,0.910000026226044
924.9554078,0.910000026226044
924.9710328,0.910000026226044
924.9866578,0.908999979496002
925.0022828,0.908999979496002
925.0179078,0.908999979496002
925.0335328,0.907999992370605
925.0491578,0.907999992370605
925.0647828,0.907999992370605
925.0804078,0.907000005245209
925.0960328,0.907000005245209
925.1116578,0.907000005245209
925.1272828,0.906000018119812
925.1429078,0.906000018119812
925.1585328,0.906000018119812
925.1741578,0.904999971389771
925.1897828,0.904999971389771
925.2054078,0.904999971389771
925.2210328,0.903999984264374
925.2366578,0.903999984264374
925.2522828,0.903999984264374
925.2679078,0.903999984264374
925.2835328,0.902999997138977
925.2991578,0.902999997138977
925.3147828,0.902999997138977
925.3304078,0.90200001001358
925.3460328,0.90200001001358
925.3616578,0.90200001001358
925.3772828,0.901000022888184
925.3929078,0.901000022888184
925.4085328,0.901000022888184
925.4241578,0.899999976158142
925.4397828,0.899999976158142
925.4554078,0.899999976158142
925.4710328,0.899999976158142
