Time(s),Value(%)
797.0073503,-2.80999994277954
797.0229753,-2.74000000953674
797.0386003,-2.69000005722046
797.0542253,-2.61999988555908
797.0698503,-2.52999997138977
797.0854753,-2.45000004768372
797.1011003,-2.5
797.1167253,-2.80999994277954
797.1323503,-3.42000007629395
797.1479753,-4.32000017166138
797.1636003,-5.38000011444092
797.1792253,-6.48000001907349
797.1948503,-7.51000022888184
797.2104753,-8.40999984741211
797.2261003,-9.18000030517578
797.2417253,-9.88000011444092
797.2573503,-10.5900001525879
797.2729753,-11.3599996566772
797.2886003,-12.2399997711182
797.3042253,-13.2200002670288
797.3198503,-14.3500003814697
797.3354753,-15.6700000762939
797.3511003,-17.1700000762939
797.3667253,-18.6800003051758
797.3823503,-19.9899997711182
797.3979753,-20.8600006103516
797.4136003,-21.1299991607666
797.4292253,-20.7600002288818
797.4448503,-19.7800006866455
797.4604753,-18.2999992370605
797.4761003,-16.4799995422363
797.4917253,-14.5299997329712
797.5073503,-12.6000003814697
797.5229753,-10.6300001144409
797.5386003,-8.39999961853027
797.5542253,-5.6399998664856
797.5698503,-2.26999998092651
797.5854753,1.5900000333786
797.6011003,5.80000019073486
797.6167253,10.1999998092651
797.6323503,14.6300001144409
797.6479753,18.75
797.6636003,22.1399993896484
797.6792253,24.4599990844727
797.6948503,25.7900009155273
797.7104753,26.4899997711182
797.7261003,26.8799991607666
797.7417253,27.1100006103516
797.7573503,27.1800003051758
797.7729753,27.1000003814697
797.7886003,26.8700008392334
797.8042253,26.5100002288818
797.8198503,26.0200004577637
797.8354753,25.3999996185303
797.8511003,24.6499996185303
797.8667253,23.8400001525879
797.8823503,23.1200008392334
797.8979753,22.5900001525879
797.9136003,22.2700004577637
797.9292253,22.0699996948242
797.9448503,21.8099994659424
797.9604753,21.3500003814697
797.9761003,20.7000007629395
797.9917253,19.9300003051758
798.0073503,19.1299991607666
798.0229753,18.3099994659424
798.0386003,17.5100002288818
798.0542253,16.7399997711182
798.0698503,16.0499992370605
798.0854753,15.3999996185303
798.1011003,14.6999998092651
798.1167253,13.8599996566772
798.1323503,12.8199996948242
798.1479753,11.5600004196167
798.1636003,10.1099996566772
798.1792253,8.55000019073486
798.1948503,6.94000005722046
798.2104753,5.36999988555908
798.2261003,3.91000008583069
798.2417253,2.73000001907349
798.2573503,2.10999989509583
798.2729753,2.29999995231628
798.2886003,3.28999996185303
798.3042253,4.84999990463257
798.3198503,6.59000015258789
798.3354753,8.22000026702881
798.3511003,9.59000015258789
798.3667253,10.8599996566772
798.3823503,12.3900003433228
798.3979753,14.539999961853
798.4136003,17.4200000762939
798.4292253,20.9200000762939
798.4448503,24.8600006103516
798.4604753,29.1200008392334
798.4761003,33.5
798.4917253,37.5099983215332
798.5073503,40.4500007629395
798.5229753,41.7599983215332
798.5386003,41.4900016784668
798.5542253,40.1399993896484
798.5698503,38.2599983215332
798.5854753,36.2200012207031
798.6011003,34.2599983215332
798.6167253,32.5499992370605
798.6323503,31.1000003814697
798.6479753,29.7900009155273
798.6636003,28.3600006103516
798.6792253,26.5799999237061
798.6948503,24.4500007629395
798.7104753,22.1100006103516
798.7261003,19.6599998474121
798.7417253,17.1200008392334
798.7573503,14.460000038147
798.7729753,11.710000038147
798.7886003,8.94999980926514
798.8042253,6.23000001907349
798.8198503,3.55999994277954
798.8354753,0.920000016689301
798.8511003,-1.70000004768372
798.8667253,-4.30000019073486
798.8823503,-6.84000015258789
798.8979753,-9.27000045776367
798.9136003,-11.5699996948242
798.9292253,-13.7600002288818
798.9448503,-15.8800001144409
798.9604753,-18.0499992370605
798.9761003,-20.3899993896484
798.9917253,-22.9799995422363
799.0073503,-25.7800006866455
799.0229753,-28.6599998474121
799.0386003,-31.4300003051758
799.0542253,-33.9799995422363
799.0698503,-36.2099990844727
799.0854753,-37.9799995422363
799.1011003,-39.0099983215332
799.1167253,-39.0299987792969
799.1323503,-38.0299987792969
799.1479753,-36.1500015258789
799.1636003,-33.5800018310547
799.1792253,-30.4300003051758
799.1948503,-26.9099998474121
799.2104753,-23.3299999237061
799.2261003,-20.1299991607666
799.2417253,-17.6299991607666
799.2573503,-15.8000001907349
799.2729753,-14.460000038147
799.2886003,-13.5100002288818
799.3042253,-13.0100002288818
799.3198503,-12.9799995422363
799.3354753,-13.3599996566772
799.3511003,-13.9799995422363
799.3667253,-14.6700000762939
799.3823503,-15.3800001144409
799.3979753,-16.1599998474121
799.4136003,-17.0300006866455
799.4292253,-18.0
799.4448503,-19.0400009155273
799.4604753,-20.1100006103516
799.4761003,-21.1499996185303
799.4917253,-22.1800003051758
799.5073503,-23.2099990844727
799.5229753,-24.3799991607666
799.5386003,-25.8199996948242
799.5542253,-27.6299991607666
799.5698503,-29.7299995422363
799.5854753,-31.9099998474121
799.6011003,-33.9500007629395
799.6167253,-35.7000007629395
799.6323503,-37.1800003051758
799.6479753,-38.5999984741211
799.6636003,-40.3499984741211
799.6792253,-42.7700004577637
799.6948503,-45.9599990844727
799.7104753,-49.8600006103516
799.7261003,-54.4500007629395
799.7417253,-59.7400016784668
799.7573503,-65.5500030517578
799.7729753,-71.2900009155273
799.7886003,-76.120002746582
799.8042253,-79.4599990844727
799.8198503,-81.4700012207031
799.8354753,-82.6999969482422
799.8511003,-83.4899978637695
799.8667253,-83.7699966430664
799.8823503,-83.3399963378906
799.8979753,-82.1600036621094
799.9136003,-80.3899993896484
799.9292253,-78.1699981689453
799.9448503,-75.5100021362305
799.9604753,-72.3300018310547
799.9761003,-68.6100006103516
799.9917253,-64.5199966430664
800.0073503,-60.3400001525879
800.0229753,-56.3300018310547
800.0386003,-52.6100006103516
800.0542253,-49.0900001525879
800.0698503,-45.5099983215332
800.0854753,-41.6699981689453
800.1011003,-37.5699996948242
800.1167253,-33.3699989318848
800.1323503,-29.2600002288818
800.1479753,-25.3500003814697
800.1636003,-21.7099990844727
800.1792253,-18.3500003814697
800.1948503,-15.2399997711182
800.2104753,-12.2600002288818
800.2261003,-9.26000022888184
800.2417253,-6.17000007629395
800.2573503,-3.02999997138977
800.2729753,0.0
800.2886003,2.86999988555908
800.3042253,5.61999988555908
800.3198503,8.31999969482422
800.3354753,11.0100002288818
800.3511003,13.6899995803833
800.3667253,16.2700004577637
800.3823503,18.6399993896484
800.3979753,20.6700000762939
800.4136003,22.3600006103516
800.4292253,23.6800003051758
800.4448503,24.6100006103516
800.4604753,25.0900001525879
800.4761003,25.1800003051758
800.4917253,25.1100006103516
800.5073503,25.2299995422363
800.5229753,25.7700004577637
800.5386003,26.6800003051758
800.5542253,27.7600002288818
800.5698503,28.8600006103516
800.5854753,30.0400009155273
800.6011003,31.3600006103516
800.6167253,32.8499984741211
800.6323503,34.4500007629395
800.6479753,36.0400009155273
800.6636003,37.5200004577637
800.6792253,38.8300018310547
800.6948503,39.9900016784668
800.7104753,41.1300010681152
800.7261003,42.4900016784668
800.7417253,44.2700004577637
800.7573503,46.5200004577637
800.7729753,49.1500015258789
800.7886003,52.1199989318848
800.8042253,55.4500007629395
800.8198503,59.2299995422363
800.8354753,63.3899993896484
800.8511003,67.620002746582
800.8667253,71.4599990844727
800.8823503,74.5899963378906
800.8979753,76.9700012207031
800.9136003,78.7699966430664
800.9292253,80.2300033569336
800.9448503,81.5400009155273
800.9604753,82.7799987792969
800.9761003,83.9300003051758
800.9917253,85.0199966430664
801.0073503,86.0999984741211
801.0229753,87.2699966430664
801.0386003,88.5400009155273
801.0542253,89.7300033569336
801.0698503,90.5299987792969
801.0854753,90.6500015258789
801.1011003,90.0500030517578
801.1167253,88.8600006103516
801.1323503,87.25
801.1479753,85.3300018310547
801.1636003,83.1699981689453
801.1792253,80.8600006103516
801.1948503,78.4700012207031
801.2104753,76.0800018310547
801.2261003,73.7200012207031
801.2417253,71.4100036621094
801.2573503,69.1500015258789
801.2729753,66.879997253418
801.2886003,64.5299987792969
801.3042253,62.0299987792969
801.3198503,59.3699989318848
801.3354753,56.5900001525879
801.3511003,53.7000007629395
801.3667253,50.689998626709
801.3823503,47.5499992370605
801.3979753,44.2900009155273
801.4136003,41.0099983215332
801.4292253,37.8400001525879
801.4448503,34.8600006103516
801.4604753,32.0999984741211
801.4761003,29.5
801.4917253,27.0
801.5073503,24.5599994659424
801.5229753,22.1599998474121
801.5386003,19.8199996948242
801.5542253,17.7099990844727
801.5698503,16.0699996948242
801.5854753,15.1400003433228
801.6011003,14.9499998092651
801.6167253,15.3000001907349
801.6323503,15.9200000762939
801.6479753,16.7099990844727
801.6636003,17.7800006866455
801.6792253,19.2000007629395
801.6948503,20.7700004577637
801.7104753,22.0599994659424
801.7261003,22.7099990844727
801.7417253,22.6700000762939
801.7573503,22.1200008392334
801.7729753,21.4099998474121
801.7886003,20.8799991607666
801.8042253,20.75
801.8198503,21.0300006866455
801.8354753,21.5300006866455
801.8511003,22.0200004577637
801.8667253,22.3299999237061
801.8823503,22.3799991607666
801.8979753,22.1800003051758
801.9136003,21.7900009155273
801.9292253,21.2700004577637
801.9448503,20.6499996185303
801.9604753,20.0599994659424
801.9761003,19.7099990844727
801.9917253,19.7700004577637
802.0073503,20.2299995422363
802.0229753,20.7299995422363
802.0386003,20.6499996185303
802.0542253,19.4899997711182
802.0698503,17.2199993133545
802.0854753,14.2200002670288
802.1011003,10.8599996566772
802.1167253,7.36999988555908
802.1323503,3.88000011444092
802.1479753,0.469999998807907
802.1636003,-2.79999995231628
802.1792253,-6.01000022888184
802.1948503,-9.27999973297119
802.2104753,-12.7700004577637
802.2261003,-16.5100002288818
802.2417253,-20.4200000762939
802.2573503,-24.3799991607666
802.2729753,-28.3199996948242
802.2886003,-32.2400016784668
802.3042253,-36.1599998474121
802.3198503,-40.0499992370605
802.3354753,-43.8699989318848
802.3511003,-47.5400009155273
802.3667253,-51.0099983215332
802.3823503,-54.2299995422363
802.3979753,-57.1599998474121
802.4136003,-59.75
802.4292253,-61.9599990844727
802.4448503,-63.8400001525879
802.4604753,-65.4400024414063
802.4761003,-66.8399963378906
802.4917253,-68.0199966430664
802.5073503,-68.870002746582
802.5229753,-69.2200012207031
802.5386003,-69.0400009155273
802.5542253,-68.4300003051758
802.5698503,-67.5100021362305
802.5854753,-66.4199981689453
802.6011003,-65.25
802.6167253,-64.1699981689453
802.6323503,-63.3899993896484
802.6479753,-63.1399993896484
802.6636003,-63.5499992370605
802.6792253,-64.5800018310547
802.6948503,-66.0699996948242
802.7104753,-67.8000030517578
802.7261003,-69.5400009155273
802.7417253,-71.1399993896484
802.7573503,-72.5
802.7729753,-73.629997253418
802.7886003,-74.5500030517578
802.8042253,-75.3000030517578
802.8198503,-75.9100036621094
802.8354753,-76.3899993896484
802.8511003,-76.75
802.8667253,-76.9800033569336
802.8823503,-77.0999984741211
802.8979753,-77.1800003051758
802.9136003,-77.370002746582
802.9292253,-77.8300018310547
802.9448503,-78.5800018310547
802.9604753,-79.5899963378906
802.9761003,-80.8300018310547
802.9917253,-82.3000030517578
803.0073503,-83.9000015258789
803.0229753,-85.379997253418
803.0386003,-86.3300018310547
803.0542253,-86.4899978637695
803.0698503,-85.9100036621094
803.0854753,-84.8399963378906
803.1011003,-83.5299987792969
803.1167253,-82.129997253418
803.1323503,-80.8199996948242
803.1479753,-79.8099975585938
803.1636003,-79.1399993896484
803.1792253,-78.6699981689453
803.1948503,-78.0299987792969
803.2104753,-76.879997253418
803.2261003,-75.0299987792969
803.2417253,-72.4300003051758
803.2573503,-69.0899963378906
803.2729753,-65.0599975585938
803.2886003,-60.5200004577637
803.3042253,-55.7200012207031
803.3198503,-50.9099998474121
803.3354753,-46.1800003051758
803.3511003,-41.4300003051758
803.3667253,-36.4799995422363
803.3823503,-31.25
803.3979753,-25.7800006866455
803.4136003,-20.1399993896484
803.4292253,-14.4399995803833
803.4448503,-8.78999996185303
803.4604753,-3.41000008583069
803.4761003,1.39999997615814
803.4917253,5.3899998664856
803.5073503,8.51000022888184
803.5229753,10.8999996185303
803.5386003,12.75
803.5542253,14.2399997711182
803.5698503,15.5100002288818
803.5854753,16.6499996185303
803.6011003,17.7299995422363
803.6167253,18.75
803.6323503,19.6599998474121
803.6479753,20.3899993896484
803.6636003,20.8999996185303
803.6792253,21.1900005340576
803.6948503,21.2199993133545
803.7104753,20.9699993133545
803.7261003,20.4699993133545
803.7417253,19.8799991607666
803.7573503,19.3799991607666
803.7729753,19.0799999237061
803.7886003,18.9200000762939
803.8042253,18.7800006866455
803.8198503,18.6200008392334
803.8354753,18.5300006866455
803.8511003,18.6299991607666
803.8667253,18.9500007629395
803.8823503,19.4300003051758
803.8979753,19.9200000762939
803.9136003,20.2399997711182
803.9292253,20.2600002288818
803.9448503,19.9400005340576
803.9604753,19.3500003814697
803.9761003,18.5499992370605
803.9917253,17.5799999237061
804.0073503,16.5200004577637
804.0229753,15.5500001907349
804.0386003,15.0
804.0542253,15.1800003051758
804.0698503,16.1700000762939
804.0854753,17.8700008392334
804.1011003,20.0499992370605
804.1167253,22.5
804.1323503,25.0200004577637
804.1479753,27.4899997711182
804.1636003,29.8199996948242
804.1792253,32.060001373291
804.1948503,34.310001373291
804.2104753,36.7000007629395
804.2261003,39.2599983215332
804.2417253,41.9000015258789
804.2573503,44.4900016784668
804.2729753,46.9099998474121
804.2886003,49.0699996948242
804.3042253,50.9099998474121
804.3198503,52.3199996948242
804.3354753,53.2099990844727
804.3511003,53.6399993896484
804.3667253,53.7599983215332
804.3823503,53.7599983215332
804.3979753,53.7700004577637
804.4136003,53.8199996948242
804.4292253,53.8800010681152
804.4448503,53.8899993896484
804.4604753,53.7900009155273
804.4761003,53.560001373291
804.4917253,53.1599998474121
804.5073503,52.5900001525879
804.5229753,51.8800010681152
804.5386003,51.060001373291
804.5542253,50.2099990844727
804.5698503,49.3600006103516
804.5854753,48.5299987792969
804.6011003,47.7099990844727
804.6167253,46.8899993896484
804.6323503,46.0400009155273
804.6479753,45.1500015258789
804.6636003,44.2099990844727
804.6792253,43.2299995422363
804.6948503,42.2000007629395
804.7104753,41.1199989318848
804.7261003,39.9900016784668
804.7417253,38.8600006103516
804.7573503,37.7799987792969
804.7729753,36.7799987792969
804.7886003,35.8600006103516
804.8042253,34.9700012207031
804.8198503,34.0900001525879
804.8354753,33.2200012207031
804.8511003,32.3499984741211
804.8667253,31.5100002288818
804.8823503,30.7099990844727
804.8979753,30.1000003814697
804.9136003,30.0100002288818
804.9292253,30.6900005340576
804.9448503,32.2200012207031
804.9604753,34.4199981689453
804.9761003,37.0900001525879
804.9917253,40.0999984741211
805.0073503,43.2400016784668
805.0229753,46.2000007629395
805.0386003,48.5099983215332
805.0542253,49.8800010681152
805.0698503,50.3600006103516
805.0854753,50.25
805.1011003,49.7900009155273
805.1167253,49.0099983215332
805.1323503,47.9000015258789
805.1479753,46.4700012207031
805.1636003,44.810001373291
805.1792253,43.0699996948242
805.1948503,41.3600006103516
805.2104753,39.75
805.2261003,38.2400016784668
805.2417253,36.7900009155273
805.2573503,35.3600006103516
805.2729753,33.9300003051758
805.2886003,32.4700012207031
805.3042253,30.8899993896484
805.3198503,29.0300006866455
805.3354753,26.7299995422363
805.3511003,24.0
805.3667253,21.0100002288818
805.3823503,17.9799995422363
805.3979753,15.0600004196167
805.4136003,12.3100004196167
805.4292253,9.73999977111816
805.4448503,7.23000001907349
805.4604753,4.55000019073486
805.4761003,1.25
805.4917253,-3.02999997138977
805.5073503,-8.38000011444092
805.5229753,-14.6000003814697
805.5386003,-21.4799995422363
805.5542253,-28.9099998474121
805.5698503,-36.6399993896484
805.5854753,-44.1699981689453
805.6011003,-50.7900009155273
805.6167253,-55.9199981689453
805.6323503,-59.4199981689453
805.6479753,-61.4799995422363
805.6636003,-62.3499984741211
805.6792253,-62.2000007629395
805.6948503,-61.2299995422363
805.7104753,-59.7400016784668
805.7261003,-58.0200004577637
805.7417253,-56.2900009155273
805.7573503,-54.5499992370605
805.7729753,-52.7299995422363
805.7886003,-50.75
805.8042253,-48.6500015258789
805.8198503,-46.5200004577637
805.8354753,-44.4700012207031
805.8511003,-42.5900001525879
805.8667253,-40.9099998474121
805.8823503,-39.4500007629395
805.8979753,-38.2400016784668
805.9136003,-37.2599983215332
805.9292253,-36.4599990844727
805.9448503,-35.7400016784668
805.9604753,-35.0
805.9761003,-34.2000007629395
805.9917253,-33.3300018310547
806.0073503,-32.4300003051758
806.0229753,-31.6200008392334
806.0386003,-31.0900001525879
806.0542253,-31.0
806.0698503,-31.3799991607666
806.0854753,-32.1399993896484
806.1011003,-33.2299995422363
806.1167253,-34.5999984741211
806.1323503,-36.1699981689453
806.1479753,-37.7000007629395
806.1636003,-38.8899993896484
806.1792253,-39.5400009155273
806.1948503,-39.7000007629395
806.2104753,-39.5999984741211
806.2261003,-39.3800010681152
806.2417253,-39.0999984741211
806.2573503,-38.8600006103516
806.2729753,-38.7900009155273
806.2886003,-38.939998626709
806.3042253,-39.2000007629395
806.3198503,-39.310001373291
806.3354753,-39.0400009155273
806.3511003,-38.3600006103516
806.3667253,-37.3600006103516
806.3823503,-36.1100006103516
806.3979753,-34.5699996948242
806.4136003,-32.7400016784668
806.4292253,-30.6900005340576
806.4448503,-28.5200004577637
806.4604753,-26.3299999237061
806.4761003,-24.1399993896484
806.4917253,-21.8999996185303
806.5073503,-19.6000003814697
806.5229753,-17.2600002288818
806.5386003,-14.9399995803833
806.5542253,-12.7200002670288
806.5698503,-10.6400003433228
806.5854753,-8.68000030517578
806.6011003,-6.80999994277954
806.6167253,-5.0
806.6323503,-3.27999997138977
806.6479753,-1.71000003814697
806.6636003,-0.300000011920929
806.6792253,0.949999988079071
806.6948503,2.11999988555908
806.7104753,3.25
806.7261003,4.38000011444092
806.7417253,5.48999977111816
806.7573503,6.61999988555908
806.7729753,7.73999977111816
806.7886003,8.85000038146973
806.8042253,9.85000038146973
806.8198503,10.5500001907349
806.8354753,10.8000001907349
806.8511003,10.5699996948242
806.8667253,10.0299997329712
806.8823503,9.39000034332275
806.8979753,8.78999996185303
806.9136003,8.17000007629395
806.9292253,7.42999982833862
806.9448503,6.6100001335144
806.9604753,5.90999984741211
806.9761003,5.51999998092651
806.9917253,5.46000003814697
807.0073503,5.65000009536743
807.0229753,5.92000007629395
807.0386003,6.09000015258789
807.0542253,6.05000019073486
807.0698503,5.78999996185303
807.0854753,5.3600001335144
807.1011003,4.78000020980835
807.1167253,4.07000017166138
807.1323503,3.26999998092651
807.1479753,2.54999995231628
807.1636003,2.22000002861023
807.1792253,2.5699999332428
807.1948503,3.74000000953674
807.2104753,5.6399998664856
807.2261003,8.03999996185303
807.2417253,10.6899995803833
807.2573503,13.3599996566772
807.2729753,15.9099998474121
807.2886003,18.2600002288818
807.3042253,20.4300003051758
807.3198503,22.4799995422363
807.3354753,24.4799995422363
807.3511003,26.4599990844727
807.3667253,28.3999996185303
807.3823503,30.2700004577637
807.3979753,32.0400009155273
807.4136003,33.6800003051758
807.4292253,35.1100006103516
807.4448503,36.2200012207031
807.4604753,36.8699989318848
807.4761003,36.9799995422363
807.4917253,36.5699996948242
807.5073503,35.7700004577637
807.5229753,34.7400016784668
807.5386003,33.6500015258789
807.5542253,32.6100006103516
807.5698503,31.6399993896484
807.5854753,30.7000007629395
807.6011003,29.7299995422363
807.6167253,28.6499996185303
807.6323503,27.4400005340576
807.6479753,26.1100006103516
807.6636003,24.6299991607666
807.6792253,23.0
807.6948503,21.25
807.7104753,19.5100002288818
807.7261003,17.9599990844727
807.7417253,16.7299995422363
807.7573503,15.7600002288818
807.7729753,14.8699998855591
807.7886003,13.9799995422363
