Time(s),Value(%)
335.0089315,-14.5299997329712
335.0245565,-6.57999992370605
335.0401815,0.879999995231628
335.0558065,7.48999977111816
335.0714315,13.2600002288818
335.0870565,18.3600006103516
335.1026815,22.7800006866455
335.1183065,26.3400001525879
335.1339315,28.9200000762939
335.1495565,30.6499996185303
335.1651815,31.7900009155273
335.1808065,32.5200004577637
335.1964315,32.75
335.2120565,32.2900009155273
335.2276815,31.0499992370605
335.2433065,29.1200008392334
335.2589315,26.6100006103516
335.2745565,23.6700000762939
335.2901815,20.4400005340576
335.3058065,17.1900005340576
335.3214315,14.1700000762939
335.3370565,11.4700002670288
335.3526815,8.89000034332275
335.3683065,6.17000007629395
335.3839315,3.25999999046326
335.3995565,0.370000004768372
335.4151815,-2.19000005722046
335.4308065,-4.32000017166138
335.4464315,-6.07000017166138
335.4620565,-7.67999982833862
335.4776815,-9.48999977111816
335.4933065,-11.7799997329712
335.5089315,-14.6099996566772
335.5245565,-17.9699993133545
335.5401815,-21.8799991607666
335.5558065,-26.4300003051758
335.5714315,-31.4799995422363
335.5870565,-36.5099983215332
335.6026815,-40.7000007629395
335.6183065,-43.3699989318848
335.6339315,-44.310001373291
335.6495565,-43.7999992370605
335.6651815,-42.1699981689453
335.6808065,-39.7099990844727
335.6964315,-36.6599998474121
335.7120565,-33.2999992370605
335.7276815,-29.8500003814697
335.7433065,-26.1399993896484
335.7589315,-21.6000003814697
335.7745565,-15.6000003814697
335.7901815,-8.01000022888184
335.8058065,0.759999990463257
335.8214315,10.1300001144409
335.8370565,19.5400009155273
335.8526815,28.5599994659424
335.8683065,36.6699981689453
335.8839315,43.1199989318848
335.8995565,47.310001373291
335.9151815,49.2099990844727
335.9308065,49.2900009155273
335.9464315,48.2000007629395
335.9620565,46.4599990844727
335.9776815,44.439998626709
335.9933065,42.3199996948242
336.0089315,40.2099990844727
336.0245565,38.060001373291
336.0401815,35.7400016784668
336.0558065,33.1100006103516
336.0714315,30.1200008392334
336.0870565,26.7600002288818
336.1026815,22.9699993133545
336.1183065,18.7099990844727
336.1339315,14.0299997329712
336.1495565,9.22999954223633
336.1651815,4.67000007629395
336.1808065,0.560000002384186
336.1964315,-3.22000002861023
336.2120565,-6.92999982833862
336.2276815,-10.5900001525879
336.2433065,-13.9700002670288
336.2589315,-16.8500003814697
336.2745565,-19.1399993896484
336.2901815,-20.9799995422363
336.3058065,-22.6499996185303
336.3214315,-24.5200004577637
336.3370565,-26.8400001525879
336.3526815,-29.6200008392334
336.3683065,-32.6399993896484
336.3839315,-35.5400009155273
336.3995565,-38.0299987792969
336.4151815,-39.9500007629395
336.4308065,-41.1500015258789
336.4464315,-41.2900009155273
336.4620565,-39.8699989318848
336.4776815,-36.4799995422363
336.4933065,-31.1299991607666
336.5089315,-24.3700008392334
336.5245565,-17.1200008392334
336.5401815,-10.210000038147
336.5558065,-4.1100001335144
336.5714315,1.13999998569489
336.5870565,5.76999998092651
336.6026815,10.0699996948242
336.6183065,14.25
336.6339315,18.3899993896484
336.6495565,22.4099998474121
336.6651815,26.2199993133545
336.6808065,29.7399997711182
336.6964315,32.9000015258789
336.7120565,35.439998626709
336.7276815,36.8899993896484
336.7433065,36.7700004577637
336.7589315,35.0
336.7745565,31.9500007629395
336.7901815,28.2399997711182
336.8058065,24.4799995422363
336.8214315,21.0400009155273
336.8370565,18.0
336.8526815,15.25
336.8683065,12.4799995422363
336.8839315,9.28999996185303
336.8995565,5.34999990463257
336.9151815,0.610000014305115
336.9308065,-4.86999988555908
336.9464315,-11.1499996185303
336.9620565,-18.3299999237061
336.9776815,-26.25
336.9933065,-34.3199996948242
337.0089315,-41.7000007629395
337.0245565,-47.8300018310547
337.0401815,-52.8300018310547
337.0558065,-57.1300010681152
337.0714315,-60.9000015258789
337.0870565,-63.939998626709
337.1026815,-66.0800018310547
337.1183065,-67.4100036621094
337.1339315,-68.1800003051758
337.1495565,-68.5
337.1651815,-68.1100006103516
337.1808065,-66.3899993896484
337.1964315,-62.6100006103516
337.2120565,-56.4199981689453
337.2276815,-48.1300010681152
337.2433065,-38.6100006103516
337.2589315,-28.8899993896484
337.2745565,-19.7399997711182
337.2901815,-11.4899997711182
337.3058065,-3.9300000667572
337.3214315,3.5
337.3370565,11.3900003433228
337.3526815,19.9099998474121
337.3683065,28.9400005340576
337.3839315,38.25
337.3995565,47.6699981689453
337.4151815,56.8899993896484
337.4308065,65.1999969482422
337.4464315,71.4199981689453
337.4620565,74.620002746582
337.4776815,74.7600021362305
337.4933065,72.6800003051758
337.5089315,69.4300003051758
337.5245565,65.7799987792969
337.5401815,62.1100006103516
337.5558065,58.5200004577637
337.5714315,54.9900016784668
337.5870565,51.4500007629395
337.6026815,47.7599983215332
337.6183065,43.8499984741211
337.6339315,39.7299995422363
337.6495565,35.5400009155273
337.6651815,31.4400005340576
337.6808065,27.6000003814697
337.6964315,24.0599994659424
337.7120565,20.7700004577637
337.7276815,17.6399993896484
337.7433065,14.6099996566772
337.7589315,11.710000038147
337.7745565,9.01000022888184
337.7901815,6.53999996185303
337.8058065,4.25
337.8214315,2.05999994277954
337.8370565,-0.0700000002980232
337.8526815,-2.10999989509583
337.8683065,-3.64000010490417
337.8839315,-3.88000011444092
337.8995565,-2.11999988555908
337.9151815,1.82000005245209
337.9308065,7.78000020980835
337.9464315,15.6899995803833
337.9620565,25.5900001525879
337.9776815,37.0299987792969
337.9933065,48.7799987792969
338.0089315,59.0800018310547
338.0245565,66.7300033569336
338.0401815,71.9000015258789
338.0558065,75.4700012207031
338.0714315,77.9000015258789
338.0870565,78.9199981689453
338.1026815,78.1800003051758
338.1183065,75.8000030517578
338.1339315,72.3000030517578
338.1495565,68.2600021362305
338.1651815,63.9599990844727
338.1808065,59.3699989318848
338.1964315,54.439998626709
338.2120565,49.2299995422363
338.2276815,43.9700012207031
338.2433065,38.9000015258789
338.2589315,34.1399993896484
338.2745565,29.4699993133545
338.2901815,24.3500003814697
338.3058065,18.2299995422363
338.3214315,10.9300003051758
338.3370565,2.70000004768372
338.3526815,-5.94000005722046
338.3683065,-14.4799995422363
338.3839315,-22.5799999237061
338.3995565,-30.0799999237061
338.4151815,-37.0299987792969
338.4308065,-43.560001373291
338.4464315,-49.8499984741211
338.4620565,-56.0299987792969
338.4776815,-62.1199989318848
338.4933065,-68.1800003051758
338.5089315,-74.3399963378906
338.5245565,-80.7399978637695
338.5401815,-87.3399963378906
338.5558065,-93.870002746582
338.5714315,-99.879997253418
338.5870565,-104.830001831055
338.6026815,-108.269996643066
338.6183065,-109.930000305176
338.6339315,-109.809997558594
338.6495565,-108.169998168945
338.6651815,-105.529998779297
338.6808065,-102.480003356934
338.6964315,-99.379997253418
338.7120565,-96.1399993896484
338.7276815,-92.129997253418
338.7433065,-86.6500015258789
338.7589315,-79.5
338.7745565,-71.0599975585938
338.7901815,-61.9199981689453
338.8058065,-52.6100006103516
338.8214315,-43.5999984741211
338.8370565,-35.5999984741211
338.8526815,-29.6499996185303
338.8683065,-26.6100006103516
338.8839315,-26.5699996948242
338.8995565,-28.7700004577637
338.9151815,-32.1800003051758
338.9308065,-35.9300003051758
338.9464315,-39.5299987792969
338.9620565,-42.7599983215332
338.9776815,-45.6699981689453
338.9933065,-48.5200004577637
339.0089315,-51.7299995422363
339.0245565,-55.6800003051758
339.0401815,-60.4199981689453
339.0558065,-65.7900009155273
339.0714315,-71.6500015258789
339.0870565,-77.8899993896484
339.1026815,-84.3099975585938
339.1183065,-90.4599990844727
339.1339315,-95.7200012207031
339.1495565,-99.7099990844727
339.1651815,-102.610000610352
339.1808065,-104.930000305176
339.1964315,-106.889999389648
339.2120565,-108.389999389648
339.2276815,-109.190002441406
339.2433065,-109.230003356934
339.2589315,-108.540000915527
339.2745565,-107.050003051758
339.2901815,-104.309997558594
339.3058065,-99.8499984741211
339.3214315,-93.5599975585938
339.3370565,-85.5599975585938
339.3526815,-75.9000015258789
339.3683065,-64.5699996948242
339.3839315,-51.9000015258789
339.3995565,-38.7000007629395
339.4151815,-26.0400009155273
339.4308065,-14.6000003814697
339.4464315,-4.32999992370605
339.4620565,5.03999996185303
339.4776815,13.4200000762939
339.4933065,20.3700008392334
339.5089315,25.7399997711182
339.5245565,29.8999996185303
339.5401815,33.439998626709
339.5558065,36.6800003051758
339.5714315,39.4099998474121
339.5870565,41.189998626709
339.6026815,41.7900009155273
339.6183065,41.3199996948242
339.6339315,40.0400009155273
339.6495565,38.2599983215332
339.6651815,36.25
339.6808065,34.2200012207031
339.6964315,32.2599983215332
339.7120565,30.2399997711182
339.7276815,27.7399997711182
339.7433065,24.3600006103516
339.7589315,20.0100002288818
339.7745565,14.8100004196167
339.7901815,8.94999980926514
339.8058065,2.55999994277954
339.8214315,-4.1100001335144
339.8370565,-10.5799999237061
339.8526815,-16.1499996185303
339.8683065,-20.3999996185303
339.8839315,-23.5200004577637
339.8995565,-26.0200004577637
339.9151815,-28.1800003051758
339.9308065,-29.9099998474121
339.9464315,-30.9899997711182
339.9620565,-31.3600006103516
339.9776815,-31.0900001525879
339.9933065,-30.0599994659424
340.0089315,-27.8500003814697
340.0245565,-23.9500007629395
340.0401815,-18.2399997711182
340.0558065,-10.8900003433228
340.0714315,-1.94000005722046
340.0870565,8.5600004196167
340.1026815,20.2900009155273
340.1183065,32.439998626709
340.1339315,43.9799995422363
340.1495565,54.25
340.1651815,63.3899993896484
340.1808065,71.7399978637695
340.1964315,79.2099990844727
340.2120565,85.0500030517578
340.2276815,89.0699996948242
340.2433065,91.4000015258789
340.2589315,92.5599975585938
340.2745565,92.9300003051758
340.2901815,92.4300003051758
340.3058065,90.7399978637695
340.3214315,87.7200012207031
340.3370565,83.5299987792969
340.3526815,78.4800033569336
340.3683065,72.870002746582
340.3839315,67.0
340.3995565,61.1800003051758
340.4151815,55.6699981689453
340.4308065,50.4700012207031
340.4464315,45.2999992370605
340.4620565,39.8699989318848
340.4776815,34.2599983215332
340.4933065,28.8899993896484
340.5089315,24.1700000762939
340.5245565,20.2700004577637
340.5401815,17.0400009155273
340.5558065,14.1199998855591
340.5714315,11.0200004577637
340.5870565,7.42000007629395
340.6026815,3.25
340.6183065,-1.36000001430511
340.6339315,-6.34000015258789
340.6495565,-11.6300001144409
340.6651815,-17.0799999237061
340.6808065,-22.1700000762939
340.6964315,-26.0400009155273
340.7120565,-27.7099990844727
340.7276815,-26.5400009155273
340.7433065,-22.4300003051758
340.7589315,-15.9099998474121
340.7745565,-7.84999990463257
340.7901815,0.75
340.8058065,9.10999965667725
340.8214315,16.7900009155273
340.8370565,23.7800006866455
340.8526815,30.3299999237061
340.8683065,36.7799987792969
340.8839315,43.2799987792969
340.8995565,49.7400016784668
340.9151815,55.9300003051758
340.9308065,61.6399993896484
340.9464315,66.6800003051758
340.9620565,70.75
340.9776815,73.2900009155273
340.9933065,73.75
341.0089315,71.9499969482422
341.0245565,68.2900009155273
341.0401815,63.5900001525879
341.0558065,58.7200012207031
341.0714315,54.2999992370605
341.0870565,50.5099983215332
341.1026815,47.2000007629395
341.1183065,43.9599990844727
341.1339315,40.2000007629395
341.1495565,35.5
341.1651815,29.7900009155273
341.1808065,23.2000007629395
341.1964315,15.8299999237061
341.2120565,7.65000009536743
341.2276815,-1.02999997138977
341.2433065,-9.57999992370605
341.2589315,-16.9899997711182
341.2745565,-22.6399993896484
341.2901815,-26.7199993133545
341.3058065,-29.9099998474121
341.3214315,-32.6599998474121
341.3370565,-34.8899993896484
341.3526815,-36.3800010681152
341.3683065,-37.060001373291
341.3839315,-37.0200004577637
341.3995565,-36.2099990844727
341.4151815,-34.2000007629395
341.4308065,-30.5
341.4464315,-25.0200004577637
341.4620565,-18.0499992370605
341.4776815,-9.90999984741211
341.4933065,-0.889999985694885
341.5089315,8.65999984741211
341.5245565,18.1800003051758
341.5401815,27.0100002288818
341.5558065,34.7400016784668
341.5714315,41.4300003051758
341.5870565,47.2999992370605
341.6026815,52.310001373291
341.6183065,56.189998626709
341.6339315,58.7700004577637
341.6495565,60.2099990844727
341.6651815,60.8800010681152
341.6808065,61.0
341.6964315,60.439998626709
341.7120565,58.9300003051758
341.7276815,56.3199996948242
341.7433065,52.75
341.7589315,48.3899993896484
341.7745565,43.4300003051758
341.7901815,38.1199989318848
341.8058065,32.7999992370605
341.8214315,27.8700008392334
341.8370565,23.4500007629395
341.8526815,19.2700004577637
341.8683065,14.9799995422363
341.8839315,10.4899997711182
341.8995565,5.90999984741211
341.9151815,1.23000001907349
341.9308065,-3.73000001907349
341.9464315,-9.05000019073486
341.9620565,-14.4399995803833
341.9776815,-19.3099994659424
341.9933065,-23.2199993133545
342.0089315,-26.2999992370605
342.0245565,-28.9500007629395
342.0401815,-31.3600006103516
342.0558065,-33.3499984741211
342.0714315,-34.6599998474121
342.0870565,-35.2599983215332
342.1026815,-35.2000007629395
342.1183065,-34.310001373291
342.1339315,-31.8999996185303
342.1495565,-27.2299995422363
342.1651815,-20.2399997711182
342.1808065,-11.6300001144409
342.1964315,-2.54999995231628
342.2120565,6.01999998092651
342.2276815,13.6099996566772
342.2433065,20.2900009155273
342.2589315,26.5400009155273
342.2745565,32.8400001525879
342.2901815,39.4199981689453
342.3058065,46.1599998474121
342.3214315,52.7599983215332
342.3370565,58.9199981689453
342.3526815,64.3899993896484
342.3683065,68.7799987792969
342.3839315,71.3899993896484
342.3995565,71.5199966430664
342.4151815,69.0100021362305
342.4308065,64.3600006103516
342.4464315,58.4799995422363
342.4620565,52.1800003051758
342.4776815,45.7799987792969
342.4933065,39.25
342.5089315,32.4599990844727
342.5245565,25.5599994659424
342.5401815,18.8999996185303
342.5558065,12.6899995803833
342.5714315,6.78999996185303
342.5870565,0.899999976158142
342.6026815,-4.96000003814697
342.6183065,-10.4799995422363
342.6339315,-15.3000001907349
342.6495565,-19.2999992370605
342.6651815,-22.6399993896484
342.6808065,-25.7199993133545
342.6964315,-29.0200004577637
342.7120565,-32.9000015258789
342.7276815,-37.4099998474121
342.7433065,-42.2799987792969
342.7589315,-47.1800003051758
342.7745565,-51.8400001525879
342.7901815,-56.060001373291
342.8058065,-59.4799995422363
342.8214315,-61.4500007629395
342.8370565,-61.2000007629395
342.8526815,-58.2299995422363
342.8683065,-52.6399993896484
342.8839315,-45.1599998474121
342.8995565,-36.8499984741211
342.9151815,-28.6800003051758
342.9308065,-21.2299995422363
342.9464315,-14.6400003433228
342.9620565,-8.69999980926514
342.9776815,-3.04999995231628
342.9933065,2.58999991416931
343.0089315,8.32999992370605
343.0245565,14.0200004577637
343.0401815,19.3899993896484
343.0558065,24.2000007629395
343.0714315,28.3199996948242
343.0870565,31.5
343.1026815,33.2700004577637
343.1183065,33.0900001525879
343.1339315,30.7299995422363
343.1495565,26.5
343.1651815,21.2000007629395
343.1808065,15.710000038147
343.1964315,10.6899995803833
343.2120565,6.40999984741211
343.2276815,2.69000005722046
343.2433065,-0.850000023841858
343.2589315,-4.76000022888184
343.2745565,-9.43000030517578
343.2901815,-14.9300003051758
343.3058065,-21.1399993896484
343.3214315,-27.9799995422363
343.3370565,-35.4199981689453
343.3526815,-43.2700004577637
343.3683065,-50.9300003051758
343.3839315,-57.4500007629395
343.3995565,-62.2200012207031
343.4151815,-65.4000015258789
343.4308065,-67.6800003051758
343.4464315,-69.5500030517578
343.4620565,-71.0500030517578
343.4776815,-71.9700012207031
343.4933065,-72.2300033569336
343.5089315,-71.8600006103516
343.5245565,-70.7300033569336
343.5401815,-68.3899993896484
343.5558065,-64.3499984741211
343.5714315,-58.5200004577637
343.5870565,-51.1699981689453
343.6026815,-42.6199989318848
343.6183065,-33.1300010681152
343.6339315,-23.0400009155273
343.6495565,-12.9300003051758
343.6651815,-3.49000000953674
343.6808065,4.80000019073486
343.6964315,12.0100002288818
343.7120565,18.3500003814697
343.7276815,23.7900009155273
343.7433065,28.0499992370605
343.7589315,30.9799995422363
343.7745565,32.75
343.7901815,33.7599983215332
343.8058065,34.2700004577637
343.8214315,34.2200012207031
343.8370565,33.3499984741211
343.8526815,31.5499992370605
343.8683065,28.8999996185303
343.8839315,25.5400009155273
343.8995565,21.6299991607666
343.9151815,17.3899993896484
343.9308065,13.1099996566772
343.9464315,9.10000038146973
343.9620565,5.42000007629395
343.9776815,1.78999996185303
343.9933065,-2.10999989509583
344.0089315,-6.30999994277954
344.0245565,-10.460000038147
344.0401815,-14.1400003433228
344.0558065,-17.1599998474121
344.0714315,-19.6000003814697
344.0870565,-21.7700004577637
344.1026815,-24.1399993896484
344.1183065,-27.0400009155273
344.1339315,-30.5499992370605
344.1495565,-34.4799995422363
344.1651815,-38.6300010681152
344.1808065,-42.8300018310547
344.1964315,-46.8899993896484
344.2120565,-50.5099983215332
344.2276815,-52.8400001525879
344.2433065,-53.0499992370605
344.2589315,-50.6300010681152
344.2745565,-45.6699981689453
344.2901815,-38.75
344.3058065,-30.5200004577637
344.3214315,-21.3999996185303
344.3370565,-11.5299997329712
344.3526815,-1.14999997615814
344.3683065,9.14999961853027
344.3839315,18.5599994659424
344.3995565,26.4099998474121
344.4151815,32.5999984741211
344.4308065,37.3699989318848
344.4464315,40.8899993896484
344.4620565,43.1800003051758
344.4776815,44.2900009155273
344.4933065,44.4900016784668
344.5089315,44.1599998474121
344.5245565,43.4700012207031
344.5401815,42.2900009155273
344.5558065,40.3400001525879
344.5714315,37.4900016784668
344.5870565,33.7799987792969
344.6026815,29.2999992370605
344.6183065,24.1200008392334
344.6339315,18.4500007629395
344.6495565,12.7200002670288
344.6651815,7.3899998664856
344.6808065,2.72000002861023
344.6964315,-1.49000000953674
344.7120565,-5.63000011444092
344.7276815,-9.72000026702881
344.7433065,-13.4899997711182
344.7589315,-16.6200008392334
344.7745565,-18.9799995422363
344.7901815,-20.75
344.8058065,-22.3500003814697
344.8214315,-24.2700004577637
344.8370565,-26.8999996185303
344.8526815,-30.2800006866455
344.8683065,-34.1300010681152
344.8839315,-38.0699996948242
344.8995565,-41.7900009155273
344.9151815,-45.0800018310547
344.9308065,-47.5800018310547
344.9464315,-48.6699981689453
344.9620565,-47.5499992370605
344.9776815,-43.689998626709
344.9933065,-37.1399993896484
345.0089315,-28.6200008392334
345.0245565,-19.2199993133545
345.0401815,-9.97999954223633
345.0558065,-1.52999997138977
345.0714315,5.96000003814697
345.0870565,12.6999998092651
345.1026815,19.0200004577637
345.1183065,25.2000007629395
345.1339315,31.3400001525879
345.1495565,37.3300018310547
345.1651815,42.9799995422363
345.1808065,48.1100006103516
345.1964315,52.5999984741211
345.2120565,56.189998626709
345.2276815,58.3499984741211
345.2433065,58.5400009155273
345.2589315,56.5900001525879
345.2745565,52.9099998474121
345.2901815,48.2900009155273
345.3058065,43.560001373291
345.3214315,39.2700004577637
345.3370565,35.5900001525879
345.3526815,32.3600006103516
345.3683065,29.2399997711182
345.3839315,25.7399997711182
345.3995565,21.5499992370605
345.4151815,16.6100006103516
345.4308065,11.0299997329712
345.4464315,4.86999988555908
345.4620565,-1.87999999523163
345.4776815,-9.07999992370605
345.4933065,-16.1900005340576
345.5089315,-22.4400005340576
345.5245565,-27.3299999237061
345.5401815,-31.0200004577637
345.5558065,-34.060001373291
345.5714315,-36.7999992370605
345.5870565,-39.1399993896484
345.6026815,-40.8800010681152
345.6183065,-41.939998626709
345.6339315,-42.3600006103516
345.6495565,-42.0200004577637
345.6651815,-40.4300003051758
345.6808065,-37.060001373291
345.6964315,-31.8500003814697
345.7120565,-25.3700008392334
345.7276815,-18.4799995422363
345.7433065,-11.9300003051758
345.7589315,-6.07000017166138
