Time(s),Value(%)
607.0022828,33.6699981689453
607.0179078,19.0699996948242
607.0335328,9.19999980926514
607.0491578,3.84999990463257
607.0647828,1.86000001430511
607.0804078,1.52999997138977
607.0960328,1.27999997138977
607.1116578,0.0199999995529652
607.1272828,-2.66000008583069
607.1429078,-6.76000022888184
607.1585328,-12.1199998855591
607.1741578,-18.7199993133545
607.1897828,-26.5
607.2054078,-35.2400016784668
607.2210328,-44.4700012207031
607.2366578,-53.6699981689453
607.2522828,-62.5099983215332
607.2679078,-70.7799987792969
607.2835328,-78.1100006103516
607.2991578,-83.7900009155273
607.3147828,-87.2399978637695
607.3304078,-88.4599990844727
607.3460328,-87.9899978637695
607.3616578,-86.4899978637695
607.3772828,-84.4800033569336
607.3929078,-82.1800003051758
607.4085328,-79.4300003051758
607.4241578,-75.9100036621094
607.4397828,-71.4199981689453
607.4554078,-66.129997253418
607.4710328,-60.4799995422363
607.4866578,-55.060001373291
607.5022828,-50.3800010681152
607.5179078,-46.7000007629395
607.5335328,-43.7599983215332
607.5491578,-40.4300003051758
607.5647828,-34.4000015258789
607.5804078,-22.1000003814697
607.5960328,-0.0299999993294477
607.6116578,33.0400009155273
607.6272828,74.7600021362305
607.6429078,119.23999786377
607.6585328,158.860000610352
607.6741578,187.190002441406
607.6897828,201.100006103516
607.7054078,200.979995727539
607.7210328,189.570007324219
607.7366578,170.279998779297
607.7522828,145.970001220703
607.7679078,118.459999084473
607.7835328,88.9700012207031
607.7991578,58.689998626709
607.8147828,28.8700008392334
607.8304078,0.720000028610229
607.8460328,-24.5300006866455
607.8616578,-45.7000007629395
607.8772828,-61.6599998474121
607.8929078,-71.7099990844727
607.9085328,-75.9400024414063
607.9241578,-75.4599990844727
607.9397828,-72.1800003051758
607.9554078,-68.1800003051758
607.9710328,-65.0100021362305
607.9866578,-63.3699989318848
608.0022828,-63.3800010681152
608.0179078,-64.9499969482422
608.0335328,-67.870002746582
608.0491578,-71.6399993896484
608.0647828,-75.4700012207031
608.0804078,-78.6800003051758
608.0960328,-80.9599990844727
608.1116578,-82.4199981689453
608.1272828,-83.2900009155273
608.1429078,-83.370002746582
608.1585328,-81.7900009155273
608.1741578,-77.629997253418
608.1897828,-70.870002746582
608.2054078,-62.7299995422363
608.2210328,-55.2099990844727
608.2366578,-49.9700012207031
608.2522828,-47.2200012207031
608.2679078,-45.4799995422363
608.2835328,-42.5499992370605
608.2991578,-36.9700012207031
608.3147828,-28.8299999237061
608.3304078,-19.4799995422363
608.3460328,-10.5100002288818
608.3616578,-2.71000003814697
608.3772828,4.84000015258789
608.3929078,14.8400001525879
608.4085328,30.6599998474121
608.4241578,54.1300010681152
608.4397828,83.9400024414063
608.4554078,115.800003051758
608.4710328,144.380004882813
608.4866578,165.360000610352
608.5022828,176.470001220703
608.5179078,177.550003051758
608.5335328,169.770004272461
608.5491578,154.75
608.5647828,134.339996337891
608.5804078,110.629997253418
608.5960328,85.9100036621094
608.6116578,62.2700004577637
608.6272828,41.0400009155273
608.6429078,22.6700000762939
608.6585328,7.15999984741211
608.6741578,-5.57000017166138
608.6897828,-15.5699996948242
608.7054078,-22.8400001525879
608.7210328,-27.5699996948242
608.7366578,-30.3199996948242
608.7522828,-32.2900009155273
608.7679078,-34.8499984741211
608.7835328,-38.6100006103516
608.7991578,-42.939998626709
608.8147828,-46.8800010681152
608.8304078,-50.2799987792969
608.8460328,-54.0299987792969
608.8616578,-59.25
608.8772828,-66.3000030517578
608.8929078,-74.370002746582
608.9085328,-81.9000015258789
608.9241578,-87.4199981689453
608.9397828,-90.2200012207031
608.9554078,-90.4300003051758
608.9710328,-88.7399978637695
608.9866578,-86.0599975585938
609.0022828,-83.4700012207031
609.0179078,-82.0999984741211
609.0335328,-82.4300003051758
609.0491578,-83.6800003051758
609.0647828,-84.2699966430664
609.0804078,-82.8399963378906
609.0960328,-78.8000030517578
609.1116578,-72.5199966430664
609.1272828,-65.0199966430664
609.1429078,-57.25
609.1585328,-49.4300003051758
609.1741578,-41.2099990844727
609.1897828,-32.1599998474121
609.2054078,-21.9699993133545
609.2210328,-9.8100004196167
609.2366578,6.30999994277954
609.2522828,29.2199993133545
609.2679078,60.7999992370605
609.2835328,99.4400024414063
609.2991578,139.509994506836
609.3147828,174.009994506836
609.3304078,197.740005493164
609.3460328,208.690002441406
609.3616578,207.690002441406
609.3772828,197.279998779297
609.3929078,180.360000610352
609.4085328,159.240005493164
609.4241578,135.270004272461
609.4397828,109.150001525879
609.4554078,81.6399993896484
609.4710328,54.3699989318848
609.4866578,29.5400009155273
609.5022828,8.85000038146973
609.5179078,-7.23999977111816
609.5335328,-19.3799991607666
609.5491578,-28.6900005340576
609.5647828,-36.0800018310547
609.5804078,-41.7099990844727
609.5960328,-45.1399993896484
609.6116578,-46.0400009155273
609.6272828,-44.9300003051758
609.6429078,-43.1800003051758
609.6585328,-42.1699981689453
609.6741578,-42.8899993896484
609.6897828,-45.7599983215332
609.7054078,-50.4500007629395
609.7210328,-55.9300003051758
609.7366578,-61.2900009155273
609.7522828,-66.0699996948242
609.7679078,-69.8600006103516
609.7835328,-72.4199981689453
609.7991578,-74.4199981689453
609.8147828,-76.9899978637695
609.8304078,-80.5500030517578
609.8460328,-84.4499969482422
609.8616578,-87.620002746582
609.8772828,-89.1800003051758
609.8929078,-88.629997253418
609.9085328,-85.8399963378906
609.9241578,-80.7799987792969
609.9397828,-73.4899978637695
609.9554078,-64.2099990844727
609.9710328,-53.439998626709
609.9866578,-41.9000015258789
610.0022828,-30.4300003051758
610.0179078,-19.8799991607666
610.0335328,-10.6999998092651
610.0491578,-2.79999995231628
610.0647828,4.63000011444092
610.0804078,13.6000003814697
610.0960328,27.2099990844727
610.1116578,48.7400016784668
610.1272828,79.3099975585938
610.1429078,116.279998779297
610.1585328,154.169998168945
610.1741578,186.960006713867
610.1897828,209.960006713867
610.2054078,220.880004882813
610.2210328,220.029998779297
610.2366578,209.619995117188
610.2522828,192.490005493164
610.2679078,171.160003662109
610.2835328,147.389999389648
610.2991578,122.269996643066
610.3147828,96.8099975585938
610.3304078,72.2600021362305
610.3460328,49.9000015258789
610.3616578,30.5699996948242
610.3772828,14.6000003814697
610.3929078,2.0
610.4085328,-7.40000009536743
610.4241578,-13.9200000762939
610.4397828,-17.9799995422363
610.4554078,-20.2900009155273
610.4710328,-22.0200004577637
610.4866578,-24.5200004577637
610.5022828,-28.7299995422363
610.5179078,-34.8600006103516
610.5335328,-42.4500007629395
610.5491578,-50.7900009155273
610.5647828,-59.3199996948242
610.5804078,-67.7300033569336
610.5960328,-75.9100036621094
610.6116578,-83.7900009155273
610.6272828,-91.2399978637695
610.6429078,-98.0999984741211
610.6585328,-104.099998474121
610.6741578,-108.73999786377
610.6897828,-111.459999084473
610.7054078,-111.970001220703
610.7210328,-110.419998168945
610.7366578,-107.139999389648
610.7522828,-102.48999786377
610.7679078,-96.7799987792969
610.7835328,-90.3499984741211
610.7991578,-83.6399993896484
610.8147828,-77.0199966430664
610.8304078,-70.6100006103516
610.8460328,-64.2799987792969
610.8616578,-57.439998626709
610.8772828,-48.689998626709
610.8929078,-35.1300010681152
610.9085328,-12.9099998474121
610.9241578,19.4799995422363
610.9397828,58.2299995422363
610.9554078,95.5299987792969
610.9710328,123.839996337891
610.9866578,139.309997558594
611.0022828,142.350006103516
611.0179078,136.029998779297
611.0335328,123.940002441406
611.0491578,108.699996948242
611.0647828,91.7699966430664
611.0804078,73.8899993896484
611.0960328,55.5900001525879
611.1116578,37.3499984741211
611.1272828,19.7399997711182
611.1429078,3.54999995231628
611.1585328,-10.210000038147
611.1741578,-20.4799995422363
611.1897828,-26.5
611.2054078,-28.1900005340576
611.2210328,-26.2399997711182
611.2366578,-22.0499992370605
611.2522828,-17.3400001525879
611.2679078,-13.75
611.2835328,-12.4899997711182
611.2991578,-14.1099996566772
611.3147828,-18.4799995422363
611.3304078,-24.7700004577637
611.3460328,-31.9200000762939
611.3616578,-39.0900001525879
611.3772828,-45.9300003051758
611.3929078,-52.3699989318848
611.4085328,-58.4900016784668
611.4241578,-64.1900024414063
611.4397828,-69.0800018310547
611.4554078,-72.6399993896484
611.4710328,-74.5199966430664
611.4866578,-74.6999969482422
611.5022828,-73.3499984741211
611.5179078,-70.7300033569336
611.5335328,-67.1100006103516
611.5491578,-62.7999992370605
611.5647828,-58.0999984741211
611.5804078,-53.1699981689453
611.5960328,-47.9900016784668
611.6116578,-42.5400009155273
611.6272828,-36.9000015258789
611.6429078,-30.7199993133545
611.6585328,-22.2399997711182
611.6741578,-8.23999977111816
611.6897828,14.4099998474121
611.7054078,46.0900001525879
611.7210328,82.7600021362305
611.7366578,117.319999694824
611.7522828,143.149993896484
611.7679078,156.860000610352
611.7835328,158.809997558594
611.7991578,151.860000610352
611.8147828,139.460006713867
611.8304078,124.220001220703
611.8460328,107.550003051758
611.8616578,90.129997253418
611.8772828,72.4499969482422
611.8929078,55.0200004577637
611.9085328,38.2799987792969
611.9241578,22.6800003051758
611.9397828,8.93000030517578
611.9554078,-2.0699999332428
611.9710328,-9.72999954223633
611.9866578,-13.9799995422363
612.0022828,-15.3500003814697
612.0179078,-14.8500003814697
612.0335328,-13.789999961853
612.0491578,-13.4499998092651
612.0647828,-14.6899995803833
612.0804078,-17.7700004577637
612.0960328,-22.4200000762939
612.1116578,-28.1499996185303
612.1272828,-34.5400009155273
612.1429078,-41.2900009155273
612.1585328,-48.2099990844727
612.1741578,-55.0499992370605
612.1897828,-61.3699989318848
612.2054078,-66.75
612.2210328,-70.8899993896484
612.2366578,-73.6699981689453
612.2522828,-75.0500030517578
612.2679078,-75.0999984741211
612.2835328,-73.9499969482422
612.2991578,-71.8300018310547
612.3147828,-68.9499969482422
612.3304078,-65.25
612.3460328,-60.560001373291
612.3616578,-54.9000015258789
612.3772828,-48.6399993896484
612.3929078,-42.310001373291
612.4085328,-36.4300003051758
612.4241578,-31.1800003051758
612.4397828,-26.3299999237061
612.4554078,-21.1000003814697
612.4710328,-13.6899995803833
612.4866578,-1.12000000476837
612.5022828,19.6700000762939
612.5179078,49.5099983215332
612.5335328,85.1500015258789
612.5491578,120.400001525879
612.5647828,148.910003662109
612.5804078,166.240005493164
612.5960328,171.050003051758
612.6116578,164.809997558594
612.6272828,150.729995727539
612.6429078,132.259994506836
612.6585328,112.040000915527
612.6741578,91.5599975585938
612.6897828,71.5800018310547
612.7054078,52.5299987792969
612.7210328,34.810001373291
612.7366578,18.8299999237061
612.7522828,4.96999979019165
612.7679078,-6.32999992370605
612.7835328,-14.7299995422363
612.7991578,-20.1399993896484
612.8147828,-23.0499992370605
612.8304078,-24.25
612.8460328,-24.5
612.8616578,-24.4099998474121
612.8772828,-24.5300006866455
612.8929078,-25.3299999237061
612.9085328,-27.2199993133545
612.9241578,-30.6299991607666
612.9397828,-35.8199996948242
612.9554078,-42.6399993896484
612.9710328,-50.439998626709
612.9866578,-58.310001373291
613.0022828,-65.5199966430664
613.0179078,-71.7200012207031
613.0335328,-76.870002746582
613.0491578,-81.120002746582
613.0647828,-84.6600036621094
613.0804078,-87.4000015258789
613.0960328,-88.879997253418
613.1116578,-88.6399993896484
613.1272828,-86.4100036621094
613.1429078,-82.2300033569336
613.1585328,-76.4000015258789
613.1741578,-69.5899963378906
613.1897828,-62.5499992370605
613.2054078,-55.810001373291
613.2210328,-49.4300003051758
613.2366578,-43.1199989318848
613.2522828,-36.7700004577637
613.2679078,-30.7000007629395
613.2835328,-25.3999996185303
613.2991578,-20.9300003051758
613.3147828,-16.6200008392334
613.3304078,-10.960000038147
613.3460328,-1.42999994754791
613.3616578,14.9799995422363
613.3772828,39.9199981689453
613.3929078,71.5299987792969
613.4085328,104.610000610352
613.4241578,132.940002441406
613.4397828,152.070007324219
613.4554078,160.410003662109
613.4710328,158.770004272461
613.4866578,149.369995117188
613.5022828,134.789993286133
613.5179078,117.199996948242
613.5335328,98.1699981689453
613.5491578,78.6699981689453
613.5647828,59.2999992370605
613.5804078,40.5800018310547
613.5960328,23.2800006866455
613.6116578,8.52000045776367
613.6272828,-2.4300000667572
613.6429078,-8.60999965667725
613.6585328,-9.84000015258789
613.6741578,-7.21000003814697
613.6897828,-2.90000009536743
613.7054078,0.680000007152557
613.7210328,1.86000001430511
613.7366578,0.189999997615814
613.7522828,-3.71000003814697
613.7679078,-8.85000038146973
613.7835328,-14.5299997329712
613.7991578,-20.5900001525879
613.8147828,-27.2199993133545
613.8304078,-34.5499992370605
613.8460328,-42.3400001525879
613.8616578,-49.9599990844727
613.8772828,-56.7200012207031
613.8929078,-62.0800018310547
613.9085328,-65.6900024414063
613.9241578,-67.5100021362305
613.9397828,-67.7600021362305
613.9554078,-66.7600021362305
613.9710328,-64.75
613.9866578,-61.9099998474121
614.0022828,-58.3699989318848
614.0179078,-54.2000007629395
614.0335328,-49.5299987792969
614.0491578,-44.6399993896484
614.0647828,-39.9000015258789
614.0804078,-35.7000007629395
614.0960328,-32.0999984741211
614.1116578,-28.5599994659424
614.1272828,-23.5
614.1429078,-14.3299999237061
614.1585328,1.62000000476837
614.1741578,25.4200000762939
614.1897828,55.5999984741211
614.2054078,88.0400009155273
614.2210328,117.040000915527
614.2366578,137.660003662109
614.2522828,147.440002441406
614.2679078,146.660003662109
614.2835328,137.449996948242
614.2991578,122.610000610352
614.3147828,104.709999084473
614.3304078,85.5100021362305
614.3460328,66.0
614.3616578,46.7299995422363
614.3772828,28.1800003051758
614.3929078,10.9200000762939
614.4085328,-4.32000017166138
614.4241578,-16.8700008392334
614.4397828,-26.2099990844727
614.4554078,-32.2400016784668
614.4710328,-35.3800010681152
614.4866578,-36.4900016784668
614.5022828,-36.5999984741211
614.5179078,-36.689998626709
614.5335328,-37.5
614.5491578,-39.4199981689453
614.5647828,-42.6500015258789
614.5804078,-47.3600006103516
614.5960328,-53.5099983215332
614.6116578,-60.5999984741211
614.6272828,-67.8000030517578
614.6429078,-74.3600006103516
614.6585328,-79.7900009155273
614.6741578,-84.0699996948242
614.6897828,-87.5899963378906
614.7054078,-90.629997253418
614.7210328,-93.0500030517578
614.7366578,-94.3499984741211
614.7522828,-94.0699996948242
614.7679078,-91.9499969482422
614.7835328,-88.0699996948242
614.7991578,-82.879997253418
614.8147828,-77.0500030517578
614.8304078,-71.2200012207031
614.8460328,-65.629997253418
614.8616578,-60.0699996948242
614.8772828,-54.2200012207031
614.8929078,-47.9599990844727
614.9085328,-41.0499992370605
614.9241578,-32.2000007629395
614.9397828,-18.5200004577637
614.9554078,3.03999996185303
614.9710328,33.2400016784668
614.9866578,69.3899993896484
615.0022828,106.449996948242
615.0179078,139.100006103516
615.0335328,163.490005493164
615.0491578,177.899993896484
615.0647828,182.440002441406
615.0804078,178.369995117188
615.0960328,167.389999389648
615.1116578,151.350006103516
615.1272828,132.089996337891
615.1429078,111.379997253418
615.1585328,90.5699996948242
615.1741578,70.4400024414063
615.1897828,51.189998626709
615.2054078,32.8600006103516
615.2210328,15.9200000762939
615.2366578,1.17999994754791
615.2522828,-10.6499996185303
615.2679078,-19.4599990844727
615.2835328,-25.7800006866455
615.2991578,-30.6399993896484
615.3147828,-35.1699981689453
615.3304078,-40.1100006103516
615.3460328,-45.5900001525879
615.3616578,-51.1599998474121
615.3772828,-56.2999992370605
615.3929078,-60.7700004577637
615.4085328,-64.7099990844727
615.4241578,-68.4199981689453
615.4397828,-72.25
615.4554078,-76.2300033569336
615.4710328,-79.870002746582
615.4866578,-82.5400009155273
615.5022828,-83.7200012207031
615.5179078,-83.1399993896484
615.5335328,-80.7300033569336
615.5491578,-76.6100006103516
615.5647828,-71.1800003051758
615.5804078,-65.0199966430664
615.5960328,-58.75
615.6116578,-52.7700004577637
615.6272828,-47.2099990844727
615.6429078,-41.8499984741211
615.6585328,-36.3800010681152
615.6741578,-30.6800003051758
615.6897828,-24.8899993896484
615.7054078,-18.7099990844727
615.7210328,-10.5299997329712
615.7366578,2.5
615.7522828,23.0100002288818
615.7679078,51.5200004577637
615.7835328,85.5699996948242
615.7991578,120.449996948242
615.8147828,151.100006103516
615.8304078,173.740005493164
615.8460328,186.320007324219
615.8616578,188.179992675781
615.8772828,179.860000610352
615.8929078,163.220001220703
615.9085328,141.160003662109
615.9241578,116.73999786377
615.9397828,92.2300033569336
615.9554078,69.0
615.9710328,47.810001373291
615.9866578,29.2299995422363
616.0022828,13.789999961853
616.0179078,1.96000003814697
616.0335328,-6.09000015258789
616.0491578,-10.7200002670288
616.0647828,-12.8500003814697
616.0804078,-13.6999998092651
616.0960328,-14.4499998092651
616.1116578,-16.0
616.1272828,-18.9200000762939
616.1429078,-23.5
616.1585328,-29.6599998474121
616.1741578,-36.9599990844727
616.1897828,-45.1100006103516
616.2054078,-54.2999992370605
616.2210328,-64.7200012207031
616.2366578,-75.7600021362305
616.2522828,-86.0100021362305
616.2679078,-94.0299987792969
616.2835328,-98.9300003051758
616.2991578,-100.650001525879
616.3147828,-99.8499984741211
616.3304078,-97.6100006103516
616.3460328,-94.9800033569336
616.3616578,-92.4300003051758
616.3772828,-89.6399993896484
616.3929078,-85.8099975585938
616.4085328,-80.1699981689453
616.4241578,-72.5899963378906
616.4397828,-63.689998626709
616.4554078,-54.4799995422363
616.4710328,-45.7599983215332
616.4866578,-37.6599998474121
616.5022828,-29.2299995422363
616.5179078,-18.25
616.5335328,-1.83000004291534
616.5491578,21.8999996185303
616.5647828,51.9300003051758
616.5804078,83.5999984741211
616.5960328,111.419998168945
616.6116578,133.25
616.6272828,150.119995117188
616.6429078,163.009994506836
616.6585328,171.070007324219
616.6741578,172.460006713867
616.6897828,165.889999389648
616.7054078,151.610000610352
616.7210328,131.570007324219
616.7366578,108.589996337891
616.7522828,85.379997253418
616.7679078,63.6599998474121
616.7835328,44.1199989318848
616.7991578,26.8099994659424
616.8147828,11.6199998855591
616.8304078,-1.4099999666214
616.8460328,-12.1000003814697
616.8616578,-20.1100006103516
616.8772828,-25.1700000762939
616.8929078,-27.5400009155273
616.9085328,-28.1000003814697
616.9241578,-28.2700004577637
616.9397828,-29.3600006103516
616.9554078,-32.1800003051758
616.9710328,-36.9900016784668
616.9866578,-43.6800003051758
617.0022828,-51.8800010681152
617.0179078,-61.0
617.0335328,-70.2099990844727
617.0491578,-78.629997253418
617.0647828,-85.5299987792969
617.0804078,-90.4700012207031
617.0960328,-93.3899993896484
617.1116578,-94.629997253418
617.1272828,-94.6500015258789
617.1429078,-93.6500015258789
617.1585328,-91.5100021362305
617.1741578,-88.1500015258789
617.1897828,-83.8399963378906
617.2054078,-79.129997253418
617.2210328,-74.5999984741211
617.2366578,-70.4800033569336
617.2522828,-66.5800018310547
617.2679078,-62.5699996948242
617.2835328,-58.3499984741211
617.2991578,-53.810001373291
617.3147828,-48.1100006103516
617.3304078,-39.060001373291
617.3460328,-23.1800003051758
617.3616578,2.8199999332428
617.3772828,38.9700012207031
617.3929078,80.4100036621094
617.4085328,119.519996643066
617.4241578,149.399993896484
617.4397828,166.240005493164
617.4554078,169.690002441406
617.4710328,161.889999389648
617.4866578,146.039993286133
617.5022828,125.230003356934
617.5179078,101.959999084473
617.5335328,78.0
617.5491578,54.4799995422363
617.5647828,32.1699981689453
617.5804078,11.7700004577637
617.5960328,-5.98999977111816
617.6116578,-20.4599990844727
617.6272828,-31.1700000762939
617.6429078,-37.9700012207031
617.6585328,-41.2599983215332
617.6741578,-41.9099998474121
617.6897828,-41.0499992370605
