Time(s),Value(%)
607.0022828,-19.6900005340576
607.0179078,-19.5799999237061
607.0335328,-19.2999992370605
607.0491578,-18.9099998474121
607.0647828,-18.6599998474121
607.0804078,-18.7099990844727
607.0960328,-18.8400001525879
607.1116578,-18.5799999237061
607.1272828,-17.7700004577637
607.1429078,-16.7800006866455
607.1585328,-16.1200008392334
607.1741578,-15.9799995422363
607.1897828,-15.9899997711182
607.2054078,-15.4399995803833
607.2210328,-13.3000001907349
607.2366578,-8.14999961853027
607.2522828,1.27999997138977
607.2679078,14.9499998092651
607.2835328,30.9699993133545
607.2991578,46.2900009155273
607.3147828,57.8899993896484
607.3304078,63.8300018310547
607.3460328,63.6399993896484
607.3616578,58.4000015258789
607.3772828,50.2200012207031
607.3929078,41.3300018310547
607.4085328,33.1100006103516
607.4241578,25.8400001525879
607.4397828,19.1800003051758
607.4554078,12.8199996948242
607.4710328,6.80000019073486
607.4866578,1.47000002861023
607.5022828,-2.64000010490417
607.5179078,-5.0
607.5335328,-5.3899998664856
607.5491578,-4.34999990463257
607.5647828,-3.04999995231628
607.5804078,-2.63000011444092
607.5960328,-3.54999995231628
607.6116578,-5.53000020980835
607.6272828,-7.96000003814697
607.6429078,-10.3400001525879
607.6585328,-12.3699998855591
607.6741578,-13.9399995803833
607.6897828,-15.1199998855591
607.7054078,-16.0799999237061
607.7210328,-17.0499992370605
607.7366578,-18.2199993133545
607.7522828,-19.6100006103516
607.7679078,-21.0799999237061
607.7835328,-22.3099994659424
607.7991578,-22.9799995422363
607.8147828,-23.0699996948242
607.8304078,-23.0100002288818
607.8460328,-23.2299995422363
607.8616578,-23.6000003814697
607.8772828,-23.4400005340576
607.8929078,-22.0799999237061
607.9085328,-19.4899997711182
607.9241578,-16.2299995422363
607.9397828,-12.9700002670288
607.9554078,-9.9399995803833
607.9710328,-7.0
607.9866578,-3.99000000953674
608.0022828,-0.970000028610229
608.0179078,1.88999998569489
608.0335328,4.53000020980835
608.0491578,7.21999979019165
608.0647828,11.1199998855591
608.0804078,18.2000007629395
608.0960328,29.9699993133545
608.1116578,45.7700004577637
608.1272828,62.2999992370605
608.1429078,75.0800018310547
608.1585328,80.7600021362305
608.1741578,78.4700012207031
608.1897828,69.5
608.2054078,56.2099990844727
608.2210328,41.1599998474121
608.2366578,26.6000003814697
608.2522828,14.0200004577637
608.2679078,3.84999990463257
608.2835328,-4.19000005722046
608.2991578,-10.710000038147
608.3147828,-16.1299991607666
608.3304078,-20.6499996185303
608.3460328,-24.1299991607666
608.3616578,-26.2299995422363
608.3772828,-26.5799999237061
608.3929078,-25.2199993133545
608.4085328,-22.7999992370605
608.4241578,-20.1700000762939
608.4397828,-17.8099994659424
608.4554078,-15.6999998092651
608.4710328,-13.7600002288818
608.4866578,-12.1700000762939
608.5022828,-11.1899995803833
608.5179078,-11.1499996185303
608.5335328,-12.460000038147
608.5491578,-15.5100002288818
608.5647828,-20.0499992370605
608.5804078,-25.0699996948242
608.5960328,-29.2900009155273
608.6116578,-31.9799995422363
608.6272828,-33.2299995422363
608.6429078,-33.7099990844727
608.6585328,-34.189998626709
608.6741578,-35.0200004577637
608.6897828,-36.0699996948242
608.7054078,-37.0699996948242
608.7210328,-37.8199996948242
608.7366578,-38.1199989318848
608.7522828,-37.7099990844727
608.7679078,-36.4000015258789
608.7835328,-34.1399993896484
608.7991578,-31.0499992370605
608.8147828,-27.2999992370605
608.8304078,-23.1200008392334
608.8460328,-18.9300003051758
608.8616578,-15.3299999237061
608.8772828,-12.7299995422363
608.8929078,-10.7600002288818
608.9085328,-8.10000038146973
608.9241578,-2.66000008583069
608.9397828,7.40000009536743
608.9554078,22.1700000762939
608.9710328,39.1199989318848
608.9866578,53.9799995422363
609.0022828,62.9099998474121
609.0179078,64.4400024414063
609.0335328,59.9700012207031
609.0491578,52.4799995422363
609.0647828,44.7999992370605
609.0804078,38.4500007629395
609.0960328,33.5800018310547
609.1116578,29.5799999237061
609.1272828,25.5499992370605
609.1429078,20.7000007629395
609.1585328,14.7200002670288
609.1741578,8.02000045776367
609.1897828,1.46000003814697
609.2054078,-3.95000004768372
609.2210328,-7.40000009536743
609.2366578,-8.5600004196167
609.2522828,-7.92999982833862
609.2679078,-6.67000007629395
609.2835328,-5.92999982833862
609.2991578,-6.26000022888184
609.3147828,-7.42000007629395
609.3304078,-8.89000034332275
609.3460328,-10.3400001525879
609.3616578,-11.8500003814697
609.3772828,-13.539999961853
609.3929078,-15.3199996948242
609.4085328,-16.9099998474121
609.4241578,-18.1200008392334
609.4397828,-18.9400005340576
609.4554078,-19.4099998474121
609.4710328,-19.6299991607666
609.4866578,-19.8500003814697
609.5022828,-20.25
609.5179078,-20.6399993896484
609.5335328,-20.6000003814697
609.5491578,-19.9500007629395
609.5647828,-18.8199996948242
609.5804078,-17.3199996948242
609.5960328,-15.539999961853
609.6116578,-13.6400003433228
609.6272828,-11.8100004196167
609.6429078,-10.0600004196167
609.6585328,-8.13000011444092
609.6741578,-5.57999992370605
609.6897828,-2.28999996185303
609.7054078,1.42999994754791
609.7210328,5.21000003814697
609.7366578,9.15999984741211
609.7522828,14.3000001907349
609.7679078,22.1100006103516
609.7835328,33.2099990844727
609.7991578,46.310001373291
609.8147828,58.5200004577637
609.8304078,66.7799987792969
609.8460328,69.25
609.8616578,65.9800033569336
609.8772828,58.560001373291
609.8929078,49.1500015258789
609.9085328,39.5200004577637
609.9241578,30.6000003814697
609.9397828,22.6000003814697
609.9554078,14.7600002288818
609.9710328,3.58999991416931
609.9866578,-18.75
610.0022828,-61.0999984741211
610.0179078,-124.129997253418
610.0335328,-193.869995117188
610.0491578,-246.309997558594
610.0647828,-260.700012207031
610.0804078,-231.110000610352
610.0960328,-168.570007324219
610.1116578,-94.0599975585938
610.1272828,-28.1000003814697
610.1429078,17.2800006866455
610.1585328,40.7999992370605
610.1741578,48.7099990844727
610.1897828,49.5
610.2054078,49.7099990844727
610.2210328,52.25
610.2366578,56.9199981689453
610.2522828,61.7099990844727
610.2679078,64.2699966430664
610.2835328,63.2299995422363
610.2991578,58.8800010681152
610.3147828,52.8300018310547
610.3304078,46.9700012207031
610.3460328,42.3600006103516
610.3616578,39.1399993896484
610.3772828,37.3199996948242
610.3929078,37.310001373291
610.4085328,40.1199989318848
610.4241578,47.3899993896484
610.4397828,61.0900001525879
610.4554078,82.0899963378906
610.4710328,108.599998474121
610.4866578,136.309997558594
610.5022828,160.360000610352
610.5179078,177.350006103516
610.5335328,186.429992675781
610.5491578,189.110000610352
610.5647828,188.179992675781
610.5804078,185.75
610.5960328,181.690002441406
610.6116578,173.660003662109
610.6272828,158.839996337891
610.6429078,136.220001220703
610.6585328,107.650001525879
610.6741578,77.120002746582
610.6897828,48.6399993896484
610.7054078,24.6000003814697
610.7210328,5.53999996185303
610.7366578,-9.23999977111816
610.7522828,-21.0499992370605
610.7679078,-31.2900009155273
610.7835328,-40.8800010681152
610.7991578,-49.8400001525879
610.8147828,-57.5999984741211
610.8304078,-63.6699981689453
610.8460328,-67.9599990844727
610.8616578,-70.6600036621094
610.8772828,-72.0100021362305
610.8929078,-72.4300003051758
610.9085328,-72.6800003051758
610.9241578,-73.5699996948242
610.9397828,-75.2900009155273
610.9554078,-77.3899993896484
610.9710328,-79.2099990844727
610.9866578,-80.3199996948242
611.0022828,-80.7099990844727
611.0179078,-80.6999969482422
611.0335328,-80.7900009155273
611.0491578,-81.4000015258789
611.0647828,-82.5400009155273
611.0804078,-83.8300018310547
611.0960328,-84.5899963378906
611.1116578,-84.3399963378906
611.1272828,-83.0100021362305
611.1429078,-80.7200012207031
611.1585328,-77.620002746582
611.1741578,-74.0500030517578
611.1897828,-70.5699996948242
611.2054078,-67.7399978637695
611.2210328,-65.4899978637695
611.2366578,-63.1599998474121
611.2522828,-60.2099990844727
611.2679078,-56.8199996948242
611.2835328,-53.5499992370605
611.2991578,-50.5900001525879
611.3147828,-47.2999992370605
611.3304078,-42.3899993896484
611.3460328,-34.4099998474121
611.3616578,-22.4099998474121
611.3772828,-6.67999982833862
611.3929078,10.7700004577637
611.4085328,26.6599998474121
611.4241578,37.6100006103516
611.4397828,41.7900009155273
611.4554078,39.5900001525879
611.4710328,33.1599998474121
611.4866578,25.1200008392334
611.5022828,17.5599994659424
611.5179078,11.6199998855591
611.5335328,7.30999994277954
611.5491578,3.80999994277954
611.5647828,0.109999999403954
611.5804078,-4.26999998092651
611.5960328,-9.0600004196167
611.6116578,-13.5500001907349
611.6272828,-17.1000003814697
611.6429078,-19.4099998474121
611.6585328,-20.3500003814697
611.6741578,-19.9099998474121
611.6897828,-18.2900009155273
611.7054078,-16.0200004577637
611.7210328,-13.8100004196167
611.7366578,-12.3900003433228
611.7522828,-12.3999996185303
611.7679078,-14.1599998474121
611.7835328,-17.5200004577637
611.7991578,-21.7299995422363
611.8147828,-25.75
611.8304078,-28.6000003814697
611.8460328,-29.6900005340576
611.8616578,-29.0799999237061
611.8772828,-27.3799991607666
611.8929078,-25.4799995422363
611.9085328,-23.9899997711182
611.9241578,-22.8400001525879
611.9397828,-21.4599990844727
611.9554078,-19.4899997711182
611.9710328,-17.2999992370605
611.9866578,-15.6700000762939
612.0022828,-15.0500001907349
612.0179078,-15.1599998474121
612.0335328,-15.2299995422363
612.0491578,-14.5900001525879
612.0647828,-12.9799995422363
612.0804078,-10.5
612.0960328,-7.48000001907349
612.1116578,-4.40999984741211
612.1272828,-1.80999994277954
612.1429078,0.419999986886978
612.1585328,3.67000007629395
612.1741578,10.1899995803833
612.1897828,21.5499992370605
612.2054078,37.060001373291
612.2210328,53.810001373291
612.2366578,68.0500030517578
612.2522828,76.7300033569336
612.2679078,78.4800033569336
612.2835328,73.8399963378906
612.2991578,65.0400009155273
612.3147828,55.0800018310547
612.3304078,46.3699989318848
612.3460328,39.9300003051758
612.3616578,35.5299987792969
612.3772828,32.5
612.3929078,30.0900001525879
612.4085328,27.5599994659424
612.4241578,24.4099998474121
612.4397828,20.7800006866455
612.4554078,17.4400005340576
612.4710328,15.0600004196167
612.4866578,13.5500001907349
612.5022828,12.2299995422363
612.5179078,10.3400001525879
612.5335328,7.46999979019165
612.5491578,3.66000008583069
612.5647828,-0.689999997615814
612.5804078,-5.17999982833862
612.5960328,-9.55000019073486
612.6116578,-13.6300001144409
612.6272828,-17.1700000762939
612.6429078,-19.8500003814697
612.6585328,-21.4699993133545
612.6741578,-22.1399993896484
612.6897828,-22.3700008392334
612.7054078,-22.8299999237061
612.7210328,-23.7999992370605
612.7366578,-24.9300003051758
612.7522828,-25.5300006866455
612.7679078,-25.1900005340576
612.7835328,-23.9500007629395
612.7991578,-22.1599998474121
612.8147828,-20.2900009155273
612.8304078,-18.7600002288818
612.8460328,-17.6399993896484
612.8616578,-16.3400001525879
612.8772828,-13.9799995422363
612.8929078,-10.1800003051758
612.9085328,-5.51999998092651
612.9241578,-1.25
612.9397828,1.53999996185303
612.9554078,2.53999996185303
612.9710328,2.34999990463257
612.9866578,2.57999992370605
613.0022828,5.65999984741211
613.0179078,13.7799997329712
613.0335328,27.3400001525879
613.0491578,44.1500015258789
613.0647828,60.2799987792969
613.0804078,71.9000015258789
613.0960328,76.75
613.1116578,74.5999984741211
613.1272828,67.1699981689453
613.1429078,57.2700004577637
613.1585328,47.5200004577637
613.1741578,39.2700004577637
613.1897828,32.3199996948242
613.2054078,25.6200008392334
613.2210328,18.4599990844727
613.2366578,11.1000003814697
613.2522828,4.51000022888184
613.2679078,-0.449999988079071
613.2835328,-3.36999988555908
613.2991578,-4.09000015258789
613.3147828,-2.79999995231628
613.3304078,-0.25
613.3460328,2.50999999046326
613.3616578,4.69000005722046
613.3772828,6.0
613.3929078,6.44999980926514
613.4085328,5.98000001907349
613.4241578,4.55000019073486
613.4397828,2.46000003814697
613.4554078,0.360000014305115
613.4710328,-1.22000002861023
613.4866578,-2.35999989509583
613.5022828,-3.46000003814697
613.5179078,-4.8899998664856
613.5335328,-6.92999982833862
613.5491578,-9.94999980926514
613.5647828,-14.1999998092651
613.5804078,-19.2000007629395
613.5960328,-23.8600006103516
613.6116578,-27.0599994659424
613.6272828,-28.2000007629395
613.6429078,-27.3400001525879
613.6585328,-25.0100002288818
613.6741578,-22.0400009155273
613.6897828,-19.2900009155273
613.7054078,-17.3299999237061
613.7210328,-16.2099990844727
613.7366578,-15.539999961853
613.7522828,-15.1000003814697
613.7679078,-14.9300003051758
613.7835328,-14.7700004577637
613.7991578,-13.2299995422363
613.8147828,-8.11999988555908
613.8304078,2.07999992370605
613.8460328,16.8400001525879
613.8616578,33.2000007629395
613.8772828,47.1199989318848
613.8929078,55.2000007629395
613.9085328,56.189998626709
613.9241578,51.3400001525879
613.9397828,43.4799995422363
613.9554078,35.310001373291
613.9710328,28.1900005340576
613.9866578,22.2999992370605
614.0022828,17.3500003814697
614.0179078,13.1400003433228
614.0335328,9.19999980926514
614.0491578,4.86999988555908
614.0647828,-0.119999997317791
614.0804078,-5.19000005722046
614.0960328,-9.21000003814697
614.1116578,-11.5
614.1272828,-12.1400003433228
614.1429078,-11.6700000762939
614.1585328,-10.6199998855591
614.1741578,-9.3100004196167
614.1897828,-8.06999969482422
614.2054078,-7.36999988555908
614.2210328,-7.57000017166138
614.2366578,-8.64999961853027
614.2522828,-10.4700002670288
614.2679078,-12.960000038147
614.2835328,-16.0400009155273
614.2991578,-19.3199996948242
614.3147828,-22.2199993133545
614.3304078,-24.2800006866455
614.3460328,-25.3899993896484
614.3616578,-25.7900009155273
614.3772828,-25.8600006103516
614.3929078,-25.8199996948242
614.4085328,-25.6900005340576
614.4241578,-25.3299999237061
614.4397828,-24.5699996948242
614.4554078,-23.5100002288818
614.4710328,-22.5400009155273
614.4866578,-21.9300003051758
614.5022828,-21.5400009155273
614.5179078,-21.1100006103516
614.5335328,-20.5799999237061
614.5491578,-20.1599998474121
614.5647828,-19.9599990844727
614.5804078,-19.5300006866455
614.5960328,-17.7299995422363
614.6116578,-12.9799995422363
614.6272828,-3.78999996185303
614.6429078,10.1099996566772
614.6585328,26.9599990844727
614.6741578,43.1500015258789
614.6897828,54.7299995422363
614.7054078,59.310001373291
614.7210328,57.2099990844727
614.7366578,50.9099998474121
614.7522828,43.1199989318848
614.7679078,35.3600006103516
614.7835328,27.9899997711182
614.7991578,20.9699993133545
614.8147828,14.4300003051758
614.8304078,8.52999973297119
614.8460328,3.20000004768372
614.8616578,-1.62999999523163
614.8772828,-5.69999980926514
614.8929078,-8.43000030517578
614.9085328,-9.48999977111816
614.9241578,-9.01000022888184
614.9397828,-7.59000015258789
614.9554078,-6.07000017166138
614.9710328,-5.3899998664856
614.9866578,-6.09000015258789
615.0022828,-8.02999973297119
615.0179078,-10.6400003433228
615.0335328,-13.3999996185303
615.0491578,-16.1800003051758
615.0647828,-18.9400005340576
615.0804078,-21.4300003051758
615.0960328,-23.3400001525879
615.1116578,-24.6599998474121
615.1272828,-25.7099990844727
615.1429078,-26.7299995422363
615.1585328,-27.5300006866455
615.1741578,-27.6700000762939
615.1897828,-26.9599990844727
615.2054078,-25.6200008392334
615.2210328,-24.0799999237061
615.2366578,-22.6499996185303
615.2522828,-21.3999996185303
615.2679078,-20.0300006866455
615.2835328,-18.2800006866455
615.2991578,-16.2299995422363
615.3147828,-14.4200000762939
615.3304078,-13.5100002288818
615.3460328,-13.6800003051758
615.3616578,-14.460000038147
615.3772828,-14.9099998474121
615.3929078,-14.0299997329712
615.4085328,-10.5
615.4241578,-2.66000008583069
615.4397828,10.5200004577637
615.4554078,27.9099998474121
615.4710328,45.810001373291
615.4866578,59.6100006103516
615.5022828,66.2900009155273
615.5179078,65.6100006103516
615.5335328,59.3400001525879
615.5491578,49.8800010681152
615.5647828,39.6100006103516
615.5804078,30.5599994659424
615.5960328,23.8099994659424
615.6116578,19.2299995422363
615.6272828,15.8199996948242
615.6429078,12.3299999237061
615.6585328,7.90999984741211
615.6741578,2.44000005722046
615.6897828,-3.48000001907349
615.7054078,-8.8100004196167
615.7210328,-12.5799999237061
615.7366578,-14.460000038147
615.7522828,-14.8000001907349
615.7679078,-14.289999961853
615.7835328,-13.5200004577637
615.7991578,-12.8299999237061
615.8147828,-12.4099998474121
615.8304078,-12.3599996566772
615.8460328,-12.6800003051758
615.8616578,-13.1700000762939
615.8772828,-13.6599998474121
615.8929078,-14.1999998092651
615.9085328,-14.9899997711182
615.9241578,-16.1200008392334
615.9397828,-17.3700008392334
615.9554078,-18.5200004577637
615.9710328,-19.5799999237061
615.9866578,-20.7299995422363
616.0022828,-21.8799991607666
616.0179078,-22.5900001525879
616.0335328,-22.4799995422363
616.0491578,-21.7099990844727
616.0647828,-20.8400001525879
616.0804078,-20.1800003051758
616.0960328,-19.5100002288818
616.1116578,-18.4899997711182
616.1272828,-16.9799995422363
616.1429078,-15.0100002288818
616.1585328,-12.6199998855591
616.1741578,-9.82999992370605
616.1897828,-6.1100001335144
616.2054078,-0.0299999993294477
616.2210328,9.96000003814697
616.2366578,24.0100002288818
616.2522828,40.0099983215332
616.2679078,54.560001373291
616.2835328,64.8099975585938
616.2991578,69.7699966430664
616.3147828,70.4800033569336
616.3304078,69.370002746582
616.3460328,69.3199996948242
616.3616578,72.7600021362305
616.3772828,80.6999969482422
616.3929078,91.9899978637695
616.4085328,103.559997558594
616.4241578,111.540000915527
616.4397828,112.76000213623
616.4554078,105.790000915527
616.4710328,91.2300033569336
616.4866578,71.2799987792969
616.5022828,48.75
616.5179078,25.9400005340576
616.5335328,4.05000019073486
616.5491578,-16.5100002288818
616.5647828,-35.3800010681152
616.5804078,-51.689998626709
616.5960328,-64.5199966430664
616.6116578,-73.6100006103516
616.6272828,-79.4199981689453
616.6429078,-82.75
616.6585328,-84.4800033569336
616.6741578,-85.5199966430664
616.6897828,-86.5599975585938
616.7054078,-87.6399993896484
616.7210328,-88.1900024414063
616.7366578,-87.4400024414063
616.7522828,-84.8899993896484
616.7679078,-80.3199996948242
616.7835328,-73.879997253418
616.7991578,-66.4000015258789
616.8147828,-59.5099983215332
616.8304078,-54.7200012207031
616.8460328,-52.5
616.8616578,-52.0499992370605
616.8772828,-52.0800018310547
616.8929078,-51.5400009155273
616.9085328,-50.0999984741211
616.9241578,-48.0099983215332
616.9397828,-45.5299987792969
616.9554078,-42.6300010681152
616.9710328,-39.0099983215332
616.9866578,-33.9300003051758
617.0022828,-26.25
617.0179078,-15.1499996185303
617.0335328,-0.990000009536743
617.0491578,14.3400001525879
617.0647828,28.0699996948242
617.0804078,37.4700012207031
617.0960328,40.9799995422363
617.1116578,38.810001373291
617.1272828,32.8300018310547
617.1429078,25.6700000762939
617.1585328,19.5300006866455
617.1741578,15.3800001144409
617.1897828,13.0500001907349
617.2054078,11.8299999237061
617.2210328,10.7700004577637
617.2366578,9.15999984741211
617.2522828,6.80999994277954
617.2679078,4.23000001907349
617.2835328,2.19000005722046
617.2991578,1.24000000953674
617.3147828,1.23000001907349
617.3304078,1.53999996185303
617.3460328,1.60000002384186
617.3616578,1.25999999046326
617.3772828,0.689999997615814
617.3929078,0.0500000007450581
617.4085328,-0.5
617.4241578,-0.670000016689301
617.4397828,-0.119999997317791
617.4554078,0.899999976158142
617.4710328,1.52999997138977
617.4866578,1.00999999046326
617.5022828,-0.649999976158142
617.5179078,-2.77999997138977
617.5335328,-4.46999979019165
617.5491578,-5.1399998664856
617.5647828,-4.65000009536743
617.5804078,-3.14000010490417
617.5960328,-0.819999992847443
617.6116578,1.95000004768372
617.6272828,4.61999988555908
617.6429078,6.51999998092651
617.6585328,7.23000001907349
617.6741578,6.73999977111816
