Time(s),Value(%)
607.0022828,-54.8899993896484
607.0179078,-58.2000007629395
607.0335328,-60.439998626709
607.0491578,-62.1100006103516
607.0647828,-63.0999984741211
607.0804078,-63.1399993896484
607.0960328,-62.189998626709
607.1116578,-60.5
607.1272828,-58.5699996948242
607.1429078,-56.939998626709
607.1585328,-55.9599990844727
607.1741578,-55.689998626709
607.1897828,-56.0699996948242
607.2054078,-57.1399993896484
607.2210328,-58.9799995422363
607.2366578,-61.4099998474121
607.2522828,-63.7700004577637
607.2679078,-64.8399963378906
607.2835328,-63.4799995422363
607.2991578,-59.1800003051758
607.3147828,-52.1599998474121
607.3304078,-43.0900001525879
607.3460328,-32.7700004577637
607.3616578,-21.9799995422363
607.3772828,-11.3400001525879
607.3929078,-1.19000005722046
607.4085328,8.77000045776367
607.4241578,19.4599990844727
607.4397828,31.7700004577637
607.4554078,45.9300003051758
607.4710328,61.3199996948242
607.4866578,77.0
607.5022828,92.1500015258789
607.5179078,106.160003662109
607.5335328,118.309997558594
607.5491578,127.569999694824
607.5647828,133.190002441406
607.5804078,135.389999389648
607.5960328,135.309997558594
607.6116578,134.259994506836
607.6272828,133.119995117188
607.6429078,132.199996948242
607.6585328,131.419998168945
607.6741578,130.580001831055
607.6897828,129.610000610352
607.7054078,128.660003662109
607.7210328,127.970001220703
607.7366578,127.720001220703
607.7522828,128.179992675781
607.7679078,129.850006103516
607.7835328,133.169998168945
607.7991578,138.029998779297
607.8147828,143.570007324219
607.8304078,148.630004882813
607.8460328,152.860000610352
607.8616578,157.289993286133
607.8772828,163.339996337891
607.8929078,171.160003662109
607.9085328,179.520004272461
607.9241578,186.779998779297
607.9397828,191.960006713867
607.9554078,195.100006103516
607.9710328,197.320007324219
607.9866578,200.369995117188
608.0022828,205.710006713867
608.0179078,213.679992675781
608.0335328,223.729995727539
608.0491578,235.199996948242
608.0647828,247.589996337891
608.0804078,260.100006103516
608.0960328,270.790008544922
608.1116578,276.510009765625
608.1272828,274.790008544922
608.1429078,265.779998779297
608.1585328,251.869995117188
608.1741578,235.800003051758
608.1897828,219.429992675781
608.2054078,203.809997558594
608.2210328,189.369995117188
608.2366578,176.050003051758
608.2522828,163.199996948242
608.2679078,149.830001831055
608.2835328,135.279998779297
608.2991578,119.849998474121
608.3147828,104.370002746582
608.3304078,89.4199981689453
608.3460328,74.9899978637695
608.3616578,60.6599998474121
608.3772828,46.4000015258789
608.3929078,32.0299987792969
608.4085328,16.7800006866455
608.4241578,-1.00999999046326
608.4397828,-22.9400005340576
608.4554078,-49.1500015258789
608.4710328,-78.379997253418
608.4866578,-108.819999694824
608.5022828,-139.0
608.5179078,-167.809997558594
608.5335328,-194.089996337891
608.5491578,-216.289993286133
608.5647828,-233.210006713867
608.5804078,-244.75
608.5960328,-251.880004882813
608.6116578,-255.899993896484
608.6272828,-257.850006103516
608.6429078,-258.5
608.6585328,-258.390014648438
608.6741578,-257.929992675781
608.6897828,-257.380004882813
608.7054078,-256.989990234375
608.7210328,-256.869995117188
608.7366578,-257.010009765625
608.7522828,-257.369995117188
608.7679078,-258.010009765625
608.7835328,-259.0
608.7991578,-260.299987792969
608.8147828,-261.600006103516
608.8304078,-262.5
608.8460328,-262.769989013672
608.8616578,-262.510009765625
608.8772828,-261.989990234375
608.8929078,-261.230010986328
608.9085328,-259.970001220703
608.9241578,-257.970001220703
608.9397828,-255.199996948242
608.9554078,-251.740005493164
608.9710328,-247.490005493164
608.9866578,-241.970001220703
609.0022828,-234.679992675781
609.0179078,-225.470001220703
609.0335328,-214.440002441406
609.0491578,-201.610000610352
609.0647828,-186.940002441406
609.0804078,-170.779998779297
609.0960328,-154.070007324219
609.1116578,-138.059997558594
609.1272828,-123.580001831055
609.1429078,-110.610000610352
609.1585328,-98.7699966430664
609.1741578,-88.120002746582
609.1897828,-79.129997253418
609.2054078,-72.129997253418
609.2210328,-66.8600006103516
609.2366578,-62.6800003051758
609.2522828,-58.8699989318848
609.2679078,-54.9599990844727
609.2835328,-50.7999992370605
609.2991578,-46.4500007629395
609.3147828,-41.8600006103516
609.3304078,-36.7200012207031
609.3460328,-30.6499996185303
609.3616578,-23.4200000762939
609.3772828,-15.9399995803833
609.3929078,-9.14999961853027
609.4085328,-3.83999991416931
609.4241578,-0.159999996423721
609.4397828,2.17000007629395
609.4554078,3.4300000667572
609.4710328,3.75
609.4866578,3.26999998092651
609.5022828,2.25999999046326
609.5179078,0.990000009536743
609.5335328,-0.519999980926514
609.5491578,-2.73000001907349
609.5647828,-6.1399998664856
609.5804078,-10.8999996185303
609.5960328,-16.6900005340576
609.6116578,-23.1200008392334
609.6272828,-29.8099994659424
609.6429078,-36.4000015258789
609.6585328,-42.4099998474121
609.6741578,-47.189998626709
609.6897828,-50.2200012207031
609.7054078,-51.439998626709
609.7210328,-51.1699981689453
609.7366578,-49.7900009155273
609.7522828,-47.5800018310547
609.7679078,-44.7900009155273
609.7835328,-41.6699981689453
609.7991578,-38.310001373291
609.8147828,-34.3400001525879
609.8304078,-28.7700004577637
609.8460328,-20.6299991607666
609.8616578,-9.69999980926514
609.8772828,3.53999996185303
609.8929078,18.5900001525879
609.9085328,35.0299987792969
609.9241578,52.2400016784668
609.9397828,68.9400024414063
609.9554078,83.379997253418
609.9710328,94.1999969482422
609.9866578,101.339996337891
610.0022828,105.589996337891
610.0179078,107.699996948242
610.0335328,108.01000213623
610.0491578,106.75
610.0647828,104.319999694824
610.0804078,101.290000915527
610.0960328,98.0400009155273
610.1116578,94.6600036621094
610.1272828,90.9800033569336
610.1429078,86.9100036621094
610.1585328,82.5800018310547
610.1741578,78.3000030517578
610.1897828,74.4199981689453
610.2054078,71.0899963378906
610.2210328,68.2200012207031
610.2366578,65.5800018310547
610.2522828,62.9000015258789
610.2679078,59.9900016784668
610.2835328,56.7900009155273
610.2991578,53.2799987792969
610.3147828,49.5299987792969
610.3304078,45.6599998474121
610.3460328,41.8300018310547
610.3616578,37.7200012207031
610.3772828,33.939998626709
610.3929078,30.4899997711182
610.4085328,27.2900009155273
610.4241578,24.2900009155273
610.4397828,21.4599990844727
610.4554078,18.7600002288818
610.4710328,16.1700000762939
610.4866578,13.6999998092651
610.5022828,11.4200000762939
610.5179078,9.39999961853027
610.5335328,7.69000005722046
610.5491578,6.19000005722046
610.5647828,4.80000019073486
610.5804078,3.47000002861023
610.5960328,2.40000009536743
610.6116578,1.98000001907349
610.6272828,2.5699999332428
610.6429078,4.21999979019165
610.6585328,6.6399998664856
610.6741578,9.48999977111816
610.6897828,12.6599998474121
610.7054078,16.3899993896484
610.7210328,20.8600006103516
610.7366578,25.7800006866455
610.7522828,30.4799995422363
610.7679078,34.3800010681152
610.7835328,37.2900009155273
610.7991578,39.3400001525879
610.8147828,40.75
610.8304078,41.5200004577637
610.8460328,41.5299987792969
610.8616578,40.7799987792969
610.8772828,39.5099983215332
610.8929078,38.1300010681152
610.9085328,37.0400009155273
610.9241578,36.4099998474121
610.9397828,36.0900001525879
610.9554078,35.7400016784668
610.9710328,35.1100006103516
610.9866578,34.2000007629395
611.0022828,33.1699981689453
611.0179078,32.1699981689453
611.0335328,31.1800003051758
611.0491578,30.1399993896484
611.0647828,28.9899997711182
611.0804078,27.75
611.0960328,26.4200000762939
611.1116578,24.9400005340576
611.1272828,23.2800006866455
611.1429078,21.4099998474121
611.1585328,19.3999996185303
611.1741578,17.3099994659424
611.1897828,15.1899995803833
611.2054078,13.0799999237061
611.2210328,11.0100002288818
611.2366578,8.96000003814697
611.2522828,6.88000011444092
611.2679078,4.67000007629395
611.2835328,2.29999995231628
611.2991578,-0.129999995231628
611.3147828,-2.5
611.3304078,-4.65000009536743
611.3460328,-6.53000020980835
611.3616578,-8.10000038146973
611.3772828,-9.40999984741211
611.3929078,-10.4300003051758
611.4085328,-11.1099996566772
611.4241578,-11.4200000762939
611.4397828,-11.2399997711182
611.4554078,-10.3000001907349
611.4710328,-8.38000011444092
611.4866578,-5.48999977111816
611.5022828,-2.0
611.5179078,1.63999998569489
611.5335328,5.13000011444092
611.5491578,8.40999984741211
611.5647828,11.460000038147
611.5804078,14.0500001907349
611.5960328,15.8299999237061
611.6116578,16.6299991607666
611.6272828,16.5799999237061
611.6429078,16.0499992370605
611.6585328,15.3199996948242
611.6741578,14.4399995803833
611.6897828,13.3199996948242
611.7054078,11.8900003433228
611.7210328,10.1899995803833
611.7366578,8.42000007629395
611.7522828,6.75
611.7679078,5.30999994277954
611.7835328,4.09999990463257
611.7991578,3.05999994277954
611.8147828,2.07999992370605
611.8304078,1.04999995231628
611.8460328,-0.119999997317791
611.8616578,-1.46000003814697
611.8772828,-2.94000005722046
611.8929078,-4.44999980926514
611.9085328,-5.92000007629395
611.9241578,-7.28000020980835
611.9397828,-8.61999988555908
611.9554078,-10.1099996566772
611.9710328,-11.9399995803833
611.9866578,-14.1599998474121
612.0022828,-16.7299995422363
612.0179078,-19.5799999237061
612.0335328,-22.6700000762939
612.0491578,-25.8799991607666
612.0647828,-28.9500007629395
612.0804078,-31.5100002288818
612.0960328,-33.310001373291
612.1116578,-34.4300003051758
612.1272828,-35.1699981689453
612.1429078,-35.7200012207031
612.1585328,-36.0800018310547
612.1741578,-36.189998626709
612.1897828,-36.0
612.2054078,-35.5400009155273
612.2210328,-34.8300018310547
612.2366578,-33.7999992370605
612.2522828,-32.3600006103516
612.2679078,-30.4799995422363
612.2835328,-28.1599998474121
612.2991578,-25.3899993896484
612.3147828,-22.1100006103516
612.3304078,-18.3999996185303
612.3460328,-14.4399995803833
612.3616578,-10.6199998855591
612.3772828,-6.88000011444092
612.3929078,-3.34999990463257
612.4085328,-0.170000001788139
612.4241578,2.45000004768372
612.4397828,4.3600001335144
612.4554078,5.53000020980835
612.4710328,6.15000009536743
612.4866578,6.5
612.5022828,6.65000009536743
612.5179078,6.40999984741211
612.5335328,5.48000001907349
612.5491578,3.73000001907349
612.5647828,1.16999995708466
612.5804078,-2.13000011444092
612.5960328,-6.15999984741211
612.6116578,-10.6899995803833
612.6272828,-15.2600002288818
612.6429078,-19.2399997711182
612.6585328,-22.2999992370605
612.6741578,-24.7299995422363
612.6897828,-27.1000003814697
612.7054078,-29.6599998474121
612.7210328,-32.1399993896484
612.7366578,-34.1399993896484
612.7522828,-35.4199981689453
612.7679078,-36.0900001525879
612.7835328,-36.5999984741211
612.7991578,-37.6699981689453
612.8147828,-39.8800010681152
612.8304078,-43.3899993896484
612.8460328,-48.0900001525879
612.8616578,-53.9599990844727
612.8772828,-61.0499992370605
612.8929078,-69.0500030517578
612.9085328,-76.9300003051758
612.9241578,-83.120002746582
612.9397828,-86.5400009155273
612.9554078,-87.379997253418
612.9710328,-86.7399978637695
612.9866578,-85.4599990844727
613.0022828,-83.9100036621094
613.0179078,-82.370002746582
613.0335328,-81.2099990844727
613.0491578,-80.5999984741211
613.0647828,-80.1699981689453
613.0804078,-78.9800033569336
613.0960328,-76.1999969482422
613.1116578,-71.5899963378906
613.1272828,-65.5199966430664
613.1429078,-58.3600006103516
613.1585328,-50.3400001525879
613.1741578,-41.6500015258789
613.1897828,-32.6100006103516
613.2054078,-23.6200008392334
613.2210328,-15.0600004196167
613.2366578,-7.26999998092651
613.2522828,-0.439999997615814
613.2679078,5.46000003814697
613.2835328,10.539999961853
613.2991578,14.8199996948242
613.3147828,18.25
613.3304078,20.9200000762939
613.3460328,23.2299995422363
613.3616578,26.1000003814697
613.3772828,29.7199993133545
613.3929078,34.1100006103516
613.4085328,39.0
613.4241578,44.1599998474121
613.4397828,49.5499992370605
613.4554078,55.1800003051758
613.4710328,60.9799995422363
613.4866578,66.7699966430664
613.5022828,72.2799987792969
613.5179078,77.25
613.5335328,81.4700012207031
613.5491578,84.9300003051758
613.5647828,87.6600036621094
613.5804078,89.6500015258789
613.5960328,90.8600006103516
613.6116578,91.3499984741211
613.6272828,91.5299987792969
613.6429078,91.9499969482422
613.6585328,93.0199966430664
613.6741578,94.6399993896484
613.6897828,96.4000015258789
613.7054078,98.0299987792969
613.7210328,99.5500030517578
613.7366578,101.129997253418
613.7522828,102.830001831055
613.7679078,104.610000610352
613.7835328,106.309997558594
613.7991578,107.730003356934
613.8147828,108.76000213623
613.8304078,109.389999389648
613.8460328,109.779998779297
613.8616578,110.169998168945
613.8772828,110.779998779297
613.8929078,111.709999084473
613.9085328,113.0
613.9241578,114.819999694824
613.9397828,117.459999084473
613.9554078,121.199996948242
613.9710328,125.980003356934
613.9866578,131.320007324219
614.0022828,136.490005493164
614.0179078,140.899993896484
614.0335328,144.320007324219
614.0491578,146.809997558594
614.0647828,148.490005493164
614.0804078,149.339996337891
614.0960328,149.259994506836
614.1116578,148.25
614.1272828,146.520004272461
614.1429078,144.460006713867
614.1585328,142.389999389648
614.1741578,140.490005493164
614.1897828,138.669998168945
614.2054078,136.75
614.2210328,134.580001831055
614.2366578,132.229995727539
614.2522828,129.850006103516
614.2679078,127.48999786377
614.2835328,125.089996337891
614.2991578,122.5
614.3147828,119.650001525879
614.3304078,116.51000213623
614.3460328,113.120002746582
614.3616578,110.160003662109
614.3772828,106.830001831055
614.3929078,103.150001525879
614.4085328,99.1800003051758
614.4241578,94.9700012207031
614.4397828,90.5800018310547
614.4554078,86.0400009155273
614.4710328,81.3600006103516
614.4866578,76.4700012207031
614.5022828,71.3199996948242
614.5179078,65.8600006103516
614.5335328,60.1500015258789
614.5491578,54.3400001525879
614.5647828,48.5800018310547
614.5804078,42.9599990844727
614.5960328,37.5099983215332
614.6116578,32.189998626709
614.6272828,26.9599990844727
614.6429078,21.8799991607666
614.6585328,17.1299991607666
614.6741578,13.0699996948242
614.6897828,9.97999954223633
614.7054078,7.8600001335144
614.7210328,6.42999982833862
614.7366578,5.23000001907349
614.7522828,3.90000009536743
614.7679078,2.30999994277954
614.7835328,0.689999997615814
614.7991578,-0.360000014305115
614.8147828,-0.330000013113022
614.8304078,0.920000016689301
614.8460328,3.14000010490417
614.8616578,5.86999988555908
614.8772828,8.73999977111816
614.8929078,11.4099998474121
614.9085328,13.3000001907349
614.9241578,13.539999961853
614.9397828,11.4499998092651
614.9554078,7.09999990463257
614.9710328,1.25
614.9866578,-5.17999982833862
615.0022828,-11.6400003433228
615.0179078,-17.8500003814697
615.0335328,-23.8199996948242
615.0491578,-29.6200008392334
615.0647828,-35.2799987792969
615.0804078,-40.7599983215332
615.0960328,-46.0099983215332
615.1116578,-50.9599990844727
615.1272828,-55.6199989318848
615.1429078,-60.0
615.1585328,-64.1100006103516
615.1741578,-68.0199966430664
615.1897828,-71.870002746582
615.2054078,-75.8899993896484
615.2210328,-80.3000030517578
615.2366578,-85.1100006103516
615.2522828,-90.1500015258789
615.2679078,-95.1900024414063
615.2835328,-100.050003051758
615.2991578,-104.629997253418
615.3147828,-108.900001525879
615.3304078,-112.900001525879
615.3460328,-116.709999084473
615.3616578,-119.980003356934
615.3772828,-123.279998779297
615.3929078,-126.610000610352
615.4085328,-129.880004882813
615.4241578,-132.949996948242
615.4397828,-135.699996948242
615.4554078,-138.080001831055
615.4710328,-140.080001831055
615.4866578,-141.619995117188
615.5022828,-142.440002441406
615.5179078,-142.100006103516
615.5335328,-140.240005493164
615.5491578,-136.960006713867
615.5647828,-132.770004272461
615.5804078,-128.320007324219
615.5960328,-124.129997253418
615.6116578,-120.430000305176
615.6272828,-117.190002441406
615.6429078,-114.279998779297
615.6585328,-111.550003051758
615.6741578,-108.919998168945
615.6897828,-106.319999694824
615.7054078,-103.720001220703
615.7210328,-101.080001831055
615.7366578,-98.4599990844727
615.7522828,-96.1100006103516
615.7679078,-94.5299987792969
615.7835328,-94.1399993896484
615.7991578,-95.0199966430664
615.8147828,-96.8000030517578
615.8304078,-98.9400024414063
615.8460328,-100.980003356934
615.8616578,-102.669998168945
615.8772828,-103.959999084473
615.8929078,-104.980003356934
615.9085328,-106.029998779297
615.9241578,-107.599998474121
615.9397828,-110.059997558594
615.9554078,-113.519996643066
615.9710328,-117.98999786377
615.9866578,-123.699996948242
616.0022828,-130.910003662109
616.0179078,-139.419998168945
616.0335328,-148.389999389648
616.0491578,-156.690002441406
616.0647828,-163.830001831055
616.0804078,-170.539993286133
616.0960328,-177.839996337891
616.1116578,-185.820007324219
616.1272828,-193.460006713867
616.1429078,-199.570007324219
616.1585328,-203.570007324219
616.1741578,-205.800003051758
616.1897828,-207.529998779297
616.2054078,-210.669998168945
616.2210328,-216.740005493164
616.2366578,-225.929992675781
616.2522828,-237.050003051758
616.2679078,-248.339996337891
616.2835328,-258.299987792969
616.2991578,-266.179992675781
616.3147828,-271.730010986328
616.3304078,-274.829986572266
616.3460328,-275.429992675781
616.3616578,-272.410003662109
616.3772828,-268.429992675781
616.3929078,-265.140014648438
616.4085328,-263.890014648438
616.4241578,-264.809997558594
616.4397828,-266.209991455078
616.4554078,-265.140014648438
616.4710328,-259.390014648438
616.4866578,-249.169998168945
616.5022828,-236.410003662109
616.5179078,-222.940002441406
616.5335328,-209.729995727539
616.5491578,-197.279998779297
616.5647828,-185.970001220703
616.5804078,-175.809997558594
616.5960328,-166.070007324219
616.6116578,-155.339996337891
616.6272828,-142.360000610352
616.6429078,-126.849998474121
616.6585328,-109.370002746582
616.6741578,-90.6399993896484
616.6897828,-71.1600036621094
616.7054078,-51.4000015258789
616.7210328,-31.8799991607666
616.7366578,-13.0299997329712
616.7522828,4.92999982833862
616.7679078,22.0599994659424
616.7835328,38.4500007629395
616.7991578,54.0400009155273
616.8147828,68.6500015258789
616.8304078,82.2200012207031
616.8460328,94.879997253418
616.8616578,106.830001831055
616.8772828,118.25
616.8929078,129.190002441406
616.9085328,139.490005493164
616.9241578,148.839996337891
616.9397828,156.940002441406
616.9554078,163.710006713867
616.9710328,169.160003662109
616.9866578,173.240005493164
617.0022828,175.850006103516
617.0179078,177.179992675781
617.0335328,177.880004882813
617.0491578,178.940002441406
617.0647828,181.119995117188
617.0804078,184.520004272461
617.0960328,188.779998779297
617.1116578,193.589996337891
617.1272828,198.830001831055
617.1429078,204.449996948242
617.1585328,210.25
617.1741578,215.940002441406
617.1897828,221.339996337891
617.2054078,226.470001220703
617.2210328,231.470001220703
617.2366578,236.419998168945
617.2522828,241.25
617.2679078,245.779998779297
617.2835328,249.839996337891
617.2991578,253.320007324219
617.3147828,256.239990234375
617.3304078,258.720001220703
617.3460328,260.869995117188
617.3616578,259.029998779297
617.3772828,257.410003662109
617.3929078,256.429992675781
617.4085328,256.470001220703
617.4241578,257.5
617.4397828,259.040008544922
617.4554078,260.480010986328
617.4710328,261.540008544922
617.4866578,262.510009765625
617.5022828,263.690002441406
617.5179078,264.920013427734
617.5335328,265.540008544922
617.5491578,265.019989013672
617.5647828,263.269989013672
617.5804078,260.5
617.5960328,256.899993896484
617.6116578,252.220001220703
617.6272828,245.889999389648
617.6429078,237.300003051758
617.6585328,226.320007324219
617.6741578,213.449996948242
617.6897828,199.660003662109
617.7054078,185.940002441406
617.7210328,172.960006713867
617.7366578,160.940002441406
617.7522828,149.860000610352
617.7679078,139.649993896484
