Time(s),Value(μS)
603.012673,2.89400005340576
603.028298,2.89499998092651
603.043923,2.89599990844727
603.059548,2.8970000743866
603.075173,2.8970000743866
603.090798,2.89800000190735
603.106423,2.89800000190735
603.122048,2.8989999294281
603.137673,2.8989999294281
603.153298,2.90000009536743
603.168923,2.90100002288818
603.184548,2.90100002288818
603.200173,2.90199995040894
603.215798,2.90199995040894
603.231423,2.90300011634827
603.247048,2.90300011634827
603.262673,2.90300011634827
603.278298,2.90400004386902
603.293923,2.90400004386902
603.309548,2.90499997138977
603.325173,2.90499997138977
603.340798,2.90599989891052
603.356423,2.90799999237061
603.372048,2.9210000038147
603.387673,2.94300007820129
603.403298,2.96900010108948
603.418923,2.99900007247925
603.434548,3.02699995040894
603.450173,3.04500007629395
603.465798,3.0550000667572
603.481423,3.06100010871887
603.497048,3.06399989128113
603.512673,3.06599998474121
603.528298,3.06599998474121
603.543923,3.06699991226196
603.559548,3.06699991226196
603.575173,3.06699991226196
603.590798,3.06599998474121
603.606423,3.06500005722046
603.622048,3.06500005722046
603.637673,3.06500005722046
603.653298,3.06599998474121
603.668923,3.06599998474121
603.684548,3.06699991226196
603.700173,3.06699991226196
603.715798,3.06800007820129
603.731423,3.06800007820129
603.747048,3.06800007820129
603.762673,3.06800007820129
603.778298,3.06800007820129
603.793923,3.06800007820129
603.809548,3.06800007820129
603.825173,3.06800007820129
603.840798,3.06800007820129
603.856423,3.06800007820129
603.872048,3.06699991226196
603.887673,3.06699991226196
603.903298,3.06599998474121
603.918923,3.06599998474121
603.934548,3.06500005722046
603.950173,3.06500005722046
603.965798,3.06500005722046
603.981423,3.06399989128113
603.997048,3.06500005722046
604.012673,3.06500005722046
604.028298,3.06500005722046
604.043923,3.06500005722046
604.059548,3.06399989128113
604.075173,3.06399989128113
604.090798,3.06299996376038
604.106423,3.06299996376038
604.122048,3.06299996376038
604.137673,3.06299996376038
604.153298,3.06299996376038
604.168923,3.06200003623962
604.184548,3.06200003623962
604.200173,3.06100010871887
604.215798,3.06100010871887
604.231423,3.06100010871887
604.247048,3.05999994277954
604.262673,3.05999994277954
604.278298,3.05999994277954
604.293923,3.05900001525879
604.309548,3.05999994277954
604.325173,3.05900001525879
604.340798,3.05900001525879
604.356423,3.05900001525879
604.372048,3.05900001525879
604.387673,3.05800008773804
604.403298,3.05800008773804
604.418923,3.05800008773804
604.434548,3.05800008773804
604.450173,3.05800008773804
604.465798,3.05800008773804
604.481423,3.05800008773804
604.497048,3.05800008773804
604.512673,3.05800008773804
604.528298,3.05800008773804
604.543923,3.05800008773804
604.559548,3.05800008773804
604.575173,3.05699992179871
604.590798,3.05699992179871
604.606423,3.05699992179871
604.622048,3.05599999427795
604.637673,3.05599999427795
604.653298,3.05599999427795
604.668923,3.0550000667572
604.684548,3.05399990081787
604.700173,3.05399990081787
604.715798,3.05299997329712
604.731423,3.05200004577637
604.747048,3.05200004577637
604.762673,3.05200004577637
604.778298,3.05100011825562
604.793923,3.05200004577637
604.809548,3.05100011825562
604.825173,3.05100011825562
604.840798,3.05100011825562
604.856423,3.05100011825562
604.872048,3.04999995231628
604.887673,3.04999995231628
604.903298,3.04999995231628
604.918923,3.04900002479553
604.934548,3.04900002479553
604.950173,3.04900002479553
604.965798,3.04900002479553
604.981423,3.04800009727478
604.997048,3.04800009727478
605.012673,3.04800009727478
605.028298,3.04699993133545
605.043923,3.04699993133545
605.059548,3.04699993133545
605.075173,3.04699993133545
605.090798,3.0460000038147
605.106423,3.0460000038147
605.122048,3.0460000038147
605.137673,3.0460000038147
605.153298,3.04500007629395
605.168923,3.04500007629395
605.184548,3.04500007629395
605.200173,3.04399991035461
605.215798,3.04299998283386
605.231423,3.04299998283386
605.247048,3.04299998283386
605.262673,3.04200005531311
605.278298,3.04200005531311
605.293923,3.04200005531311
605.309548,3.04099988937378
605.325173,3.04099988937378
605.340798,3.04099988937378
605.356423,3.03999996185303
605.372048,3.03999996185303
605.387673,3.03999996185303
605.403298,3.03999996185303
605.418923,3.03999996185303
605.434548,3.03999996185303
605.450173,3.03999996185303
605.465798,3.04099988937378
605.481423,3.04099988937378
605.497048,3.04099988937378
605.512673,3.04099988937378
605.528298,3.04200005531311
605.543923,3.04200005531311
605.559548,3.04200005531311
605.575173,3.04200005531311
605.590798,3.04299998283386
605.606423,3.04299998283386
605.622048,3.04399991035461
605.637673,3.04399991035461
605.653298,3.04399991035461
605.668923,3.04399991035461
605.684548,3.04299998283386
605.700173,3.04299998283386
605.715798,3.04299998283386
605.731423,3.04299998283386
605.747048,3.04299998283386
605.762673,3.04299998283386
605.778298,3.04200005531311
605.793923,3.04200005531311
605.809548,3.04200005531311
605.825173,3.04099988937378
605.840798,3.03999996185303
605.856423,3.03900003433228
605.872048,3.03800010681152
605.887673,3.03699994087219
605.903298,3.03699994087219
605.918923,3.03600001335144
605.934548,3.03500008583069
605.950173,3.03399991989136
605.965798,3.03399991989136
605.981423,3.03299999237061
605.997048,3.03200006484985
606.012673,3.03200006484985
606.028298,3.03099989891052
606.043923,3.03099989891052
606.059548,3.03099989891052
606.075173,3.03099989891052
606.090798,3.03099989891052
606.106423,3.03099989891052
606.122048,3.03099989891052
606.137673,3.02999997138977
606.153298,3.02999997138977
606.168923,3.02999997138977
606.184548,3.02999997138977
606.200173,3.02999997138977
606.215798,3.02999997138977
606.231423,3.02999997138977
606.247048,3.02999997138977
606.262673,3.02999997138977
606.278298,3.03099989891052
606.293923,3.03099989891052
606.309548,3.03099989891052
606.325173,3.03099989891052
606.340798,3.03099989891052
606.356423,3.03099989891052
606.372048,3.03099989891052
606.387673,3.03099989891052
606.403298,3.03099989891052
606.418923,3.03099989891052
606.434548,3.02999997138977
606.450173,3.02999997138977
606.465798,3.02800011634827
606.481423,3.0239999294281
606.497048,3.01900005340576
606.512673,3.01399993896484
606.528298,3.0090000629425
606.543923,3.00500011444092
606.559548,3.00399994850159
606.575173,3.00200009346008
606.590798,3.00099992752075
606.606423,3.00099992752075
606.622048,3.0
606.637673,3.0
606.653298,2.99900007247925
606.668923,2.99900007247925
606.684548,2.99799990653992
606.700173,2.99900007247925
606.715798,2.99799990653992
606.731423,2.99900007247925
606.747048,2.99900007247925
606.762673,2.99900007247925
606.778298,2.99900007247925
606.793923,2.99799990653992
606.809548,2.99799990653992
606.825173,2.99699997901917
606.840798,2.99699997901917
606.856423,2.99600005149841
606.872048,2.99600005149841
606.887673,2.99600005149841
606.903298,2.99600005149841
606.918923,2.99600005149841
606.934548,2.99600005149841
606.950173,2.99600005149841
606.965798,2.99499988555908
606.981423,2.99499988555908
606.997048,2.99499988555908
607.012673,2.99499988555908
607.028298,2.99499988555908
607.043923,2.99499988555908
607.059548,2.99499988555908
607.075173,2.99499988555908
607.090798,2.99499988555908
607.106423,2.99499988555908
607.122048,2.99499988555908
607.137673,2.99499988555908
607.153298,2.99499988555908
607.168923,2.99399995803833
607.184548,2.99399995803833
607.200173,2.99000000953674
607.215798,2.98200011253357
607.231423,2.97000002861023
607.247048,2.95700001716614
607.262673,2.94400000572205
607.278298,2.93300008773804
607.293923,2.92700004577637
607.309548,2.92400002479553
607.325173,2.92199993133545
607.340798,2.92199993133545
607.356423,2.92199993133545
607.372048,2.92199993133545
607.387673,2.92300009727478
607.403298,2.92300009727478
607.418923,2.92400002479553
607.434548,2.92499995231628
607.450173,2.92700004577637
607.465798,2.92799997329712
607.481423,2.92899990081787
607.497048,2.93099999427795
607.512673,2.93199992179871
607.528298,2.93300008773804
607.543923,2.93499994277954
607.559548,2.93700003623962
607.575173,2.94000005722046
607.590798,2.9449999332428
607.606423,2.95199990272522
607.622048,2.96000003814697
607.637673,2.97000002861023
607.653298,2.9779999256134
607.668923,2.98699998855591
607.684548,2.99200010299683
607.700173,2.99799990653992
607.715798,3.00399994850159
607.731423,3.01099991798401
607.747048,3.01799988746643
607.762673,3.02500009536743
607.778298,3.03099989891052
607.793923,3.03399991989136
607.809548,3.03600001335144
607.825173,3.03800010681152
607.840798,3.03900003433228
607.856423,3.03999996185303
607.872048,3.04200005531311
607.887673,3.04299998283386
607.903298,3.04500007629395
607.918923,3.0460000038147
607.934548,3.04699993133545
607.950173,3.04699993133545
607.965798,3.04699993133545
607.981423,3.04699993133545
607.997048,3.04699993133545
608.012673,3.04800009727478
608.028298,3.04800009727478
608.043923,3.04900002479553
608.059548,3.04999995231628
608.075173,3.04999995231628
608.090798,3.04999995231628
608.106423,3.04999995231628
608.122048,3.04999995231628
608.137673,3.04999995231628
608.153298,3.04999995231628
608.168923,3.04999995231628
608.184548,3.04999995231628
608.200173,3.04999995231628
608.215798,3.04999995231628
608.231423,3.04999995231628
608.247048,3.04900002479553
608.262673,3.04900002479553
608.278298,3.04900002479553
608.293923,3.04999995231628
608.309548,3.04999995231628
608.325173,3.04999995231628
608.340798,3.05100011825562
608.356423,3.05100011825562
608.372048,3.05100011825562
608.387673,3.05100011825562
608.403298,3.05100011825562
608.418923,3.04999995231628
608.434548,3.04999995231628
608.450173,3.04999995231628
608.465798,3.04999995231628
608.481423,3.04999995231628
608.497048,3.04999995231628
608.512673,3.04999995231628
608.528298,3.05100011825562
608.543923,3.04999995231628
608.559548,3.04999995231628
608.575173,3.04900002479553
608.590798,3.04800009727478
608.606423,3.04699993133545
608.622048,3.0460000038147
608.637673,3.0460000038147
608.653298,3.0460000038147
608.668923,3.04500007629395
608.684548,3.04500007629395
608.700173,3.04399991035461
608.715798,3.04399991035461
608.731423,3.04299998283386
608.747048,3.04200005531311
608.762673,3.04099988937378
608.778298,3.03999996185303
608.793923,3.03800010681152
608.809548,3.03800010681152
608.825173,3.03699994087219
608.840798,3.03600001335144
608.856423,3.03600001335144
608.872048,3.03500008583069
608.887673,3.03500008583069
608.903298,3.03399991989136
608.918923,3.03299999237061
608.934548,3.03200006484985
608.950173,3.03200006484985
608.965798,3.03099989891052
608.981423,3.03099989891052
608.997048,3.02999997138977
609.012673,3.02999997138977
609.028298,3.02999997138977
609.043923,3.02900004386902
609.059548,3.02800011634827
609.075173,3.02800011634827
609.090798,3.02800011634827
609.106423,3.02800011634827
609.122048,3.02800011634827
609.137673,3.02900004386902
609.153298,3.02900004386902
609.168923,3.02900004386902
609.184548,3.02900004386902
609.200173,3.02900004386902
609.215798,3.02900004386902
609.231423,3.02900004386902
609.247048,3.02800011634827
609.262673,3.02800011634827
609.278298,3.02699995040894
609.293923,3.02699995040894
609.309548,3.02699995040894
609.325173,3.02699995040894
609.340798,3.02699995040894
609.356423,3.02699995040894
609.372048,3.02699995040894
609.387673,3.02699995040894
609.403298,3.02600002288818
609.418923,3.02500009536743
609.434548,3.0239999294281
609.450173,3.02300000190735
609.465798,3.02300000190735
609.481423,3.02099990844727
609.497048,3.01999998092651
609.512673,3.01900005340576
609.528298,3.01799988746643
609.543923,3.01600003242493
609.559548,3.01500010490417
609.575173,3.01399993896484
609.590798,3.01300001144409
609.606423,3.01200008392334
609.622048,3.01099991798401
609.637673,3.01099991798401
609.653298,3.0090000629425
609.668923,3.00799989700317
609.684548,3.00699996948242
609.700173,3.00600004196167
609.715798,3.00600004196167
609.731423,3.00500011444092
609.747048,3.00600004196167
609.762673,3.00600004196167
609.778298,3.00699996948242
609.793923,3.00799989700317
609.809548,3.0090000629425
609.825173,3.00999999046326
609.840798,3.01099991798401
609.856423,3.01200008392334
609.872048,3.01200008392334
609.887673,3.01200008392334
609.903298,3.01200008392334
609.918923,3.01300001144409
609.934548,3.01500010490417
609.950173,3.01699995994568
609.965798,3.01799988746643
609.981423,3.01999998092651
609.997048,3.02099990844727
610.012673,3.0220000743866
610.028298,3.0220000743866
610.043923,3.02300000190735
610.059548,3.02300000190735
610.075173,3.02300000190735
610.090798,3.0239999294281
610.106423,3.02500009536743
610.122048,3.02600002288818
610.137673,3.02699995040894
610.153298,3.02900004386902
610.168923,3.02999997138977
610.184548,3.02999997138977
610.200173,3.03099989891052
610.215798,3.03099989891052
610.231423,3.03200006484985
610.247048,3.03200006484985
610.262673,3.03299999237061
610.278298,3.03399991989136
610.293923,3.03500008583069
610.309548,3.03600001335144
610.325173,3.03699994087219
610.340798,3.03699994087219
610.356423,3.03699994087219
610.372048,3.03800010681152
610.387673,3.03699994087219
610.403298,3.03800010681152
610.418923,3.03800010681152
610.434548,3.03900003433228
610.450173,3.03900003433228
610.465798,3.03999996185303
610.481423,3.03999996185303
610.497048,3.04099988937378
610.512673,3.04099988937378
610.528298,3.04099988937378
610.543923,3.04200005531311
610.559548,3.04200005531311
610.575173,3.04200005531311
610.590798,3.04299998283386
610.606423,3.04399991035461
610.622048,3.04399991035461
610.637673,3.04500007629395
610.653298,3.04500007629395
610.668923,3.04500007629395
610.684548,3.0460000038147
610.700173,3.0460000038147
610.715798,3.0460000038147
610.731423,3.0460000038147
610.747048,3.04699993133545
610.762673,3.04699993133545
610.778298,3.04800009727478
610.793923,3.04800009727478
610.809548,3.04900002479553
610.825173,3.04900002479553
610.840798,3.04900002479553
610.856423,3.04900002479553
610.872048,3.04900002479553
610.887673,3.04900002479553
610.903298,3.04900002479553
610.918923,3.04900002479553
610.934548,3.04900002479553
610.950173,3.04999995231628
610.965798,3.04999995231628
610.981423,3.04999995231628
610.997048,3.04999995231628
611.012673,3.04999995231628
611.028298,3.04999995231628
611.043923,3.04900002479553
611.059548,3.04900002479553
611.075173,3.04900002479553
611.090798,3.04999995231628
611.106423,3.04999995231628
611.122048,3.04999995231628
611.137673,3.04999995231628
611.153298,3.04999995231628
611.168923,3.04999995231628
611.184548,3.04999995231628
611.200173,3.04999995231628
611.215798,3.04999995231628
611.231423,3.04999995231628
611.247048,3.04999995231628
611.262673,3.05100011825562
611.278298,3.05100011825562
611.293923,3.05100011825562
611.309548,3.05200004577637
611.325173,3.05200004577637
611.340798,3.05200004577637
611.356423,3.05200004577637
611.372048,3.05200004577637
611.387673,3.05200004577637
611.403298,3.05200004577637
611.418923,3.05299997329712
611.434548,3.05399990081787
611.450173,3.05399990081787
611.465798,3.0550000667572
611.481423,3.0550000667572
611.497048,3.05599999427795
611.512673,3.05599999427795
611.528298,3.05599999427795
611.543923,3.05699992179871
611.559548,3.05699992179871
611.575173,3.05800008773804
611.590798,3.05800008773804
611.606423,3.05900001525879
611.622048,3.05900001525879
611.637673,3.05900001525879
611.653298,3.05999994277954
611.668923,3.05999994277954
611.684548,3.05999994277954
611.700173,3.05999994277954
611.715798,3.06100010871887
611.731423,3.06100010871887
611.747048,3.06100010871887
611.762673,3.06200003623962
611.778298,3.06200003623962
611.793923,3.06200003623962
611.809548,3.06200003623962
611.825173,3.06200003623962
611.840798,3.06200003623962
611.856423,3.06200003623962
611.872048,3.06200003623962
611.887673,3.06200003623962
611.903298,3.06200003623962
611.918923,3.06200003623962
611.934548,3.06299996376038
611.950173,3.06299996376038
611.965798,3.06299996376038
611.981423,3.06299996376038
611.997048,3.06299996376038
612.012673,3.06200003623962
612.028298,3.06200003623962
612.043923,3.06200003623962
612.059548,3.06200003623962
612.075173,3.06200003623962
612.090798,3.06200003623962
612.106423,3.06200003623962
612.122048,3.06200003623962
612.137673,3.06100010871887
612.153298,3.06100010871887
612.168923,3.06100010871887
612.184548,3.05999994277954
612.200173,3.05999994277954
612.215798,3.05999994277954
612.231423,3.06100010871887
612.247048,3.06100010871887
612.262673,3.06100010871887
612.278298,3.06100010871887
612.293923,3.06100010871887
612.309548,3.06100010871887
612.325173,3.05999994277954
612.340798,3.05999994277954
612.356423,3.05999994277954
612.372048,3.05999994277954
612.387673,3.05999994277954
612.403298,3.05999994277954
612.418923,3.05999994277954
612.434548,3.06100010871887
612.450173,3.06100010871887
612.465798,3.05999994277954
612.481423,3.05999994277954
612.497048,3.05999994277954
612.512673,3.05999994277954
612.528298,3.05900001525879
612.543923,3.05900001525879
612.559548,3.05900001525879
612.575173,3.05900001525879
612.590798,3.05900001525879
612.606423,3.05900001525879
612.622048,3.05900001525879
612.637673,3.05900001525879
612.653298,3.05900001525879
612.668923,3.05900001525879
612.684548,3.05900001525879
612.700173,3.05900001525879
612.715798,3.05999994277954
612.731423,3.05999994277954
612.747048,3.05999994277954
612.762673,3.05999994277954
612.778298,3.05999994277954
612.793923,3.05999994277954
612.809548,3.05999994277954
612.825173,3.05999994277954
612.840798,3.05999994277954
612.856423,3.05999994277954
612.872048,3.05999994277954
612.887673,3.05999994277954
612.903298,3.05999994277954
612.918923,3.06100010871887
612.934548,3.06100010871887
612.950173,3.06100010871887
612.965798,3.06100010871887
612.981423,3.06100010871887
612.997048,3.06100010871887
613.012673,3.06200003623962
613.028298,3.06299996376038
613.043923,3.06200003623962
613.059548,3.05999994277954
613.075173,3.05699992179871
613.090798,3.05399990081787
613.106423,3.05100011825562
613.122048,3.04800009727478
613.137673,3.04699993133545
613.153298,3.0460000038147
613.168923,3.04500007629395
613.184548,3.04500007629395
613.200173,3.04500007629395
613.215798,3.04399991035461
613.231423,3.04399991035461
613.247048,3.04299998283386
613.262673,3.04299998283386
613.278298,3.04299998283386
613.293923,3.04200005531311
613.309548,3.04200005531311
613.325173,3.04200005531311
613.340798,3.04200005531311
613.356423,3.04200005531311
613.372048,3.04200005531311
613.387673,3.04200005531311
613.403298,3.04200005531311
613.418923,3.04200005531311
613.434548,3.04099988937378
613.450173,3.04099988937378
613.465798,3.04099988937378
613.481423,3.04099988937378
613.497048,3.04099988937378
613.512673,3.04099988937378
613.528298,3.03999996185303
613.543923,3.03999996185303
613.559548,3.03999996185303
613.575173,3.03999996185303
613.590798,3.03999996185303
613.606423,3.03900003433228
613.622048,3.03900003433228
613.637673,3.03800010681152
613.653298,3.03800010681152
613.668923,3.03800010681152
613.684548,3.03800010681152
613.700173,3.03699994087219
613.715798,3.03699994087219
613.731423,3.03699994087219
613.747048,3.03600001335144
613.762673,3.03600001335144
613.778298,3.03500008583069
613.793923,3.03500008583069
613.809548,3.03399991989136
613.825173,3.03399991989136
613.840798,3.03399991989136
613.856423,3.03399991989136
613.872048,3.03399991989136
613.887673,3.03399991989136
613.903298,3.03299999237061
613.918923,3.03099989891052
613.934548,3.02800011634827
613.950173,3.0220000743866
613.965798,3.01699995994568
613.981423,3.01099991798401
613.997048,3.00500011444092
614.012673,3.00099992752075
614.028298,2.99900007247925
614.043923,2.99799990653992
614.059548,2.99600005149841
614.075173,2.99600005149841
614.090798,2.99499988555908
614.106423,2.99499988555908
614.122048,2.99499988555908
614.137673,2.99600005149841
614.153298,2.99600005149841
614.168923,2.99699997901917
