Time(s),Value(%)
397.0128731,24.0300006866455
397.0284981,22.4300003051758
397.0441231,20.8899993896484
397.0597481,19.4400005340576
397.0753731,18.0
397.0909981,16.4300003051758
397.1066231,14.6000003814697
397.1222481,12.4700002670288
397.1378731,10.1599998474121
397.1534981,7.78999996185303
397.1691231,5.46000003814697
397.1847481,3.22000002861023
397.2003731,1.10000002384186
397.2159981,-0.889999985694885
397.2316231,-2.8199999332428
397.2472481,-4.76000022888184
397.2628731,-6.80999994277954
397.2784981,-8.97999954223633
397.2941231,-11.2200002670288
397.3097481,-13.5
397.3253731,-15.7700004577637
397.3409981,-17.9899997711182
397.3566231,-20.0599994659424
397.3722481,-21.8700008392334
397.3878731,-23.2900009155273
397.4034981,-24.25
397.4191231,-24.7299995422363
397.4347481,-24.7700004577637
397.4503731,-24.4699993133545
397.4659981,-23.9300003051758
397.4816231,-23.2800006866455
397.4972481,-22.5400009155273
397.5128731,-21.4599990844727
397.5284981,-19.5
397.5441231,-16.1100006103516
397.5597481,-11.1400003433228
397.5753731,-4.71000003814697
397.5909981,3.15000009536743
397.6066231,12.5
397.6222481,22.9799995422363
397.6378731,33.6699981689453
397.6534981,43.3400001525879
397.6691231,51.5400009155273
397.6847481,59.3300018310547
397.7003731,68.2200012207031
397.7159981,78.620002746582
397.7316231,89.5199966430664
397.7472481,99.4499969482422
397.7628731,107.459999084473
397.7784981,113.650001525879
397.7941231,119.400001525879
397.8097481,127.059997558594
397.8253731,138.649993896484
397.8409981,154.729995727539
397.8566231,175.0
397.8722481,199.490005493164
397.8878731,228.410003662109
397.9034981,260.670013427734
397.9191231,292.670013427734
397.9347481,318.950012207031
397.9503731,327.670013427734
397.9659981,327.670013427734
397.9816231,327.670013427734
397.9972481,327.670013427734
398.0128731,327.670013427734
398.0284981,318.440002441406
398.0441231,303.670013427734
398.0597481,286.570007324219
398.0753731,266.619995117188
398.0909981,241.0
398.1066231,206.580001831055
398.1222481,162.830001831055
398.1378731,112.220001220703
398.1534981,58.4500007629395
398.1691231,4.73000001907349
398.1847481,-46.5999984741211
398.2003731,-93.4199981689453
398.2159981,-133.240005493164
398.2316231,-164.520004272461
398.2472481,-186.699996948242
398.2628731,-203.419998168945
398.2784981,-217.009994506836
398.2941231,-228.550003051758
398.3097481,-238.289993286133
398.3253731,-246.300003051758
398.3409981,-252.880004882813
398.3566231,-258.910003662109
398.3722481,-265.75
398.3878731,-274.529998779297
398.4034981,-285.540008544922
398.4191231,-298.410003662109
398.4347481,-312.880004882813
398.4503731,-327.679992675781
398.4659981,-327.679992675781
398.4816231,-327.679992675781
398.4972481,-327.679992675781
398.5128731,-327.679992675781
398.5284981,-327.679992675781
398.5441231,-327.679992675781
398.5597481,-327.679992675781
398.5753731,-327.679992675781
398.5909981,-327.679992675781
398.6066231,-327.679992675781
398.6222481,-327.679992675781
398.6378731,-327.679992675781
398.6534981,-324.239990234375
398.6691231,-314.429992675781
398.6847481,-304.980010986328
398.7003731,-296.019989013672
398.7159981,-287.880004882813
398.7316231,-280.940002441406
398.7472481,-275.109985351563
398.7628731,-269.549987792969
398.7784981,-262.809997558594
398.7941231,-253.850006103516
398.8097481,-242.789993286133
398.8253731,-230.589996337891
398.8409981,-218.050003051758
398.8566231,-205.389999389648
398.8722481,-192.490005493164
398.8878731,-179.259994506836
398.9034981,-165.839996337891
398.9191231,-152.539993286133
398.9347481,-139.770004272461
398.9503731,-127.830001831055
398.9659981,-116.790000915527
398.9816231,-106.639999389648
398.9972481,-97.4800033569336
399.0128731,-89.3899993896484
399.0284981,-82.2300033569336
399.0441231,-75.3399963378906
399.0597481,-67.6699981689453
399.0753731,-58.4500007629395
399.0909981,-47.7999992370605
399.1066231,-36.4500007629395
399.1222481,-25.0900001525879
399.1378731,-14.1000003814697
399.1534981,-3.76999998092651
399.1691231,5.65999984741211
399.1847481,14.1599998474121
399.2003731,22.0699996948242
399.2159981,30.0300006866455
399.2316231,38.5699996948242
399.2472481,47.0900001525879
399.2628731,55.7700004577637
399.2784981,64.4199981689453
399.2941231,73.0299987792969
399.3097481,81.629997253418
399.3253731,90.0999984741211
399.3409981,98.2900009155273
399.3566231,106.080001831055
399.3722481,113.540000915527
399.3878731,120.790000915527
399.4034981,127.900001525879
399.4191231,134.789993286133
399.4347481,141.289993286133
399.4503731,147.240005493164
399.4659981,152.550003051758
399.4816231,157.259994506836
399.4972481,161.470001220703
399.5128731,165.240005493164
399.5284981,168.600006103516
399.5441231,171.559997558594
399.5597481,174.160003662109
399.5753731,176.440002441406
399.5909981,178.470001220703
399.6066231,180.259994506836
399.6222481,181.820007324219
399.6378731,183.100006103516
399.6534981,184.070007324219
399.6691231,184.690002441406
399.6847481,184.949996948242
399.7003731,184.850006103516
399.7159981,184.330001831055
399.7316231,183.339996337891
399.7472481,181.910003662109
399.7628731,180.190002441406
399.7784981,178.369995117188
399.7941231,176.539993286133
399.8097481,174.639999389648
399.8253731,172.509994506836
399.8409981,170.110000610352
399.8566231,167.600006103516
399.8722481,165.110000610352
399.8878731,162.740005493164
399.9034981,160.449996948242
399.9191231,158.089996337891
399.9347481,155.449996948242
399.9503731,152.369995117188
399.9659981,148.809997558594
399.9816231,144.770004272461
399.9972481,140.210006713867
400.0128731,135.050003051758
400.0284981,129.399993896484
400.0441231,123.599998474121
400.0597481,118.190002441406
400.0753731,113.569999694824
400.0909981,109.669998168945
400.1066231,106.209999084473
400.1222481,102.970001220703
400.1378731,99.9700012207031
400.1534981,97.2900009155273
400.1691231,94.9300003051758
400.1847481,92.7900009155273
400.2003731,90.8000030517578
400.2159981,89.0
400.2316231,87.4599990844727
400.2472481,84.5299987792969
400.2628731,81.9700012207031
400.2784981,79.6100006103516
400.2941231,77.3300018310547
400.3097481,75.0500030517578
400.3253731,72.7799987792969
400.3409981,70.5299987792969
400.3566231,68.370002746582
400.3722481,66.2799987792969
400.3878731,64.2099990844727
400.4034981,62.0999984741211
400.4191231,59.9000015258789
400.4347481,57.5999984741211
400.4503731,55.2400016784668
400.4659981,52.8600006103516
400.4816231,50.4799995422363
400.4972481,48.0800018310547
400.5128731,45.6199989318848
400.5284981,43.0999984741211
400.5441231,40.5
400.5597481,37.8400001525879
400.5753731,35.1100006103516
400.5909981,32.3300018310547
400.6066231,29.5799999237061
400.6222481,26.9300003051758
400.6378731,24.4400005340576
400.6534981,22.0900001525879
400.6691231,19.7999992370605
400.6847481,17.5400009155273
400.7003731,15.3299999237061
400.7159981,13.1899995803833
400.7316231,11.1400003433228
400.7472481,9.15999984741211
400.7628731,7.19000005722046
400.7784981,5.17999982833862
400.7941231,3.05999994277954
400.8097481,0.819999992847443
400.8253731,-1.50999999046326
400.8409981,-3.94000005722046
400.8566231,-6.46999979019165
400.8722481,-9.0600004196167
400.8878731,-11.6099996566772
400.9034981,-13.9700002670288
400.9191231,-16.0400009155273
400.9347481,-17.8400001525879
400.9503731,-19.4599990844727
400.9659981,-20.9899997711182
400.9816231,-22.4200000762939
400.9972481,-23.75
401.0128731,-24.9799995422363
401.0284981,-26.1000003814697
401.0441231,-27.0900001525879
401.0597481,-27.8400001525879
401.0753731,-28.2399997711182
401.0909981,-28.2600002288818
401.1066231,-27.9699993133545
401.1222481,-27.3899993896484
401.1378731,-26.5599994659424
401.1534981,-25.5599994659424
401.1691231,-24.5200004577637
401.1847481,-23.6399993896484
401.2003731,-23.0400009155273
401.2159981,-22.6900005340576
401.2316231,-22.5200004577637
401.2472481,-22.3199996948242
401.2628731,-22.3299999237061
401.2784981,-22.5900001525879
401.2941231,-23.0499992370605
401.3097481,-23.6499996185303
401.3253731,-24.3299999237061
401.3409981,-25.1000003814697
401.3566231,-26.0200004577637
401.3722481,-27.1399993896484
401.3878731,-28.4300003051758
401.4034981,-29.8199996948242
401.4191231,-31.2299995422363
401.4347481,-32.5800018310547
401.4503731,-33.8300018310547
401.4659981,-34.9900016784668
401.4816231,-36.1100006103516
401.4972481,-37.2999992370605
401.5128731,-38.6300010681152
401.5284981,-40.1300010681152
401.5441231,-41.7799987792969
401.5597481,-43.5999984741211
401.5753731,-45.5900001525879
401.5909981,-47.7099990844727
401.6066231,-49.8300018310547
401.6222481,-51.7299995422363
401.6378731,-53.2999992370605
401.6534981,-54.5900001525879
401.6691231,-55.75
401.6847481,-56.8400001525879
401.7003731,-57.7900009155273
401.7159981,-58.5
401.7316231,-58.939998626709
401.7472481,-59.1599998474121
401.7628731,-59.2900009155273
401.7784981,-59.4799995422363
401.7941231,-59.8499984741211
401.8097481,-60.4300003051758
401.8253731,-61.1699981689453
401.8409981,-62.0800018310547
401.8566231,-63.1599998474121
401.8722481,-64.3499984741211
401.8878731,-65.4599990844727
401.9034981,-66.1800003051758
401.9191231,-66.2200012207031
401.9347481,-65.5500030517578
401.9503731,-64.2900009155273
401.9659981,-62.6199989318848
401.9816231,-60.6800003051758
401.9972481,-58.5800018310547
402.0128731,-56.4000015258789
402.0284981,-54.2000007629395
402.0441231,-51.9700012207031
402.0597481,-49.6199989318848
402.0753731,-47.0299987792969
402.0909981,-44.1599998474121
402.1066231,-41.0699996948242
402.1222481,-37.8400001525879
402.1378731,-34.5400009155273
402.1534981,-31.2399997711182
402.1691231,-28.0699996948242
402.1847481,-25.1900005340576
402.2003731,-22.7199993133545
402.2159981,-20.6200008392334
402.2316231,-18.8099994659424
402.2472481,-17.5699996948242
402.2628731,-16.4099998474121
402.2784981,-15.3400001525879
402.2941231,-14.3500003814697
402.3097481,-13.4300003051758
402.3253731,-12.5100002288818
402.3409981,-11.5699996948242
402.3566231,-10.5699996948242
402.3722481,-9.52999973297119
402.3878731,-8.46000003814697
402.4034981,-7.38000011444092
402.4191231,-6.30000019073486
402.4347481,-5.23999977111816
402.4503731,-4.23999977111816
402.4659981,-3.36999988555908
402.4816231,-2.69000005722046
402.4972481,-2.20000004768372
402.5128731,-1.83000004291534
402.5284981,-1.48000001907349
402.5441231,-1.11000001430511
402.5597481,-0.720000028610229
402.5753731,-0.310000002384186
402.5909981,0.0900000035762787
402.6066231,0.5
402.6222481,0.959999978542328
402.6378731,1.51999998092651
402.6534981,2.19000005722046
402.6691231,2.95000004768372
402.6847481,3.79999995231628
402.7003731,4.73000001907349
402.7159981,5.71000003814697
402.7316231,6.65999984741211
402.7472481,7.48999977111816
402.7628731,8.1899995803833
402.7784981,8.90999984741211
402.7941231,9.84000015258789
402.8097481,11.0500001907349
402.8253731,12.460000038147
402.8409981,13.8699998855591
402.8566231,15.1499996185303
402.8722481,16.2399997711182
402.8878731,17.2700004577637
402.9034981,18.4899997711182
402.9191231,20.1399993896484
402.9347481,22.2800006866455
402.9503731,24.8600006103516
402.9659981,27.7800006866455
402.9816231,30.9899997711182
402.9972481,34.3499984741211
403.0128731,37.5099983215332
403.0284981,39.939998626709
403.0441231,41.25
403.0597481,41.4700012207031
403.0753731,40.9799995422363
403.0909981,40.1399993896484
403.1066231,39.1800003051758
403.1222481,38.2599983215332
403.1378731,37.5400009155273
403.1534981,37.0499992370605
403.1691231,36.6599998474121
403.1847481,36.1399993896484
403.2003731,35.310001373291
403.2159981,34.2400016784668
403.2316231,33.1300010681152
403.2472481,32.8199996948242
403.2628731,32.4000015258789
403.2784981,31.7199993133545
403.2941231,30.75
403.3097481,29.5100002288818
403.3253731,28.1100006103516
403.3409981,26.6399993896484
403.3566231,25.1499996185303
403.3722481,23.6499996185303
403.3878731,22.1800003051758
403.4034981,20.7900009155273
403.4191231,19.5599994659424
403.4347481,18.4899997711182
403.4503731,17.4300003051758
403.4659981,16.1200008392334
403.4816231,14.3599996566772
403.4972481,12.1300001144409
403.5128731,9.60999965667725
403.5284981,7.01000022888184
403.5441231,4.44999980926514
403.5597481,1.98000001907349
403.5753731,-0.419999986886978
403.5909981,-2.74000000953674
403.6066231,-4.94999980926514
403.6222481,-6.94000005722046
403.6378731,-8.63000011444092
403.6534981,-9.97000026702881
403.6691231,-10.8699998855591
403.6847481,-11.1599998474121
403.7003731,-10.6400003433228
403.7159981,-9.35000038146973
403.7316231,-7.61999988555908
403.7472481,-5.92999982833862
403.7628731,-4.57000017166138
403.7784981,-3.48000001907349
403.7941231,-2.42000007629395
403.8097481,-1.39999997615814
403.8253731,-0.670000016689301
403.8409981,-0.469999998807907
403.8566231,-0.829999983310699
403.8722481,-1.58000004291534
403.8878731,-2.46000003814697
403.9034981,-3.25
403.9191231,-3.85999989509583
403.9347481,-4.26999998092651
403.9503731,-4.51000022888184
403.9659981,-4.51999998092651
403.9816231,-4.23999977111816
403.9972481,-3.69000005722046
404.0128731,-3.11999988555908
404.0284981,-2.95000004768372
404.0441231,-3.54999995231628
404.0597481,-4.96999979019165
404.0753731,-6.98000001907349
404.0909981,-9.30000019073486
404.1066231,-11.7299995422363
404.1222481,-14.1499996185303
404.1378731,-16.5100002288818
404.1534981,-18.7800006866455
404.1691231,-20.9300003051758
404.1847481,-23.0200004577637
404.2003731,-25.0799999237061
404.2159981,-27.1299991607666
404.2316231,-29.1900005340576
404.2472481,-31.7299995422363
404.2628731,-34.3800010681152
404.2784981,-37.1300010681152
404.2941231,-39.9000015258789
404.3097481,-42.5800018310547
404.3253731,-45.1300010681152
404.3409981,-47.5900001525879
404.3566231,-50.0
404.3722481,-52.2900009155273
404.3878731,-54.310001373291
404.4034981,-55.9300003051758
404.4191231,-57.1300010681152
404.4347481,-58.0
404.4503731,-58.7299995422363
404.4659981,-59.5699996948242
404.4816231,-60.7000007629395
404.4972481,-62.1300010681152
404.5128731,-63.7200012207031
404.5284981,-65.2399978637695
404.5441231,-66.5100021362305
404.5597481,-67.4199981689453
404.5753731,-67.8300018310547
404.5909981,-67.5
404.6066231,-66.2200012207031
404.6222481,-63.9799995422363
404.6378731,-60.9900016784668
404.6534981,-57.4700012207031
404.6691231,-53.6500015258789
404.6847481,-49.6599998474121
404.7003731,-45.6399993896484
404.7159981,-41.7200012207031
404.7316231,-37.9099998474121
404.7472481,-34.1100006103516
404.7628731,-30.2199993133545
404.7784981,-26.2999992370605
404.7941231,-22.5200004577637
404.8097481,-18.9799995422363
404.8253731,-15.6800003051758
404.8409981,-12.5299997329712
404.8566231,-9.53999996185303
404.8722481,-6.80000019073486
404.8878731,-4.42999982833862
404.9034981,-2.49000000953674
404.9191231,-0.899999976158142
404.9347481,0.449999988079071
404.9503731,1.67999994754791
404.9659981,2.88000011444092
404.9816231,4.13000011444092
404.9972481,5.46000003814697
405.0128731,6.84999990463257
405.0284981,8.22000026702881
405.0441231,9.52999973297119
405.0597481,10.7299995422363
405.0753731,11.8000001907349
405.0909981,12.7399997711182
405.1066231,13.5500001907349
405.1222481,14.2600002288818
405.1378731,14.9200000762939
405.1534981,15.5699996948242
405.1691231,16.2299995422363
405.1847481,16.8899993896484
405.2003731,17.5200004577637
405.2159981,18.1299991607666
405.2316231,18.7199993133545
405.2472481,19.3899993896484
405.2628731,20.1000003814697
405.2784981,20.8700008392334
405.2941231,21.7000007629395
405.3097481,22.5900001525879
405.3253731,23.5400009155273
405.3409981,24.5300006866455
405.3566231,25.5300006866455
405.3722481,26.4899997711182
405.3878731,27.3799991607666
405.4034981,28.1700000762939
405.4191231,28.8899993896484
405.4347481,29.5599994659424
405.4503731,30.2000007629395
405.4659981,30.7999992370605
405.4816231,31.3600006103516
405.4972481,31.8700008392334
405.5128731,32.3199996948242
405.5284981,32.7400016784668
405.5441231,33.1399993896484
405.5597481,33.5400009155273
405.5753731,33.9900016784668
405.5909981,34.5800018310547
405.6066231,35.4000015258789
405.6222481,36.4300003051758
405.6378731,37.560001373291
405.6534981,38.5800018310547
405.6691231,39.2900009155273
405.6847481,39.6500015258789
405.7003731,39.6599998474121
405.7159981,39.3699989318848
405.7316231,38.5900001525879
405.7472481,37.0
405.7628731,34.310001373291
405.7784981,30.5799999237061
405.7941231,26.0400009155273
405.8097481,20.7099990844727
405.8253731,14.4899997711182
405.8409981,7.46999979019165
405.8566231,0.230000004172325
405.8722481,-6.32999992370605
405.8878731,-11.6700000762939
405.9034981,-15.9799995422363
405.9191231,-19.8099994659424
405.9347481,-23.3400001525879
405.9503731,-26.2299995422363
405.9659981,-28.0900001525879
405.9816231,-28.8400001525879
405.9972481,-28.7099990844727
406.0128731,-28.0100002288818
406.0284981,-26.8099994659424
406.0441231,-25.0300006866455
406.0597481,-22.6299991607666
406.0753731,-19.5900001525879
406.0909981,-15.8599996566772
406.1066231,-11.4399995803833
406.1222481,-6.40999984741211
406.1378731,-0.910000026226044
406.1534981,4.98000001907349
406.1691231,11.3500003814697
406.1847481,18.25
406.2003731,25.4400005340576
406.2159981,32.4000015258789
406.2316231,38.5299987792969
406.2472481,43.5099983215332
406.2628731,47.4099998474121
406.2784981,50.5900001525879
406.2941231,53.4799995422363
406.3097481,56.3699989318848
406.3253731,59.3899993896484
406.3409981,62.5
406.3566231,65.5800018310547
406.3722481,68.5800018310547
406.3878731,71.4899978637695
406.4034981,74.2900009155273
406.4191231,76.8399963378906
406.4347481,78.870002746582
406.4503731,80.2200012207031
406.4659981,80.9499969482422
406.4816231,81.3099975585938
406.4972481,81.5199966430664
406.5128731,81.6399993896484
406.5284981,81.6399993896484
406.5441231,81.4499969482422
406.5597481,81.0500030517578
406.5753731,80.4199981689453
406.5909981,79.5199966430664
406.6066231,78.3000030517578
406.6222481,76.7600021362305
406.6378731,74.9599990844727
406.6534981,72.9100036621094
406.6691231,70.620002746582
406.6847481,68.129997253418
406.7003731,65.4899978637695
406.7159981,62.7400016784668
406.7316231,59.7799987792969
406.7472481,56.439998626709
406.7628731,52.5900001525879
406.7784981,48.3300018310547
406.7941231,43.9599990844727
406.8097481,39.7799987792969
406.8253731,35.9599990844727
406.8409981,32.4900016784668
406.8566231,29.1700000762939
406.8722481,25.6700000762939
406.8878731,21.7399997711182
406.9034981,17.3099994659424
406.9191231,12.3999996185303
406.9347481,7.01000022888184
406.9503731,1.08000004291534
406.9659981,-5.23999977111816
406.9816231,-11.4899997711182
406.9972481,-16.9599990844727
407.0128731,-21.1900005340576
407.0284981,-24.3500003814697
407.0441231,-26.9799995422363
407.0597481,-29.4799995422363
407.0753731,-31.9699993133545
407.0909981,-34.560001373291
407.1066231,-37.439998626709
407.1222481,-40.6500015258789
407.1378731,-43.9199981689453
407.1534981,-46.6699981689453
407.1691231,-48.5099983215332
407.1847481,-49.5800018310547
407.2003731,-50.3499984741211
407.2159981,-51.0200004577637
407.2316231,-51.4799995422363
407.2472481,-51.4799995422363
407.2628731,-50.9300003051758
407.2784981,-49.9500007629395
407.2941231,-48.7799987792969
407.3097481,-47.7099990844727
407.3253731,-46.9000015258789
407.3409981,-46.3800010681152
407.3566231,-46.0699996948242
407.3722481,-45.8699989318848
407.3878731,-45.7099990844727
407.4034981,-45.5099983215332
407.4191231,-45.0200004577637
407.4347481,-43.7700004577637
407.4503731,-41.3400001525879
407.4659981,-37.6800003051758
407.4816231,-33.1399993896484
407.4972481,-28.2600002288818
407.5128731,-23.4599990844727
407.5284981,-19.0
407.5441231,-14.9099998474121
407.5597481,-11.1400003433228
407.5753731,-7.65999984741211
407.5909981,-4.48999977111816
407.6066231,-1.72000002861023
407.6222481,0.620000004768372
407.6378731,2.5699999332428
407.6534981,4.1399998664856
407.6691231,5.3600001335144
407.6847481,6.30000019073486
407.7003731,7.09999990463257
407.7159981,7.96000003814697
