Time(s),Value(%)
1168.0099667,-120.190002441406
1168.0255917,-123.860000610352
1168.0412167,-127.849998474121
1168.0568417,-131.740005493164
1168.0724667,-134.320007324219
1168.0880917,-133.179992675781
1168.1037167,-124.279998779297
1168.1193417,-102.930000305176
1168.1349667,-66.0100021362305
1168.1505917,-14.3199996948242
1168.1662167,45.7900009155273
1168.1818417,103.23999786377
1168.1974667,146.600006103516
1168.2130917,168.830001831055
1168.2287167,169.130004882813
1168.2443417,151.820007324219
1168.2599667,123.580001831055
1168.2755917,90.8899993896484
1168.2912167,58.7299995422363
1168.3068417,30.0900001525879
1168.3224667,5.6399998664856
1168.3380917,-15.8699998855591
1168.3537167,-36.1100006103516
1168.3693417,-55.6599998474121
1168.3849667,-73.5800018310547
1168.4005917,-87.9899978637695
1168.4162167,-97.0500030517578
1168.4318417,-99.7900009155273
1168.4474667,-96.2699966430664
1168.4630917,-87.5500030517578
1168.4787167,-75.4899978637695
1168.4943417,-62.2700004577637
1168.5099667,-49.7400016784668
1168.5255917,-39.0200004577637
1168.5412167,-30.3799991607666
1168.5568417,-23.6000003814697
1168.5724667,-18.4500007629395
1168.5880917,-14.8400001525879
1168.6037167,-12.8400001525879
1168.6193417,-12.3400001525879
1168.6349667,-13.0799999237061
1168.6505917,-14.7200002670288
1168.6662167,-17.0699996948242
1168.6818417,-19.8500003814697
1168.6974667,-22.25
1168.7130917,-22.3099994659424
1168.7287167,-16.5499992370605
1168.7443417,-0.879999995231628
1168.7599667,26.8999996185303
1168.7755917,64.6500015258789
1168.7912167,105.180000305176
1168.8068417,139.809997558594
1168.8224667,163.490005493164
1168.8380917,175.880004882813
1168.8537167,178.600006103516
1168.8693417,173.059997558594
1168.8849667,160.080001831055
1168.9005917,140.470001220703
1168.9162167,115.430000305176
1168.9318417,86.5100021362305
1168.9474667,55.6699981689453
1168.9630917,25.2800006866455
1168.9787167,-2.36999988555908
1168.9943417,-25.6100006103516
1169.0099667,-43.5299987792969
1169.0255917,-55.8899993896484
1169.0412167,-62.9000015258789
1169.0568417,-65.120002746582
1169.0724667,-63.3800010681152
1169.0880917,-58.6399993896484
1169.1037167,-51.9700012207031
1169.1193417,-44.5800018310547
1169.1349667,-37.6500015258789
1169.1505917,-32.0200004577637
1169.1662167,-28.0799999237061
1169.1818417,-25.7900009155273
1169.1974667,-24.5300006866455
1169.2130917,-23.2900009155273
1169.2287167,-21.2900009155273
1169.2443417,-18.6000003814697
1169.2599667,-16.0699996948242
1169.2755917,-14.5799999237061
1169.2912167,-14.3599996566772
1169.3068417,-14.8500003814697
1169.3224667,-14.6599998474121
1169.3380917,-10.9300003051758
1169.3537167,1.19000005722046
1169.3693417,26.5400009155273
1169.3849667,66.1999969482422
1169.4005917,115.690002441406
1169.4162167,166.610000610352
1169.4318417,210.220001220703
1169.4474667,239.869995117188
1169.4630917,251.809997558594
1169.4787167,245.779998779297
1169.4943417,224.850006103516
1169.5099667,194.149993896484
1169.5255917,158.929992675781
1169.5412167,123.150001525879
1169.5568417,88.8399963378906
1169.5724667,56.4099998474121
1169.5880917,25.75
1169.6037167,-2.53999996185303
1169.6193417,-27.0499992370605
1169.6349667,-46.189998626709
1169.6505917,-58.939998626709
1169.6662167,-65.4599990844727
1169.6818417,-67.0899963378906
1169.6974667,-65.7799987792969
1169.7130917,-63.439998626709
1169.7287167,-61.5200004577637
1169.7443417,-60.7700004577637
1169.7599667,-61.2999992370605
1169.7755917,-62.7700004577637
1169.7912167,-64.7600021362305
1169.8068417,-67.0599975585938
1169.8224667,-69.9000015258789
1169.8380917,-73.4700012207031
1169.8537167,-77.4400024414063
1169.8693417,-81.129997253418
1169.8849667,-83.9100036621094
1169.9005917,-85.5299987792969
1169.9162167,-86.0699996948242
1169.9318417,-85.9199981689453
1169.9474667,-85.0
1169.9630917,-81.379997253418
1169.9787167,-70.870002746582
1169.9943417,-49.0
1170.0099667,-14.25
1170.0255917,29.6700000762939
1170.0412167,75.0400009155273
1170.0568417,113.419998168945
1170.0724667,138.75
1170.0880917,148.630004882813
1170.1037167,143.779998779297
1170.1193417,127.139999389648
1170.1349667,102.669998168945
1170.1505917,74.1399993896484
1170.1662167,44.2700004577637
1170.1818417,14.3199996948242
1170.1974667,-15.1099996566772
1170.2130917,-43.1100006103516
1170.2287167,-68.2099990844727
1170.2443417,-89.0
1170.2599667,-104.51000213623
1170.2755917,-114.309997558594
1170.2912167,-118.610000610352
1170.3068417,-118.279998779297
1170.3224667,-114.800003051758
1170.3380917,-109.669998168945
1170.3537167,-104.069999694824
1170.3693417,-98.7099990844727
1170.3849667,-94.129997253418
1170.4005917,-90.629997253418
1170.4162167,-88.2099990844727
1170.4318417,-86.7200012207031
1170.4474667,-85.8600006103516
1170.4630917,-85.2099990844727
1170.4787167,-84.3499984741211
1170.4943417,-83.0100021362305
1170.5099667,-81.0299987792969
1170.5255917,-78.379997253418
1170.5412167,-75.0999984741211
1170.5568417,-70.9599990844727
1170.5724667,-64.8300018310547
1170.5880917,-53.7599983215332
1170.6037167,-33.25
1170.6193417,-0.100000001490116
1170.6349667,43.7599983215332
1170.6505917,90.9400024414063
1170.6662167,132.130004882813
1170.6818417,160.389999389648
1170.6974667,172.979995727539
1170.7130917,170.949996948242
1170.7287167,157.770004272461
1170.7443417,137.720001220703
1170.7599667,114.519996643066
1170.7755917,90.5899963378906
1170.7912167,67.129997253418
1170.8068417,44.5499992370605
1170.8224667,22.9799995422363
1170.8380917,3.05999994277954
1170.8537167,-13.7200002670288
1170.8693417,-25.6299991607666
1170.8849667,-31.6900005340576
1170.9005917,-32.0299987792969
1170.9162167,-27.6299991607666
1170.9318417,-19.8600006103516
1170.9474667,-10.3000001907349
1170.9630917,-0.75
1170.9787167,7.1100001335144
1170.9943417,12.1599998474121
1171.0099667,14.0799999237061
1171.0255917,13.2700004577637
1171.0412167,10.5500001907349
1171.0568417,6.71000003814697
1171.0724667,2.27999997138977
1171.0880917,-2.38000011444092
1171.1037167,-6.86999988555908
1171.1193417,-10.7200002670288
1171.1349667,-13.75
1171.1505917,-15.9700002670288
1171.1662167,-17.0400009155273
1171.1818417,-15.25
1171.1974667,-7.01000022888184
1171.2130917,11.6899995803833
1171.2287167,42.0699996948242
1171.2443417,80.0599975585938
1171.2599667,117.459999084473
1171.2755917,145.899993896484
1171.2912167,160.339996337891
1171.3068417,160.039993286133
1171.3224667,147.369995117188
1171.3380917,126.129997253418
1171.3537167,100.139999389648
1171.3693417,72.2699966430664
1171.3849667,44.2000007629395
1171.4005917,16.7999992370605
1171.4162167,-9.48999977111816
1171.4318417,-34.4000015258789
1171.4474667,-57.1800003051758
1171.4630917,-76.2799987792969
1171.4787167,-90.0400009155273
1171.4943417,-97.6399993896484
1171.5099667,-99.4300003051758
1171.5255917,-96.6900024414063
1171.5412167,-91.1600036621094
1171.5568417,-84.629997253418
1171.5724667,-78.6699981689453
1171.5880917,-74.2900009155273
1171.6037167,-71.7600021362305
1171.6193417,-70.7600021362305
1171.6349667,-70.7300033569336
1171.6505917,-71.1500015258789
1171.6662167,-71.6999969482422
1171.6818417,-72.2900009155273
1171.6974667,-72.870002746582
1171.7130917,-73.1600036621094
1171.7287167,-72.7600021362305
1171.7443417,-71.4899978637695
1171.7599667,-69.3600006103516
1171.7755917,-66.2699966430664
1171.7912167,-61.0499992370605
1171.8068417,-50.6800003051758
1171.8224667,-31.5900001525879
1171.8380917,-1.89999997615814
1171.8537167,37.4599990844727
1171.8693417,82.1600036621094
1171.8849667,124.970001220703
1171.9005917,158.520004272461
1171.9162167,178.309997558594
1171.9318417,183.809997558594
1171.9474667,177.559997558594
1171.9630917,163.330001831055
1171.9787167,144.559997558594
1171.9943417,123.650001525879
1172.0099667,102.0
1172.0255917,80.2300033569336
1172.0412167,58.5299987792969
1172.0568417,37.1699981689453
1172.0724667,17.0100002288818
1172.0880917,-0.879999995231628
1172.1037167,-16.2900009155273
1172.1193417,-29.7099990844727
1172.1349667,-41.4099998474121
1172.1505917,-50.9000015258789
1172.1662167,-57.5
1172.1818417,-61.0999984741211
1172.1974667,-62.4799995422363
1172.2130917,-63.0200004577637
1172.2287167,-64.0400009155273
1172.2443417,-66.2600021362305
1172.2599667,-69.7200012207031
1172.2755917,-74.1399993896484
1172.2912167,-79.0299987792969
1172.3068417,-83.8899993896484
1172.3224667,-88.4000015258789
1172.3380917,-92.5199966430664
1172.3537167,-96.4100036621094
1172.3693417,-100.059997558594
1172.3849667,-103.110000610352
1172.4005917,-105.160003662109
1172.4162167,-105.970001220703
1172.4318417,-105.050003051758
1172.4474667,-100.519996643066
1172.4630917,-88.1699981689453
1172.4787167,-63.189998626709
1172.4943417,-24.3799991607666
1172.5099667,23.2700004577637
1172.5255917,70.4100036621094
1172.5412167,107.680000305176
1172.5568417,129.589996337891
1172.5724667,135.75
1172.5880917,129.479995727539
1172.6037167,115.279998779297
1172.6193417,96.9599990844727
1172.6349667,77.0
1172.6505917,56.7099990844727
1172.6662167,36.6300010681152
1172.6818417,17.1200008392334
1172.6974667,-1.4099999666214
1172.7130917,-18.4699993133545
1172.7287167,-33.2999992370605
1172.7443417,-44.9099998474121
1172.7599667,-52.3699989318848
1172.7755917,-55.2799987792969
1172.7912167,-54.0200004577637
1172.8068417,-49.7000007629395
1172.8224667,-43.8400001525879
1172.8380917,-37.9799995422363
1172.8537167,-33.3899993896484
1172.8693417,-30.7600002288818
1172.8849667,-30.0799999237061
1172.9005917,-30.7099990844727
1172.9162167,-31.7700004577637
1172.9318417,-32.5900001525879
1172.9474667,-32.9900016784668
1172.9630917,-33.2599983215332
1172.9787167,-33.6500015258789
1172.9943417,-33.9599990844727
1173.0099667,-33.7400016784668
1173.0255917,-32.6699981689453
1173.0412167,-30.6900005340576
1173.0568417,-27.8899993896484
1173.0724667,-24.1100006103516
1173.0880917,-17.6100006103516
1173.1037167,-3.97000002861023
1173.1193417,21.6000003814697
1173.1349667,59.5200004577637
1173.1505917,103.660003662109
1173.1662167,144.169998168945
1173.1818417,172.600006103516
1173.1974667,185.389999389648
1173.2130917,183.970001220703
1173.2287167,172.589996337891
1173.2443417,155.649993896484
1173.2599667,136.229995727539
1173.2755917,115.779998779297
1173.2912167,94.629997253418
1173.3068417,72.5899963378906
1173.3224667,49.7099990844727
1173.3380917,26.6399993896484
1173.3537167,4.63000011444092
1173.3693417,-14.6899995803833
1173.3849667,-29.7199993133545
1173.4005917,-39.4199981689453
1173.4162167,-43.8499984741211
1173.4318417,-44.2099990844727
1173.4474667,-42.5800018310547
1173.4630917,-41.2000007629395
1173.4787167,-41.5800018310547
1173.4943417,-43.9599990844727
1173.5099667,-47.7099990844727
1173.5255917,-51.9000015258789
1173.5412167,-55.8400001525879
1173.5568417,-59.2000007629395
1173.5724667,-62.1399993896484
1173.5880917,-65.120002746582
1173.6037167,-68.5999984741211
1173.6193417,-72.6800003051758
1173.6349667,-76.8600006103516
1173.6505917,-80.4400024414063
1173.6662167,-83.0299987792969
1173.6818417,-84.5100021362305
1173.6974667,-84.4100036621094
1173.7130917,-81.129997253418
1173.7287167,-71.3000030517578
1173.7443417,-50.6599998474121
1173.7599667,-17.1800003051758
1173.7755917,25.5699996948242
1173.7912167,69.0100021362305
1173.8068417,103.620002746582
1173.8224667,123.449996948242
1173.8380917,127.75
1173.8537167,119.73999786377
1173.8693417,104.139999389648
1173.8849667,85.1699981689453
1173.9005917,65.5
1173.9162167,46.2799987792969
1173.9318417,27.7600002288818
1173.9474667,9.97000026702881
1173.9630917,-7.01999998092651
1173.9787167,-22.7099990844727
1173.9943417,-35.8499984741211
1174.0099667,-45.0200004577637
1174.0255917,-49.4099998474121
1174.0412167,-49.1800003051758
1174.0568417,-45.310001373291
1174.0724667,-39.2299995422363
1174.0880917,-32.4900016784668
1174.1037167,-26.5
1174.1193417,-22.3299999237061
1174.1349667,-20.4300003051758
1174.1505917,-20.75
1174.1662167,-22.75
1174.1818417,-25.6700000762939
1174.1974667,-28.7000007629395
1174.2130917,-31.2900009155273
1174.2287167,-33.1500015258789
1174.2443417,-34.1699981689453
1174.2599667,-34.4099998474121
1174.2755917,-34.1300010681152
1174.2912167,-33.6500015258789
1174.3068417,-33.1500015258789
1174.3224667,-32.4099998474121
1174.3380917,-30.2000007629395
1174.3537167,-23.2700004577637
1174.3693417,-6.55999994277954
1174.3849667,24.3199996948242
1174.4005917,69.1600036621094
1174.4162167,120.970001220703
1174.4318417,168.559997558594
1174.4474667,202.100006103516
1174.4630917,217.380004882813
1174.4787167,215.779998779297
1174.4943417,201.75
1174.5099667,180.080001831055
1174.5255917,154.520004272461
1174.5412167,127.319999694824
1174.5568417,99.5699996948242
1174.5724667,71.6699981689453
1174.5880917,43.9000015258789
1174.6037167,16.7000007629395
1174.6193417,-9.0600004196167
1174.6349667,-32.0200004577637
1174.6505917,-50.7400016784668
1174.6662167,-64.25
1174.6818417,-72.4700012207031
1174.6974667,-76.3499984741211
1174.7130917,-77.629997253418
1174.7287167,-78.2099990844727
1174.7443417,-79.5299987792969
1174.7599667,-82.3600006103516
1174.7755917,-86.7799987792969
1174.7912167,-92.3099975585938
1174.8068417,-98.1600036621094
1174.8224667,-103.639999389648
1174.8380917,-108.459999084473
1174.8537167,-112.669998168945
1174.8693417,-116.400001525879
1174.8849667,-119.470001220703
1174.9005917,-121.459999084473
1174.9162167,-121.980003356934
1174.9318417,-120.879997253418
1174.9474667,-118.360000610352
1174.9630917,-114.830001831055
1174.9787167,-110.430000305176
1174.9943417,-104.040000915527
1175.0099667,-92.5100021362305
1175.0255917,-70.9400024414063
1175.0412167,-35.5
1175.0568417,12.3500003814697
1175.0724667,64.6699981689453
1175.0880917,110.440002441406
1175.1037167,140.720001220703
1175.1193417,152.289993286133
1175.1349667,147.860000610352
1175.1505917,133.419998168945
1175.1662167,114.790000915527
1175.1818417,95.5699996948242
1175.1974667,76.8399963378906
1175.2130917,57.9900016784668
1175.2287167,38.0400009155273
1175.2443417,16.8400001525879
1175.2599667,-4.32000017166138
1175.2755917,-23.3700008392334
1175.2912167,-38.4099998474121
1175.3068417,-48.3300018310547
1175.3224667,-52.9700012207031
1175.3380917,-52.9900016784668
1175.3537167,-49.4700012207031
1175.3693417,-43.5200004577637
1175.3849667,-36.2599983215332
1175.4005917,-28.8500003814697
1175.4162167,-22.4599990844727
1175.4318417,-18.0100002288818
1175.4474667,-15.8900003433228
1175.4630917,-15.8900003433228
1175.4787167,-17.4599990844727
1175.4943417,-19.9200000762939
1175.5099667,-22.4500007629395
1175.5255917,-24.4300003051758
1175.5412167,-25.6000003814697
1175.5568417,-25.9599990844727
1175.5724667,-25.6599998474121
1175.5880917,-24.7900009155273
1175.6037167,-23.1499996185303
1175.6193417,-20.6000003814697
1175.6349667,-17.5699996948242
1175.6505917,-14.6700000762939
1175.6662167,-11.210000038147
1175.6818417,-4.09999990463257
1175.6974667,11.5799999237061
1175.7130917,39.3300018310547
1175.7287167,77.2099990844727
1175.7443417,117.639999389648
1175.7599667,151.020004272461
1175.7755917,170.059997558594
1175.7912167,172.460006713867
1175.8068417,160.729995727539
1175.8224667,139.889999389648
1175.8380917,114.889999389648
1175.8537167,89.0199966430664
1175.8693417,63.5299987792969
1175.8849667,38.3199996948242
1175.9005917,13.3800001144409
1175.9162167,-10.1700000762939
1175.9318417,-30.4200000762939
1175.9474667,-45.5400009155273
1175.9630917,-54.6100006103516
1175.9787167,-57.7299995422363
1175.9943417,-55.8600006103516
1176.0099667,-50.4900016784668
1176.0255917,-43.3899993896484
1176.0412167,-36.2700004577637
1176.0568417,-30.5599994659424
1176.0724667,-27.0499992370605
1176.0880917,-25.8700008392334
1176.1037167,-26.7199993133545
1176.1193417,-29.0799999237061
1176.1349667,-32.4199981689453
1176.1505917,-36.1300010681152
1176.1662167,-39.5800018310547
1176.1818417,-42.3800010681152
1176.1974667,-44.4599990844727
1176.2130917,-45.8899993896484
1176.2287167,-46.8300018310547
1176.2443417,-47.5
1176.2599667,-47.9799995422363
1176.2755917,-47.9000015258789
1176.2912167,-46.0999984741211
1176.3068417,-40.0099983215332
1176.3224667,-25.4799995422363
1176.3380917,1.44000005722046
1176.3537167,41.1100006103516
1176.3693417,87.9899978637695
1176.3849667,132.470001220703
1176.4005917,165.210006713867
1176.4162167,180.800003051758
1176.4318417,179.149993896484
1176.4474667,164.389999389648
1176.4630917,142.169998168945
1176.4787167,117.029998779297
1176.4943417,91.2399978637695
1176.5099667,65.3399963378906
1176.5255917,39.5400009155273
1176.5412167,14.4499998092651
1176.5568417,-8.86999988555908
1176.5724667,-29.1700000762939
1176.5880917,-45.2000007629395
1176.6037167,-55.9700012207031
1176.6193417,-60.9500007629395
1176.6349667,-60.0
1176.6505917,-53.7900009155273
1176.6662167,-43.9900016784668
1176.6818417,-32.8699989318848
1176.6974667,-22.5900001525879
1176.7130917,-14.5100002288818
1176.7287167,-9.01000022888184
1176.7443417,-5.67999982833862
1176.7599667,-3.96000003814697
1176.7755917,-3.78999996185303
1176.7912167,-5.38000011444092
1176.8068417,-8.93000030517578
1176.8224667,-14.3299999237061
1176.8380917,-21.1200008392334
1176.8537167,-28.3899993896484
1176.8693417,-35.2400016784668
1176.8849667,-41.4000015258789
1176.9005917,-47.4199981689453
1176.9162167,-53.7299995422363
1176.9318417,-59.3800010681152
1176.9474667,-61.0299987792969
1176.9630917,-53.8699989318848
1176.9787167,-34.3499984741211
1176.9943417,-2.76999998092651
1177.0099667,35.6399993896484
1177.0255917,72.3600006103516
1177.0412167,99.2900009155273
1177.0568417,111.949996948242
1177.0724667,110.0
1177.0880917,95.9400024414063
1177.1037167,73.4100036621094
1177.1193417,45.8899993896484
1177.1349667,16.0
1177.1505917,-14.5100002288818
1177.1662167,-44.3300018310547
1177.1818417,-72.3000030517578
1177.1974667,-97.3899993896484
1177.2130917,-118.769996643066
1177.2287167,-135.869995117188
1177.2443417,-148.419998168945
1177.2599667,-156.240005493164
1177.2755917,-159.089996337891
1177.2912167,-157.020004272461
1177.3068417,-150.710006713867
1177.3224667,-141.550003051758
1177.3380917,-131.210006713867
1177.3537167,-121.230003356934
1177.3693417,-112.660003662109
1177.3849667,-105.980003356934
1177.4005917,-101.040000915527
1177.4162167,-97.2900009155273
1177.4318417,-94.1100006103516
1177.4474667,-91.0699996948242
1177.4630917,-87.879997253418
1177.4787167,-84.3000030517578
1177.4943417,-80.129997253418
1177.5099667,-75.120002746582
1177.5255917,-68.8600006103516
1177.5412167,-61.5299987792969
1177.5568417,-54.6399993896484
1177.5724667,-49.7200012207031
1177.5880917,-45.0800018310547
1177.6037167,-34.7000007629395
1177.6193417,-11.1899995803833
1177.6349667,28.8500003814697
1177.6505917,80.9000015258789
1177.6662167,133.570007324219
1177.6818417,174.600006103516
1177.6974667,196.720001220703
1177.7130917,199.460006713867
1177.7287167,187.289993286133
1177.7443417,166.169998168945
1177.7599667,141.070007324219
1177.7755917,115.150001525879
1177.7912167,89.9000015258789
1177.8068417,65.9300003051758
1177.8224667,43.6500015258789
1177.8380917,23.7199993133545
1177.8537167,7.09999990463257
1177.8693417,-5.1399998664856
1177.8849667,-12.3000001907349
1177.9005917,-14.1499996185303
1177.9162167,-11.1899995803833
1177.9318417,-4.69000005722046
1177.9474667,3.48000001907349
1177.9630917,11.4099998474121
1177.9787167,17.6299991607666
1177.9943417,21.3199996948242
1178.0099667,22.4200000762939
1178.0255917,21.5
1178.0412167,19.4599990844727
1178.0568417,17.0200004577637
1178.0724667,14.6499996185303
1178.0880917,12.6499996185303
1178.1037167,11.3199996948242
1178.1193417,10.7700004577637
1178.1349667,10.8000001907349
1178.1505917,11.1499996185303
1178.1662167,11.7399997711182
1178.1818417,12.8999996185303
1178.1974667,15.8900003433228
1178.2130917,23.2900009155273
1178.2287167,38.6199989318848
1178.2443417,64.6800003051758
1178.2599667,100.629997253418
1178.2755917,140.660003662109
1178.2912167,176.429992675781
1178.3068417,200.929992675781
1178.3224667,210.809997558594
1178.3380917,206.529998779297
1178.3537167,191.020004272461
