Time(s),Value(%)
355.0046269,52.1100006103516
355.0202519,59.5400009155273
355.0358769,66.2600021362305
355.0515019,72.2799987792969
355.0671269,77.75
355.0827519,82.8399963378906
355.0983769,87.5400009155273
355.1140019,91.2399978637695
355.1296269,92.620002746582
355.1452519,90.4599990844727
355.1608769,84.5299987792969
355.1765019,75.4199981689453
355.1921269,63.810001373291
355.2077519,50.2400016784668
355.2233769,35.5
355.2390019,21.2000007629395
355.2546269,9.77999973297119
355.2702519,3.63000011444092
355.2858769,4.03999996185303
355.3015019,10.8699998855591
355.3171269,22.9599990844727
355.3327519,38.5999984741211
355.3483769,55.8800010681152
355.3640019,73.0699996948242
355.3796269,89.0199966430664
355.3952519,103.48999786377
355.4108769,117.019996643066
355.4265019,130.389999389648
355.4421269,144.059997558594
355.4577519,158.199996948242
355.4733769,172.979995727539
355.4890019,188.479995727539
355.5046269,204.330001831055
355.5202519,219.270004272461
355.5358769,231.380004882813
355.5515019,239.190002441406
355.5671269,242.610000610352
355.5827519,242.669998168945
355.5983769,240.479995727539
355.6140019,236.720001220703
355.6296269,231.770004272461
355.6452519,225.970001220703
355.6608769,219.490005493164
355.6765019,211.589996337891
355.6921269,200.369995117188
355.7077519,184.009994506836
355.7233769,162.210006713867
355.7390019,136.289993286133
355.7546269,108.0
355.7702519,78.8499984741211
355.7858769,50.0900001525879
355.8015019,23.4200000762939
355.8171269,1.12000000476837
355.8327519,-15.1400003433228
355.8483769,-25.5100002288818
355.8640019,-31.5799999237061
355.8796269,-35.0
355.8952519,-36.75
355.9108769,-37.310001373291
355.9265019,-37.0200004577637
355.9421269,-36.2400016784668
355.9577519,-35.1800003051758
355.9733769,-33.8400001525879
355.9890019,-32.0900001525879
356.0046269,-29.8799991607666
356.0202519,-27.3799991607666
356.0358769,-24.8500003814697
356.0515019,-22.5799999237061
356.0671269,-20.6800003051758
356.0827519,-19.0499992370605
356.0983769,-17.4300003051758
356.1140019,-15.5500001907349
356.1296269,-13.289999961853
356.1452519,-10.7399997711182
356.1608769,-8.0600004196167
356.1765019,-5.42999982833862
356.1921269,-2.96000003814697
356.2077519,-0.709999978542328
356.2233769,1.32000005245209
356.2390019,3.35999989509583
356.2546269,5.76000022888184
356.2702519,8.85000038146973
356.2858769,12.4799995422363
356.3015019,16.4699993133545
356.3171269,20.3899993896484
356.3327519,23.9400005340576
356.3483769,26.9300003051758
356.3640019,29.1900005340576
356.3796269,30.5
356.3952519,30.6900005340576
356.4108769,29.7999992370605
356.4265019,28.1399993896484
356.4421269,26.0900001525879
356.4577519,23.9799995422363
356.4733769,21.9799995422363
356.4890019,20.1299991607666
356.5046269,18.3899993896484
356.5202519,16.7800006866455
356.5358769,15.3900003433228
356.5515019,14.3599996566772
356.5671269,13.710000038147
356.5827519,13.3699998855591
356.5983769,13.2299995422363
356.6140019,13.210000038147
356.6296269,13.2200002670288
356.6452519,13.1099996566772
356.6608769,12.6999998092651
356.6765019,11.8800001144409
356.6921269,10.7299995422363
356.7077519,9.42000007629395
356.7233769,8.07999992370605
356.7390019,6.73000001907349
356.7546269,5.30999994277954
356.7702519,3.80999994277954
356.7858769,2.25
356.8015019,0.759999990463257
356.8171269,-0.389999985694885
356.8327519,-1.01999998092651
356.8483769,-1.07000005245209
356.8640019,-0.610000014305115
356.8796269,0.239999994635582
356.8952519,1.46000003814697
356.9108769,2.90000009536743
356.9265019,4.26000022888184
356.9421269,5.07999992370605
356.9577519,5.05999994277954
356.9733769,4.25
356.9890019,2.98000001907349
357.0046269,1.50999999046326
357.0202519,-0.0900000035762787
357.0358769,-1.89999997615814
357.0515019,-3.90000009536743
357.0671269,-6.05999994277954
357.0827519,-8.35999965667725
357.0983769,-10.8999996185303
357.1140019,-13.8000001907349
357.1296269,-17.1200008392334
357.1452519,-20.7800006866455
357.1608769,-24.5900001525879
357.1765019,-28.3500003814697
357.1921269,-31.9099998474121
357.2077519,-35.2200012207031
357.2233769,-38.2900009155273
357.2390019,-41.2700004577637
357.2546269,-44.3600006103516
357.2702519,-47.7400016784668
357.2858769,-51.060001373291
357.3015019,-54.560001373291
357.3171269,-58.1100006103516
357.3327519,-61.6100006103516
357.3483769,-64.9800033569336
357.3640019,-68.0500030517578
357.3796269,-70.5599975585938
357.3952519,-72.3399963378906
357.4108769,-73.4199981689453
357.4265019,-73.9800033569336
357.4421269,-74.2200012207031
357.4577519,-74.25
357.4733769,-74.129997253418
357.4890019,-73.8600006103516
357.5046269,-73.5
357.5202519,-73.0999984741211
357.5358769,-72.7399978637695
357.5515019,-72.5
357.5671269,-72.379997253418
357.5827519,-72.379997253418
357.5983769,-72.5
357.6140019,-72.7399978637695
357.6296269,-73.0699996948242
357.6452519,-73.370002746582
357.6608769,-73.4599990844727
357.6765019,-73.2600021362305
357.6921269,-72.9100036621094
357.7077519,-72.6399993896484
357.7233769,-72.5400009155273
357.7390019,-72.5199966430664
357.7546269,-72.4100036621094
357.7702519,-72.0899963378906
357.7858769,-71.4800033569336
357.8015019,-70.5
357.8171269,-68.9199981689453
357.8327519,-66.5199966430664
357.8483769,-63.3300018310547
357.8640019,-59.6100006103516
357.8796269,-55.8199996948242
357.8952519,-52.3300018310547
357.9108769,-49.2999992370605
357.9265019,-46.7599983215332
357.9421269,-44.6500015258789
357.9577519,-42.9500007629395
357.9733769,-41.6199989318848
357.9890019,-40.5699996948242
358.0046269,-39.6300010681152
358.0202519,-38.6100006103516
358.0358769,-37.3899993896484
358.0515019,-35.9799995422363
358.0671269,-34.4500007629395
358.0827519,-32.9500007629395
358.0983769,-31.6700000762939
358.1140019,-30.7099990844727
358.1296269,-30.0799999237061
358.1452519,-29.7399997711182
358.1608769,-29.6599998474121
358.1765019,-29.8199996948242
358.1921269,-30.1700000762939
358.2077519,-30.5200004577637
358.2233769,-30.5900001525879
358.2390019,-30.1499996185303
358.2546269,-29.1800003051758
358.2702519,-27.8299999237061
358.2858769,-26.2000007629395
358.3015019,-24.3500003814697
358.3171269,-22.3099994659424
358.3327519,-20.1299991607666
358.3483769,-17.8899993896484
358.3640019,-15.6300001144409
358.3796269,-13.3100004196167
358.3952519,-10.8599996566772
358.4108769,-8.27999973297119
358.4265019,-5.67000007629395
358.4421269,-3.21000003814697
358.4577519,-1.05999994277954
358.4733769,0.689999997615814
358.4890019,2.14000010490417
358.5046269,3.36999988555908
358.5202519,4.51000022888184
358.5358769,5.6399998664856
358.5515019,6.84999990463257
358.5671269,8.25
358.5827519,9.88000011444092
358.5983769,11.7399997711182
358.6140019,13.7200002670288
358.6296269,15.6999998092651
358.6452519,17.6000003814697
358.6608769,19.4099998474121
358.6765019,21.1599998474121
358.6921269,22.9099998474121
358.7077519,24.6800003051758
358.7233769,26.5300006866455
358.7390019,28.4899997711182
358.7546269,30.5400009155273
358.7702519,32.5800018310547
358.7858769,34.4799995422363
358.8015019,36.1800003051758
358.8171269,37.7700004577637
358.8327519,39.3600006103516
358.8483769,40.9599990844727
358.8640019,42.4900016784668
358.8796269,43.8400001525879
358.8952519,44.9599990844727
358.9108769,45.8499984741211
358.9265019,46.560001373291
358.9421269,47.1399993896484
358.9577519,47.6100006103516
358.9733769,47.9799995422363
358.9890019,48.2599983215332
359.0046269,48.4700012207031
359.0202519,48.6399993896484
359.0358769,48.7599983215332
359.0515019,48.7999992370605
359.0671269,48.6399993896484
359.0827519,48.2400016784668
359.0983769,47.6699981689453
359.1140019,47.0900001525879
359.1296269,46.6199989318848
359.1452519,46.3600006103516
359.1608769,46.3699989318848
359.1765019,46.6699981689453
359.1921269,47.2000007629395
359.2077519,47.810001373291
359.2233769,48.2599983215332
359.2390019,48.3899993896484
359.2546269,48.2099990844727
359.2702519,47.7799987792969
359.2858769,47.25
359.3015019,46.4799995422363
359.3171269,45.4500007629395
359.3327519,44.2000007629395
359.3483769,42.810001373291
359.3640019,41.310001373291
359.3796269,39.6300010681152
359.3952519,37.6599998474121
359.4108769,35.3600006103516
359.4265019,32.810001373291
359.4421269,30.1299991607666
359.4577519,27.4200000762939
359.4733769,24.7600002288818
359.4890019,22.2399997711182
359.5046269,19.9400005340576
359.5202519,17.8299999237061
359.5358769,15.710000038147
359.5515019,13.3299999237061
359.5671269,10.6000003814697
359.5827519,7.65000009536743
359.5983769,4.71999979019165
359.6140019,1.99000000953674
359.6296269,-0.46000000834465
359.6452519,-2.74000000953674
359.6608769,-5.07999992370605
359.6765019,-7.67999982833862
359.6921269,-10.6199998855591
359.7077519,-13.8999996185303
359.7233769,-17.5400009155273
359.7390019,-21.5499992370605
359.7546269,-25.8299999237061
359.7702519,-29.9799995422363
359.7858769,-33.4300003051758
359.8015019,-35.7200012207031
359.8171269,-36.9199981689453
359.8327519,-37.3800010681152
359.8483769,-37.4300003051758
359.8640019,-37.1699981689453
359.8796269,-36.5999984741211
359.8952519,-35.7299995422363
359.9108769,-34.5999984741211
359.9265019,-33.189998626709
359.9421269,-31.2900009155273
359.9577519,-28.6800003051758
359.9733769,-25.3299999237061
359.9890019,-21.5
360.0046269,-17.5799999237061
360.0202519,-13.9300003051758
360.0358769,-10.7299995422363
360.0515019,-8.02000045776367
360.0671269,-5.80000019073486
360.0827519,-4.03999996185303
360.0983769,-2.72000002861023
360.1140019,-1.72000002861023
360.1296269,-0.889999985694885
360.1452519,-0.0599999986588955
360.1608769,0.839999973773956
360.1765019,1.83000004291534
360.1921269,2.89000010490417
360.2077519,4.1100001335144
360.2233769,5.76000022888184
360.2390019,8.11999988555908
360.2546269,11.1999998092651
360.2702519,14.7600002288818
360.2858769,18.3999996185303
360.3015019,21.7000007629395
360.3171269,24.4599990844727
360.3327519,26.5599994659424
360.3483769,27.8500003814697
360.3640019,28.1100006103516
360.3796269,27.2299995422363
360.3952519,25.2900009155273
360.4108769,22.6599998474121
360.4265019,19.8099994659424
360.4421269,17.1599998474121
360.4577519,14.8900003433228
360.4733769,13.0
360.4890019,11.460000038147
360.5046269,10.3599996566772
360.5202519,9.80000019073486
360.5358769,9.8100004196167
360.5515019,10.3500003814697
360.5671269,11.3699998855591
360.5827519,12.8500003814697
360.5983769,14.6899995803833
360.6140019,16.7000007629395
360.6296269,18.7199993133545
360.6452519,20.6900005340576
360.6608769,22.75
360.6765019,25.0200004577637
360.6921269,27.3600006103516
360.7077519,29.4799995422363
360.7233769,31.1000003814697
360.7390019,32.1500015258789
360.7546269,32.7200012207031
360.7702519,32.8300018310547
360.7858769,32.3199996948242
360.8015019,30.9599990844727
360.8171269,28.6200008392334
360.8327519,25.1700000762939
360.8483769,20.2399997711182
360.8640019,13.4799995422363
360.8796269,5.03000020980835
360.8952519,-4.38000011444092
360.9108769,-13.7200002670288
360.9265019,-22.1499996185303
360.9421269,-29.2600002288818
360.9577519,-34.7799987792969
360.9733769,-38.3300018310547
360.9890019,-39.5800018310547
361.0046269,-38.6399993896484
361.0202519,-36.1800003051758
361.0358769,-33.0800018310547
361.0515019,-30.0200004577637
361.0671269,-27.2399997711182
361.0827519,-24.6100006103516
361.0983769,-21.8999996185303
361.1140019,-18.9500007629395
361.1296269,-15.6700000762939
361.1452519,-12.0699996948242
361.1608769,-8.27999973297119
361.1765019,-4.53999996185303
361.1921269,-1.12999999523163
361.2077519,1.75999999046326
361.2233769,4.23999977111816
361.2390019,6.48000001907349
361.2546269,8.57999992370605
361.2702519,10.710000038147
361.2858769,13.1499996185303
361.3015019,16.25
361.3171269,20.0900001525879
361.3327519,24.3799991607666
361.3483769,28.6100006103516
361.3640019,32.4799995422363
361.3796269,36.1300010681152
361.3952519,39.8300018310547
361.4108769,43.4700012207031
361.4265019,46.6100006103516
361.4421269,48.8499984741211
361.4577519,50.0999984741211
361.4733769,50.5999984741211
361.4890019,50.6800003051758
361.5046269,50.5699996948242
361.5202519,50.3699989318848
361.5358769,50.060001373291
361.5515019,49.6399993896484
361.5671269,49.1399993896484
361.5827519,48.6300010681152
361.5983769,48.1300010681152
361.6140019,47.4300003051758
361.6296269,46.1399993896484
361.6452519,43.8499984741211
361.6608769,40.4799995422363
361.6765019,36.2599983215332
361.6921269,31.6000003814697
361.7077519,26.8899993896484
361.7233769,22.3700008392334
361.7390019,18.1299991607666
361.7546269,14.1400003433228
361.7702519,10.2700004577637
361.7858769,6.30999994277954
361.8015019,2.08999991416931
361.8171269,-2.38000011444092
361.8327519,-7.03999996185303
361.8483769,-11.7700004577637
361.8640019,-16.5
361.8796269,-21.1200008392334
361.8952519,-25.4899997711182
361.9108769,-29.3600006103516
361.9265019,-32.5499992370605
361.9421269,-35.0800018310547
361.9577519,-37.1199989318848
361.9733769,-38.8400001525879
361.9890019,-40.2999992370605
362.0046269,-41.5400009155273
362.0202519,-42.560001373291
362.0358769,-43.4199981689453
362.0515019,-44.1500015258789
362.0671269,-44.75
362.0827519,-45.2400016784668
362.0983769,-45.5900001525879
362.1140019,-45.8400001525879
362.1296269,-45.9799995422363
362.1452519,-46.0400009155273
362.1608769,-46.0299987792969
362.1765019,-45.9300003051758
362.1921269,-45.7200012207031
362.2077519,-45.310001373291
362.2233769,-44.6199989318848
362.2390019,-43.6300010681152
362.2546269,-42.3699989318848
362.2702519,-40.9799995422363
362.2858769,-39.5699996948242
362.3015019,-38.2299995422363
362.3171269,-37.0099983215332
362.3327519,-35.9500007629395
362.3483769,-35.1800003051758
362.3640019,-34.810001373291
362.3796269,-34.7700004577637
362.3952519,-34.7000007629395
362.4108769,-33.8899993896484
362.4265019,-31.7099990844727
362.4421269,-28.0499992370605
362.4577519,-23.2999992370605
362.4733769,-18.0300006866455
362.4890019,-12.4899997711182
362.5046269,-6.44999980926514
362.5202519,0.280000001192093
362.5358769,7.34999990463257
362.5515019,13.8900003433228
362.5671269,19.1700000762939
362.5827519,23.0100002288818
362.5983769,25.7199993133545
362.6140019,27.8199996948242
362.6296269,29.7299995422363
362.6452519,31.6299991607666
362.6608769,33.5299987792969
362.6765019,35.439998626709
362.6921269,37.5200004577637
362.7077519,39.9500007629395
362.7233769,42.7099990844727
362.7390019,45.3600006103516
362.7546269,47.0699996948242
362.7702519,47.0900001525879
362.7858769,45.2400016784668
362.8015019,41.8899993896484
362.8171269,37.5900001525879
362.8327519,32.7999992370605
362.8483769,27.8500003814697
362.8640019,22.9699993133545
362.8796269,18.2999992370605
362.8952519,14.0799999237061
362.9108769,10.6400003433228
362.9265019,8.27999973297119
362.9421269,7.01000022888184
362.9577519,6.6399998664856
362.9733769,6.94999980926514
362.9890019,7.78000020980835
363.0046269,8.93000030517578
363.0202519,10.0299997329712
363.0358769,10.539999961853
363.0515019,10.0
363.0671269,8.31999969482422
363.0827519,5.69000005722046
363.0983769,2.38000011444092
363.1140019,-1.37000000476837
363.1296269,-5.36999988555908
363.1452519,-9.42000007629395
363.1608769,-13.3100004196167
363.1765019,-16.7700004577637
363.1921269,-19.4500007629395
363.2077519,-21.0900001525879
363.2233769,-21.7000007629395
363.2390019,-21.5900001525879
363.2546269,-21.2000007629395
363.2702519,-20.8700008392334
363.2858769,-20.8299999237061
363.3015019,-21.2000007629395
363.3171269,-22.1599998474121
363.3327519,-23.7900009155273
363.3483769,-25.9099998474121
363.3640019,-28.0900001525879
363.3796269,-29.9300003051758
363.3952519,-31.2600002288818
363.4108769,-32.1100006103516
363.4265019,-32.6800003051758
363.4421269,-33.1300010681152
363.4577519,-33.3800010681152
363.4733769,-33.1399993896484
363.4890019,-32.0499992370605
363.5046269,-30.0100002288818
363.5202519,-27.2199993133545
363.5358769,-23.9699993133545
363.5515019,-20.5499992370605
363.5671269,-17.2000007629395
363.5827519,-14.289999961853
363.5983769,-12.3299999237061
363.6140019,-11.5900001525879
363.6296269,-11.7700004577637
363.6452519,-12.1400003433228
363.6608769,-12.0900001525879
363.6765019,-11.2299995422363
363.6921269,-9.21000003814697
363.7077519,-5.84999990463257
363.7233769,-1.32000005245209
363.7390019,3.67000007629395
363.7546269,8.22000026702881
363.7702519,11.7200002670288
363.7858769,14.2700004577637
363.8015019,16.3500003814697
363.8171269,18.0599994659424
363.8327519,19.1200008392334
363.8483769,19.2099990844727
363.8640019,18.3500003814697
363.8796269,18.0699996948242
363.8952519,24.7800006866455
363.9108769,50.560001373291
363.9265019,106.349998474121
363.9421269,187.699996948242
363.9577519,257.660003662109
363.9733769,248.169998168945
363.9890019,97.879997253418
364.0046269,-205.630004882813
364.0202519,-327.679992675781
364.0358769,-327.679992675781
364.0515019,-327.679992675781
364.0671269,-327.679992675781
364.0827519,-327.679992675781
364.0983769,-327.679992675781
364.1140019,-327.679992675781
364.1296269,-327.679992675781
364.1452519,-327.679992675781
364.1608769,-327.679992675781
364.1765019,-327.679992675781
364.1921269,-327.679992675781
364.2077519,-327.679992675781
364.2233769,-327.679992675781
364.2390019,-327.679992675781
364.2546269,-327.679992675781
364.2702519,-327.679992675781
364.2858769,-327.679992675781
364.3015019,-327.679992675781
364.3171269,-327.679992675781
364.3327519,-327.679992675781
364.3483769,-327.679992675781
364.3640019,-327.679992675781
364.3796269,-327.679992675781
364.3952519,-327.679992675781
364.4108769,-327.679992675781
364.4265019,-327.679992675781
364.4421269,-327.679992675781
364.4577519,260.959991455078
364.4733769,327.670013427734
364.4890019,327.670013427734
364.5046269,327.670013427734
364.5202519,327.670013427734
364.5358769,327.670013427734
364.5515019,327.670013427734
364.5671269,327.670013427734
364.5827519,327.670013427734
364.5983769,327.670013427734
364.6140019,327.670013427734
364.6296269,327.670013427734
364.6452519,327.670013427734
364.6608769,327.670013427734
364.6765019,327.670013427734
364.6921269,327.670013427734
364.7077519,327.670013427734
364.7233769,327.670013427734
364.7390019,327.670013427734
364.7546269,327.670013427734
364.7702519,327.670013427734
364.7858769,327.670013427734
364.8015019,327.670013427734
364.8171269,327.670013427734
364.8327519,327.670013427734
364.8483769,327.670013427734
364.8640019,327.670013427734
364.8796269,327.670013427734
364.8952519,327.670013427734
364.9108769,327.670013427734
364.9265019,327.670013427734
364.9421269,327.670013427734
364.9577519,327.670013427734
364.9733769,327.670013427734
364.9890019,327.670013427734
365.0046269,327.670013427734
365.0202519,327.670013427734
365.0358769,327.670013427734
365.0515019,327.670013427734
365.0671269,327.670013427734
365.0827519,327.670013427734
365.0983769,327.670013427734
365.1140019,327.670013427734
365.1296269,327.670013427734
365.1452519,327.670013427734
365.1608769,327.670013427734
365.1765019,139.660003662109
365.1921269,-152.449996948242
365.2077519,-327.679992675781
365.2233769,-327.679992675781
365.2390019,-327.679992675781
365.2546269,-327.679992675781
365.2702519,-327.679992675781
365.2858769,-327.679992675781
365.3015019,-327.679992675781
365.3171269,-327.679992675781
365.3327519,-327.679992675781
365.3483769,-327.679992675781
365.3640019,-327.679992675781
365.3796269,-327.679992675781
365.3952519,-327.679992675781
365.4108769,-327.679992675781
365.4265019,-327.679992675781
365.4421269,-327.679992675781
365.4577519,-327.679992675781
365.4733769,-327.679992675781
365.4890019,-327.679992675781
365.5046269,-327.679992675781
365.5202519,-327.679992675781
365.5358769,-327.679992675781
365.5515019,-327.679992675781
365.5671269,-327.679992675781
365.5827519,-327.679992675781
365.5983769,-327.679992675781
365.6140019,-327.679992675781
365.6296269,-327.679992675781
365.6452519,-327.679992675781
365.6608769,-327.679992675781
365.6765019,-327.679992675781
365.6921269,-327.679992675781
365.7077519,-327.679992675781
365.7233769,-327.679992675781
