Time(s),Value(%)
638.0120582,13.0500001907349
638.0276832,13.9399995803833
638.0433082,14.7299995422363
638.0589332,15.7200002670288
638.0745582,17.2299995422363
638.0901832,19.3299999237061
638.1058082,21.8500003814697
638.1214332,24.4699993133545
638.1370582,27.0
638.1526832,29.4500007629395
638.1683082,31.8700008392334
638.1839332,34.1399993896484
638.1995582,36.0
638.2151832,37.25
638.2308082,37.9000015258789
638.2464332,38.1300010681152
638.2620582,38.1399993896484
638.2776832,38.060001373291
638.2933082,37.9199981689453
638.3089332,37.6800003051758
638.3245582,37.310001373291
638.3401832,36.7900009155273
638.3558082,36.0999984741211
638.3714332,35.2700004577637
638.3870582,34.25
638.4026832,32.9700012207031
638.4183082,31.2700004577637
638.4339332,29.0699996948242
638.4495582,26.4400005340576
638.4651832,23.5699996948242
638.4808082,20.7199993133545
638.4964332,18.0799999237061
638.5120582,15.710000038147
638.5276832,13.5600004196167
638.5433082,11.5
638.5589332,9.34000015258789
638.5745582,6.94000005722046
638.5901832,4.30000019073486
638.6058082,1.57000005245209
638.6214332,-1.00999999046326
638.6370582,-3.27999997138977
638.6526832,-5.11999988555908
638.6683082,-6.51000022888184
638.6839332,-7.3600001335144
638.6995582,-7.55000019073486
638.7151832,-6.98000001907349
638.7308082,-5.75
638.7464332,-4.11999988555908
638.7620582,-2.48000001907349
638.7776832,-1.08000004291534
638.7933082,-0.0199999995529652
638.8089332,0.730000019073486
638.8245582,1.25
638.8401832,1.51999998092651
638.8558082,1.47000002861023
638.8714332,1.0900000333786
638.8870582,0.409999996423721
638.9026832,-0.479999989271164
638.9183082,-1.53999996185303
638.9339332,-2.70000004768372
638.9495582,-3.90000009536743
638.9651832,-5.09000015258789
638.9808082,-6.28999996185303
638.9964332,-7.61999988555908
639.0120582,-9.11999988555908
639.0276832,-10.75
639.0433082,-12.3599996566772
639.0589332,-13.7799997329712
639.0745582,-14.960000038147
639.0901832,-15.8900003433228
639.1058082,-16.5799999237061
639.1214332,-16.9200000762939
639.1370582,-16.7999992370605
639.1526832,-16.2199993133545
639.1683082,-15.3500003814697
639.1839332,-14.4499998092651
639.1995582,-13.7700004577637
639.2151832,-13.3999996185303
639.2308082,-13.3400001525879
639.2464332,-13.5
639.2620582,-13.8999996185303
639.2776832,-14.5900001525879
639.2933082,-15.6099996566772
639.3089332,-16.8899993896484
639.3245582,-18.2299995422363
639.3401832,-19.4799995422363
639.3558082,-20.6299991607666
639.3714332,-21.7099990844727
639.3870582,-22.6599998474121
639.4026832,-23.3199996948242
639.4183082,-23.4699993133545
639.4339332,-22.9300003051758
639.4495582,-21.6499996185303
639.4651832,-19.7299995422363
639.4808082,-17.3899993896484
639.4964332,-14.8999996185303
639.5120582,-12.4700002670288
639.5276832,-10.2299995422363
639.5433082,-8.19999980926514
639.5589332,-6.32000017166138
639.5745582,-4.53000020980835
639.5901832,-2.79999995231628
639.6058082,-1.13999998569489
639.6214332,0.370000004768372
639.6370582,1.67999994754791
639.6526832,2.74000000953674
639.6683082,3.50999999046326
639.6839332,3.90000009536743
639.6995582,3.71000003814697
639.7151832,2.73000001907349
639.7308082,0.920000016689301
639.7464332,-1.51999998092651
639.7620582,-4.21999979019165
639.7776832,-6.78000020980835
639.7933082,-8.98999977111816
639.8089332,-10.8199996948242
639.8245582,-12.3999996185303
639.8401832,-13.9200000762939
639.8558082,-15.5200004577637
639.8714332,-17.2800006866455
639.8870582,-19.2600002288818
639.9026832,-21.6399993896484
639.9183082,-24.5699996948242
639.9339332,-28.0100002288818
639.9495582,-31.5699996948242
639.9651832,-34.6500015258789
639.9808082,-36.8600006103516
639.9964332,-38.2799987792969
640.0120582,-39.3300018310547
640.0276832,-40.2099990844727
640.0433082,-40.8300018310547
640.0589332,-41.0
640.0745582,-40.6699981689453
640.0901832,-39.9099998474121
640.1058082,-38.8600006103516
640.1214332,-37.5999984741211
640.1370582,-36.0999984741211
640.1526832,-34.3699989318848
640.1683082,-32.5200004577637
640.1839332,-30.7000007629395
640.1995582,-29.0900001525879
640.2151832,-27.7199993133545
640.2308082,-26.4599990844727
640.2464332,-24.9899997711182
640.2620582,-23.0100002288818
640.2776832,-20.3899993896484
640.2933082,-17.2199993133545
640.3089332,-13.6899995803833
640.3245582,-10.0
640.3401832,-6.30999994277954
640.3558082,-2.76999998092651
640.3714332,0.560000002384186
640.3870582,3.64000010490417
640.4026832,6.40999984741211
640.4183082,8.84000015258789
640.4339332,10.9200000762939
640.4495582,12.539999961853
640.4651832,13.5100002288818
640.4808082,13.6199998855591
640.4964332,12.8699998855591
640.5120582,11.5699996948242
640.5276832,10.0699996948242
640.5433082,8.56999969482422
640.5589332,6.94000005722046
640.5745582,5.01000022888184
640.5901832,2.9300000667572
640.6058082,1.12999999523163
640.6214332,-0.0099999997764825
640.6370582,-0.449999988079071
640.6526832,-0.360000014305115
640.6683082,0.0
640.6839332,0.449999988079071
640.6995582,0.949999988079071
640.7151832,1.5
640.7308082,2.11999988555908
640.7464332,2.75999999046326
640.7620582,3.38000011444092
640.7776832,3.96000003814697
640.7933082,4.63000011444092
640.8089332,5.67000007629395
640.8245582,7.30999994277954
640.8401832,9.57999992370605
640.8558082,12.2299995422363
640.8714332,14.960000038147
640.8870582,17.5200004577637
640.9026832,19.8199996948242
640.9183082,21.8700008392334
640.9339332,23.7199993133545
640.9495582,25.2800006866455
640.9651832,26.2900009155273
640.9808082,26.5
640.9964332,25.8099994659424
641.0120582,24.2099990844727
641.0276832,21.6200008392334
641.0433082,17.9300003051758
641.0589332,13.3000001907349
641.0745582,8.3100004196167
641.0901832,3.72000002861023
641.1058082,-0.0799999982118607
641.1214332,-3.5699999332428
641.1370582,-7.42999982833862
641.1526832,-11.8199996948242
641.1683082,-16.1900005340576
641.1839332,-19.8700008392334
641.1995582,-22.5
641.2151832,-24.2600002288818
641.2308082,-26.1000003814697
641.2464332,-29.5100002288818
641.2620582,-35.7400016784668
641.2776832,-44.939998626709
641.2933082,-56.0900001525879
641.3089332,-67.620002746582
641.3245582,-78.2399978637695
641.3401832,-87.2699966430664
641.3558082,-94.6900024414063
641.3714332,-100.730003356934
641.3870582,-105.690002441406
641.4026832,-109.870002746582
641.4183082,-113.73999786377
641.4339332,-117.930000305176
641.4495582,-123.029998779297
641.4651832,-129.0
641.4808082,-134.610000610352
641.4964332,-137.520004272461
641.5120582,-135.570007324219
641.5276832,-128.190002441406
641.5433082,-116.589996337891
641.5589332,-102.680000305176
641.5745582,-88.1399993896484
641.5901832,-73.9400024414063
641.6058082,-60.4300003051758
641.6214332,-47.5499992370605
641.6370582,-35.189998626709
641.6526832,-23.2600002288818
641.6683082,-11.9200000762939
641.6839332,-1.45000004768372
641.6995582,7.84000015258789
641.7151832,15.9099998474121
641.7308082,22.8799991607666
641.7464332,28.9200000762939
641.7620582,34.2000007629395
641.7776832,38.8899993896484
641.7933082,43.3699989318848
641.8089332,48.2099990844727
641.8245582,53.8600006103516
641.8401832,60.3899993896484
641.8558082,67.5199966430664
641.8714332,74.8899993896484
641.8870582,82.1999969482422
641.9026832,89.3000030517578
641.9183082,96.0500030517578
641.9339332,102.389999389648
641.9495582,108.220001220703
641.9651832,113.470001220703
641.9808082,118.089996337891
641.9964332,122.089996337891
642.0120582,125.5
642.0276832,128.350006103516
642.0433082,130.639999389648
642.0589332,132.410003662109
642.0745582,133.800003051758
642.0901832,135.039993286133
642.1058082,136.309997558594
642.1214332,137.669998168945
642.1370582,139.100006103516
642.1526832,140.550003051758
642.1683082,141.979995727539
642.1839332,143.309997558594
642.1995582,144.479995727539
642.2151832,145.389999389648
642.2308082,145.970001220703
642.2464332,146.169998168945
642.2620582,145.949996948242
642.2776832,145.339996337891
642.2933082,144.399993896484
642.3089332,143.229995727539
642.3245582,141.869995117188
642.3401832,140.199996948242
642.3558082,138.270004272461
642.3714332,135.850006103516
642.3870582,132.740005493164
642.4026832,128.919998168945
642.4183082,124.48999786377
642.4339332,119.599998474121
642.4495582,114.349998474121
642.4651832,108.879997253418
642.4808082,103.449996948242
642.4964332,98.4400024414063
642.5120582,94.0299987792969
642.5276832,90.0500030517578
642.5433082,86.1600036621094
642.5589332,82.0800018310547
642.5745582,77.75
642.5901832,73.129997253418
642.6058082,68.1399993896484
642.6214332,62.8300018310547
642.6370582,57.4300003051758
642.6526832,52.3600006103516
642.6683082,47.8800010681152
642.6839332,43.8699989318848
642.6995582,40.0200004577637
642.7151832,36.1599998474121
642.7308082,32.4099998474121
642.7464332,28.9500007629395
642.7620582,25.8700008392334
642.7776832,23.0900001525879
642.7933082,20.4500007629395
642.8089332,17.7099990844727
642.8245582,14.7399997711182
642.8401832,11.5200004577637
642.8558082,8.13000011444092
642.8714332,4.65000009536743
642.8870582,1.1599999666214
642.9026832,-2.26999998092651
642.9183082,-5.44000005722046
642.9339332,-7.98000001907349
642.9495582,-9.53999996185303
642.9651832,-10.0299997329712
642.9808082,-9.65999984741211
642.9964332,-8.8100004196167
643.0120582,-7.86999988555908
643.0276832,-7.07999992370605
643.0433082,-6.55000019073486
643.0589332,-6.26999998092651
643.0745582,-6.19999980926514
643.0901832,-6.32999992370605
643.1058082,-6.67000007629395
643.1214332,-7.21000003814697
643.1370582,-7.94000005722046
643.1526832,-8.84000015258789
643.1683082,-9.86999988555908
643.1839332,-11.0
643.1995582,-12.210000038147
643.2151832,-13.4799995422363
643.2308082,-14.8000001907349
643.2464332,-16.1700000762939
643.2620582,-17.6100006103516
643.2776832,-19.0799999237061
643.2933082,-20.5300006866455
643.3089332,-21.9400005340576
643.3245582,-23.3099994659424
643.3401832,-24.5200004577637
643.3558082,-25.7700004577637
643.3714332,-27.1499996185303
643.3870582,-28.7399997711182
643.4026832,-30.5499992370605
643.4183082,-32.5099983215332
643.4339332,-34.5400009155273
643.4495582,-36.5900001525879
643.4651832,-38.6100006103516
643.4808082,-40.5099983215332
643.4964332,-42.189998626709
643.5120582,-43.5999984741211
643.5276832,-44.7900009155273
643.5433082,-45.9199981689453
643.5589332,-47.0800018310547
643.5745582,-48.25
643.5901832,-49.310001373291
643.6058082,-50.1500015258789
643.6214332,-50.7299995422363
643.6370582,-51.060001373291
643.6526832,-51.1500015258789
643.6683082,-51.0
643.6839332,-50.560001373291
643.6995582,-49.8899993896484
643.7151832,-49.1100006103516
643.7308082,-48.3899993896484
643.7464332,-47.8800010681152
643.7620582,-47.5800018310547
643.7776832,-47.439998626709
643.7933082,-47.3600006103516
643.8089332,-47.2700004577637
643.8245582,-47.1300010681152
643.8401832,-46.9500007629395
643.8558082,-46.75
643.8714332,-46.5900001525879
643.8870582,-46.5
643.9026832,-46.4799995422363
643.9183082,-46.5699996948242
643.9339332,-46.810001373291
643.9495582,-47.2700004577637
643.9651832,-47.9300003051758
643.9808082,-48.7200012207031
643.9964332,-49.5299987792969
644.0120582,-50.25
644.0276832,-50.8400001525879
644.0433082,-51.310001373291
644.0589332,-51.6800003051758
644.0745582,-51.9599990844727
644.0901832,-52.0900001525879
644.1058082,-52.0
644.1214332,-51.5400009155273
644.1370582,-50.1599998474121
644.1526832,-46.7000007629395
644.1683082,-40.1500015258789
644.1839332,-30.4500007629395
644.1995582,-18.6900005340576
644.2151832,-6.57000017166138
644.2308082,4.34000015258789
644.2464332,12.9399995803833
644.2620582,18.3600006103516
644.2776832,19.8400001525879
644.2933082,17.0300006866455
644.3089332,10.5600004196167
644.3245582,1.9099999666214
644.3401832,-7.46999979019165
644.3558082,-17.5799999237061
644.3714332,-30.4099998474121
644.3870582,-48.3300018310547
644.4026832,-72.2200012207031
644.4183082,-101.839996337891
644.4339332,-137.259994506836
644.4495582,-178.539993286133
644.4651832,-224.179992675781
644.4808082,-270.029998779297
644.4964332,-310.399993896484
644.5120582,-327.679992675781
644.5276832,-327.679992675781
644.5433082,-327.679992675781
644.5589332,-327.679992675781
644.5745582,-327.679992675781
644.5901832,-327.679992675781
644.6058082,-327.679992675781
644.6214332,-327.679992675781
644.6370582,-327.679992675781
644.6526832,-327.679992675781
644.6683082,-327.679992675781
644.6839332,-327.679992675781
644.6995582,-327.679992675781
644.7151832,-327.679992675781
644.7308082,-327.679992675781
644.7464332,-327.679992675781
644.7620582,-327.679992675781
644.7776832,-327.679992675781
644.7933082,-327.679992675781
644.8089332,-321.190002441406
644.8245582,-296.660003662109
644.8401832,-270.660003662109
644.8558082,-244.789993286133
644.8714332,-219.559997558594
644.8870582,-194.960006713867
644.9026832,-170.910003662109
644.9183082,-147.610000610352
644.9339332,-125.559997558594
644.9495582,-105.23999786377
644.9651832,-86.879997253418
644.9808082,-70.7300033569336
644.9964332,-57.3199996948242
645.0120582,-47.1500015258789
645.0276832,-39.939998626709
645.0433082,-34.1599998474121
645.0589332,-27.7700004577637
645.0745582,-20.4200000762939
645.0901832,-14.789999961853
645.1058082,-14.4099998474121
645.1214332,-20.2399997711182
645.1370582,-29.9200000762939
645.1526832,-39.7799987792969
645.1683082,-47.0200004577637
645.1839332,-50.7000007629395
645.1995582,-51.2299995422363
645.2151832,-49.4099998474121
645.2308082,-45.8600006103516
645.2464332,-41.1500015258789
645.2620582,-36.1199989318848
645.2776832,-32.0
645.2933082,-29.8400001525879
645.3089332,-29.5499992370605
645.3245582,-29.0
645.3401832,-24.1299991607666
645.3558082,-12.5
645.3714332,5.19999980926514
645.3870582,25.7000007629395
645.4026832,45.810001373291
645.4183082,64.129997253418
645.4339332,80.7900009155273
645.4495582,96.4899978637695
645.4651832,111.879997253418
645.4808082,127.440002441406
645.4964332,143.589996337891
645.5120582,160.600006103516
645.5276832,178.240005493164
645.5433082,195.759994506836
645.5589332,212.080001831055
645.5745582,226.350006103516
645.5901832,238.389999389648
645.6058082,248.899993896484
645.6214332,259.109985351563
645.6370582,270.019989013672
645.6526832,281.75
645.6683082,293.730010986328
645.6839332,305.299987792969
645.6995582,315.989990234375
645.7151832,325.420013427734
645.7308082,327.670013427734
645.7464332,327.670013427734
645.7620582,327.670013427734
645.7776832,327.670013427734
645.7933082,327.670013427734
645.8089332,327.670013427734
645.8245582,327.670013427734
645.8401832,327.670013427734
645.8558082,327.670013427734
645.8714332,327.670013427734
645.8870582,327.670013427734
645.9026832,327.670013427734
645.9183082,327.670013427734
645.9339332,327.670013427734
645.9495582,327.670013427734
645.9651832,327.670013427734
645.9808082,327.670013427734
645.9964332,327.670013427734
646.0120582,327.670013427734
646.0276832,327.670013427734
646.0433082,327.670013427734
646.0589332,327.670013427734
646.0745582,327.670013427734
646.0901832,327.670013427734
646.1058082,327.670013427734
646.1214332,327.670013427734
646.1370582,327.670013427734
646.1526832,327.670013427734
646.1683082,327.670013427734
646.1839332,327.670013427734
646.1995582,327.670013427734
646.2151832,327.670013427734
646.2308082,327.670013427734
646.2464332,327.670013427734
646.2620582,327.670013427734
646.2776832,321.720001220703
646.2933082,308.5
646.3089332,295.170013427734
646.3245582,281.929992675781
646.3401832,265.950012207031
646.3558082,250.919998168945
646.3714332,236.800003051758
646.3870582,223.410003662109
646.4026832,210.619995117188
646.4183082,198.350006103516
646.4339332,186.529998779297
646.4495582,175.089996337891
646.4651832,163.949996948242
646.4808082,152.979995727539
646.4964332,142.059997558594
646.5120582,131.100006103516
646.5276832,120.069999694824
646.5433082,108.949996948242
646.5589332,97.6399993896484
646.5745582,86.0400009155273
646.5901832,74.1900024414063
646.6058082,62.3300018310547
646.6214332,50.810001373291
646.6370582,39.9700012207031
646.6526832,29.9500007629395
646.6683082,20.7800006866455
646.6839332,12.460000038147
646.6995582,4.96999979019165
646.7151832,-1.82000005245209
646.7308082,-8.15999984741211
646.7464332,-14.2799997329712
646.7620582,-20.3700008392334
646.7776832,-26.4899997711182
646.7933082,-32.6500015258789
646.8089332,-38.7999992370605
646.8245582,-44.9099998474121
646.8401832,-51.0499992370605
646.8558082,-57.2700004577637
646.8714332,-63.6100006103516
646.8870582,-70.0
646.9026832,-76.5199966430664
646.9183082,-83.8399963378906
646.9339332,-93.370002746582
646.9495582,-106.400001525879
646.9651832,-122.940002441406
646.9808082,-141.639999389648
646.9964332,-160.580001831055
647.0120582,-178.199996948242
647.0276832,-193.710006713867
647.0433082,-206.740005493164
647.0589332,-216.899993896484
647.0745582,-223.860000610352
647.0901832,-227.850006103516
647.1058082,-229.649993896484
647.1214332,-230.229995727539
647.1370582,-230.380004882813
647.1526832,-230.460006713867
647.1683082,-230.279998779297
647.1839332,-229.190002441406
647.1995582,-226.449996948242
647.2151832,-221.759994506836
647.2308082,-215.490005493164
647.2464332,-208.470001220703
647.2620582,-201.619995117188
647.2776832,-195.529998779297
647.2933082,-190.300003051758
647.3089332,-185.729995727539
647.3245582,-181.520004272461
647.3401832,-178.75
647.3558082,-175.940002441406
647.3714332,-173.149993896484
647.3870582,-170.360000610352
647.4026832,-167.490005493164
647.4183082,-164.419998168945
647.4339332,-161.110000610352
647.4495582,-157.710006713867
647.4651832,-154.479995727539
647.4808082,-151.669998168945
647.4964332,-149.350006103516
647.5120582,-147.460006713867
647.5276832,-145.899993896484
647.5433082,-144.619995117188
647.5589332,-143.550003051758
647.5745582,-142.610000610352
647.5901832,-141.679992675781
647.6058082,-140.539993286133
647.6214332,-138.860000610352
647.6370582,-136.350006103516
647.6526832,-133.0
647.6683082,-129.100006103516
647.6839332,-125.080001831055
647.6995582,-121.269996643066
647.7151832,-117.879997253418
647.7308082,-115.059997558594
647.7464332,-113.0
647.7620582,-111.779998779297
647.7776832,-111.199996948242
647.7933082,-110.809997558594
647.8089332,-110.120002746582
647.8245582,-108.819999694824
647.8401832,-106.680000305176
647.8558082,-103.680000305176
647.8714332,-100.0
647.8870582,-96.0800018310547
647.9026832,-92.4000015258789
647.9183082,-89.120002746582
647.9339332,-85.9599990844727
647.9495582,-82.4599990844727
647.9651832,-78.5500030517578
647.9808082,-74.5500030517578
647.9964332,-70.9199981689453
648.0120582,-67.879997253418
648.0276832,-65.4100036621094
648.0433082,-63.1800003051758
648.0589332,-60.7900009155273
648.0745582,-57.9000015258789
648.0901832,-54.3499984741211
648.1058082,-49.8300018310547
648.1214332,-43.6300010681152
648.1370582,-35.0499992370605
648.1526832,-24.2000007629395
648.1683082,-12.25
648.1839332,-1.03999996185303
648.1995582,7.96999979019165
648.2151832,14.4899997711182
648.2308082,18.8299999237061
648.2464332,21.1100006103516
648.2620582,21.0900001525879
648.2776832,18.7999992370605
648.2933082,14.789999961853
648.3089332,9.86999988555908
648.3245582,4.42999982833862
648.3401832,-1.9099999666214
648.3558082,-9.75
648.3714332,-19.2900009155273
648.3870582,-30.0599994659424
648.4026832,-41.25
648.4183082,-52.1100006103516
648.4339332,-62.1100006103516
648.4495582,-70.8300018310547
648.4651832,-77.7300033569336
648.4808082,-82.1800003051758
648.4964332,-83.6500015258789
648.5120582,-82.0100021362305
648.5276832,-77.7799987792969
648.5433082,-71.9499969482422
648.5589332,-65.5899963378906
648.5745582,-59.5200004577637
648.5901832,-54.1699981689453
648.6058082,-49.7900009155273
648.6214332,-46.5800018310547
648.6370582,-44.7299995422363
648.6526832,-42.8300018310547
648.6683082,-34.2999992370605
648.6839332,-6.44999980926514
648.6995582,52.1100006103516
648.7151832,142.410003662109
648.7308082,253.740005493164
648.7464332,327.670013427734
648.7620582,327.670013427734
648.7776832,327.670013427734
648.7933082,327.670013427734
