Time(s),Value(%)
1198.0123722,-257.200012207031
1198.0279972,-271.399993896484
1198.0436222,-280.510009765625
1198.0592472,-284.619995117188
1198.0748722,-283.440002441406
1198.0904972,-277.329986572266
1198.1061222,-267.709991455078
1198.1217472,-256.179992675781
1198.1373722,-242.929992675781
1198.1529972,-226.039993286133
1198.1686222,-203.070007324219
1198.1842472,-173.440002441406
1198.1998722,-139.179992675781
1198.2154972,-103.889999389648
1198.2311222,-70.8000030517578
1198.2467472,-41.689998626709
1198.2623722,-17.0200004577637
1198.2779972,3.24000000953674
1198.2936222,19.4200000762939
1198.3092472,32.2900009155273
1198.3248722,43.1599998474121
1198.3404972,53.5200004577637
1198.3561222,64.4199981689453
1198.3717472,76.1800003051758
1198.3873722,88.4300003051758
1198.4029972,100.5
1198.4186222,111.830001831055
1198.4342472,122.160003662109
1198.4498722,131.529998779297
1198.4654972,140.110000610352
1198.4811222,148.149993896484
1198.4967472,155.839996337891
1198.5123722,163.270004272461
1198.5279972,170.429992675781
1198.5436222,177.160003662109
1198.5592472,183.309997558594
1198.5748722,188.789993286133
1198.5904972,193.660003662109
1198.6061222,198.070007324219
1198.6217472,202.080001831055
1198.6373722,205.649993896484
1198.6529972,208.710006713867
1198.6686222,211.240005493164
1198.6842472,211.339996337891
1198.6998722,210.570007324219
1198.7154972,208.190002441406
1198.7311222,203.5
1198.7467472,196.5
1198.7623722,187.929992675781
1198.7779972,178.860000610352
1198.7936222,170.169998168945
1198.8092472,162.309997558594
1198.8248722,155.309997558594
1198.8404972,148.979995727539
1198.8561222,143.089996337891
1198.8717472,137.419998168945
1198.8873722,131.639999389648
1198.9029972,125.269996643066
1198.9186222,117.879997253418
1198.9342472,109.529998779297
1198.9498722,100.940002441406
1198.9654972,93.3099975585938
1198.9811222,87.5699996948242
1198.9967472,83.8000030517578
1199.0123722,81.4499969482422
1199.0279972,80.0
1199.0436222,79.2200012207031
1199.0592472,79.0400009155273
1199.0748722,79.3199996948242
1199.0904972,79.8499984741211
1199.1061222,80.4899978637695
1199.1217472,81.3199996948242
1199.1373722,82.5899963378906
1199.1529972,84.5100021362305
1199.1686222,87.0999984741211
1199.1842472,90.1500015258789
1199.1998722,93.4599990844727
1199.2154972,97.0299987792969
1199.2311222,101.019996643066
1199.2467472,105.419998168945
1199.2623722,109.910003662109
1199.2779972,113.980003356934
1199.2936222,117.349998474121
1199.3092472,120.150001525879
1199.3248722,122.690002441406
1199.3404972,124.949996948242
1199.3561222,126.580001831055
1199.3717472,127.23999786377
1199.3873722,126.879997253418
1199.4029972,125.699996948242
1199.4186222,123.910003662109
1199.4342472,121.559997558594
1199.4498722,118.580001831055
1199.4654972,114.959999084473
1199.4811222,110.900001525879
1199.4967472,106.800003051758
1199.5123722,103.029998779297
1199.5279972,99.6999969482422
1199.5436222,96.6500015258789
1199.5592472,93.4899978637695
1199.5748722,89.8899993896484
1199.5904972,85.7600021362305
1199.6061222,81.1900024414063
1199.6217472,76.2699966430664
1199.6373722,71.0500030517578
1199.6529972,65.5500030517578
1199.6686222,59.8800010681152
1199.6842472,53.5699996948242
1199.6998722,47.310001373291
1199.7154972,40.8600006103516
1199.7311222,33.9900016784668
1199.7467472,26.6800003051758
1199.7623722,19.1100006103516
1199.7779972,11.6199998855591
1199.7936222,4.46999979019165
1199.8092472,-2.17000007629395
1199.8248722,-8.25
1199.8404972,-13.7299995422363
1199.8561222,-18.5799999237061
1199.8717472,-22.8600006103516
1199.8873722,-26.75
1199.9029972,-30.4799995422363
1199.9186222,-34.2200012207031
1199.9342472,-38.0400009155273
1199.9498722,-41.8600006103516
1199.9654972,-45.5
1199.9811222,-48.8499984741211
1199.9967472,-51.8699989318848
1200.0123722,-54.6399993896484
1200.0279972,-57.2000007629395
1200.0436222,-59.5200004577637
1200.0592472,-61.4799995422363
1200.0748722,-63.0400009155273
1200.0904972,-64.1900024414063
1200.1061222,-65.0500030517578
1200.1217472,-65.7099990844727
1200.1373722,-66.2099990844727
1200.1529972,-66.5299987792969
1200.1686222,-66.6600036621094
1200.1842472,-66.6999969482422
1200.1998722,-66.8300018310547
1200.2154972,-67.1600036621094
1200.2311222,-67.6999969482422
1200.2467472,-68.370002746582
1200.2623722,-69.0100021362305
1200.2779972,-69.4700012207031
1200.2936222,-69.6399993896484
1200.3092472,-69.5
1200.3248722,-69.0899963378906
1200.3404972,-68.3600006103516
1200.3561222,-67.2799987792969
1200.3717472,-65.9000015258789
1200.3873722,-64.4199981689453
1200.4029972,-63.1699981689453
1200.4186222,-62.4000015258789
1200.4342472,-62.1300010681152
1200.4498722,-62.2200012207031
1200.4654972,-62.5900001525879
1200.4811222,-63.2000007629395
1200.4967472,-64.0299987792969
1200.5123722,-65.0400009155273
1200.5279972,-66.0699996948242
1200.5436222,-66.9199981689453
1200.5592472,-67.2699966430664
1200.5748722,-66.8899993896484
1200.5904972,-65.7600021362305
1200.6061222,-64.129997253418
1200.6217472,-62.3499984741211
1200.6373722,-60.7000007629395
1200.6529972,-59.3400001525879
1200.6686222,-58.4199981689453
1200.6842472,-57.3699989318848
1200.6998722,-57.2599983215332
1200.7154972,-58.1199989318848
1200.7311222,-59.7099990844727
1200.7467472,-61.6599998474121
1200.7623722,-63.5800018310547
1200.7779972,-65.2099990844727
1200.7936222,-66.4800033569336
1200.8092472,-67.4199981689453
1200.8248722,-68.0500030517578
1200.8404972,-68.2699966430664
1200.8561222,-67.9800033569336
1200.8717472,-67.1699981689453
1200.8873722,-66.0
1200.9029972,-64.6999969482422
1200.9186222,-63.5
1200.9342472,-62.4900016784668
1200.9498722,-61.7000007629395
1200.9654972,-61.1399993896484
1200.9811222,-60.7999992370605
1200.9967472,-60.6100006103516
1201.0123722,-60.4599990844727
1201.0279972,-60.2200012207031
1201.0436222,-59.810001373291
1201.0592472,-59.2099990844727
1201.0748722,-58.4500007629395
1201.0904972,-57.6100006103516
1201.1061222,-56.689998626709
1201.1217472,-55.6100006103516
1201.1373722,-54.2900009155273
1201.1529972,-52.7000007629395
1201.1686222,-50.8699989318848
1201.1842472,-48.810001373291
1201.1998722,-46.560001373291
1201.2154972,-44.1699981689453
1201.2311222,-41.7999992370605
1201.2467472,-39.5900001525879
1201.2623722,-37.6199989318848
1201.2779972,-35.7000007629395
1201.2936222,-33.5800018310547
1201.3092472,-31.1700000762939
1201.3248722,-28.5799999237061
1201.3404972,-25.9500007629395
1201.3561222,-23.4099998474121
1201.3717472,-21.0200004577637
1201.3873722,-18.8799991607666
1201.4029972,-17.1700000762939
1201.4186222,-16.0499992370605
1201.4342472,-15.4700002670288
1201.4498722,-15.2200002670288
1201.4654972,-15.0799999237061
1201.4811222,-14.9099998474121
1201.4967472,-14.6800003051758
1201.5123722,-14.4200000762939
1201.5279972,-14.1000003814697
1201.5436222,-13.460000038147
1201.5592472,-11.9799995422363
1201.5748722,-9.14999961853027
1201.5904972,-4.94999980926514
1201.6061222,0.119999997317791
1201.6217472,5.26999998092651
1201.6373722,9.78999996185303
1201.6529972,13.3199996948242
1201.6686222,15.6599998474121
1201.6842472,16.7800006866455
1201.6998722,16.2800006866455
1201.7154972,14.4200000762939
1201.7311222,11.9399995803833
1201.7467472,9.72000026702881
1201.7623722,8.34000015258789
1201.7779972,7.90000009536743
1201.7936222,8.11999988555908
1201.8092472,8.56999969482422
1201.8248722,8.89999961853027
1201.8404972,8.96000003814697
1201.8561222,8.77000045776367
1201.8717472,8.44999980926514
1201.8873722,8.10000038146973
1201.9029972,7.78000020980835
1201.9186222,7.48000001907349
1201.9342472,7.15000009536743
1201.9498722,6.69999980926514
1201.9654972,6.01000022888184
1201.9811222,5.19999980926514
1201.9967472,4.76000022888184
1202.0123722,5.30000019073486
1202.0279972,7.1399998664856
1202.0436222,10.0500001907349
1202.0592472,13.5100002288818
1202.0748722,16.9400005340576
1202.0904972,19.9400005340576
1202.1061222,22.25
1202.1217472,23.6399993896484
1202.1373722,23.9699993133545
1202.1529972,23.3199996948242
1202.1686222,21.8999996185303
1202.1842472,19.9200000762939
1202.1998722,17.5
1202.2154972,14.7600002288818
1202.2311222,11.7700004577637
1202.2467472,8.56999969482422
1202.2623722,5.21000003814697
1202.2779972,1.94000005722046
1202.2936222,-0.810000002384186
1202.3092472,-2.65000009536743
1202.3248722,-3.40000009536743
1202.3404972,-3.1800000667572
1202.3561222,-2.39000010490417
1202.3717472,-1.45000004768372
1202.3873722,-0.639999985694885
1202.4029972,-0.100000001490116
1202.4186222,0.200000002980232
1202.4342472,0.409999996423721
1202.4498722,0.709999978542328
1202.4654972,1.32000005245209
1202.4811222,2.40000009536743
1202.4967472,3.95000004768372
1202.5123722,5.69999980926514
1202.5279972,7.26999998092651
1202.5436222,8.42000007629395
1202.5592472,9.17000007629395
1202.5748722,9.71000003814697
1202.5904972,10.1700000762939
1202.6061222,10.4899997711182
1202.6217472,10.5900001525879
1202.6373722,10.460000038147
1202.6529972,10.1800003051758
1202.6686222,10.0
1202.6842472,10.3800001144409
1202.6998722,11.460000038147
1202.7154972,13.2799997329712
1202.7311222,15.539999961853
1202.7467472,17.7000007629395
1202.7623722,19.3199996948242
1202.7779972,20.1800003051758
1202.7936222,20.1700000762939
1202.8092472,19.1599998474121
1202.8248722,17.0400009155273
1202.8404972,13.9399995803833
1202.8561222,10.3400001525879
1202.8717472,6.90000009536743
1202.8873722,4.17000007629395
1202.9029972,2.32999992370605
1202.9186222,1.22000002861023
1202.9342472,0.490000009536743
1202.9498722,-0.219999998807907
1202.9654972,-1.17999994754791
1202.9811222,-2.47000002861023
1202.9967472,-4.05999994277954
1203.0123722,-5.90999984741211
1203.0279972,-8.15999984741211
1203.0436222,-10.9899997711182
1203.0592472,-14.3800001144409
1203.0748722,-18.1000003814697
1203.0904972,-21.7399997711182
1203.1061222,-25.0300006866455
1203.1217472,-27.9300003051758
1203.1373722,-30.4500007629395
1203.1529972,-32.4900016784668
1203.1686222,-33.7999992370605
1203.1842472,-34.25
1203.1998722,-33.9799995422363
1203.2154972,-33.1800003051758
1203.2311222,-31.7600002288818
1203.2467472,-29.1599998474121
1203.2623722,-24.7299995422363
1203.2779972,-18.2900009155273
1203.2936222,-10.0799999237061
1203.3092472,-0.389999985694885
1203.3248722,10.539999961853
1203.3404972,22.2999992370605
1203.3561222,33.9799995422363
1203.3717472,44.4000015258789
1203.3873722,52.8800010681152
1203.4029972,59.7799987792969
1203.4186222,65.9300003051758
1203.4342472,71.7099990844727
1203.4498722,76.7799987792969
1203.4654972,80.6699981689453
1203.4811222,83.2099990844727
1203.4967472,84.6100006103516
1203.5123722,85.0
1203.5279972,84.129997253418
1203.5436222,81.5999984741211
1203.5592472,77.3000030517578
1203.5748722,71.3199996948242
1203.5904972,63.6699981689453
1203.6061222,54.3499984741211
1203.6217472,43.6500015258789
1203.6373722,32.25
1203.6529972,20.9300003051758
1203.6686222,10.1899995803833
1203.6842472,0.180000007152557
1203.6998722,-9.13000011444092
1203.7154972,-17.1599998474121
1203.7311222,-23.1000003814697
1203.7467472,-26.5300006866455
1203.7623722,-27.6900005340576
1203.7779972,-27.3600006103516
1203.7936222,-26.3700008392334
1203.8092472,-25.1499996185303
1203.8248722,-23.6299991607666
1203.8404972,-21.4899997711182
1203.8561222,-18.5400009155273
1203.8717472,-14.9700002670288
1203.8873722,-11.2700004577637
1203.9029972,-7.90999984741211
1203.9186222,-5.1100001335144
1203.9342472,-2.80999994277954
1203.9498722,-0.819999992847443
1203.9654972,1.00999999046326
1203.9811222,2.80999994277954
1203.9967472,4.57999992370605
1204.0123722,6.42999982833862
1204.0279972,8.52000045776367
1204.0436222,11.0600004196167
1204.0592472,14.039999961853
1204.0748722,17.2000007629395
1204.0904972,20.0799999237061
1204.1061222,22.3999996185303
1204.1217472,24.3299999237061
1204.1373722,26.2600002288818
1204.1529972,28.3500003814697
1204.1686222,30.4300003051758
1204.1842472,32.2200012207031
1204.1998722,33.5499992370605
1204.2154972,34.4599990844727
1204.2311222,35.1800003051758
1204.2467472,36.0699996948242
1204.2623722,37.4099998474121
1204.2779972,39.2599983215332
1204.2936222,41.6100006103516
1204.3092472,44.4599990844727
1204.3248722,47.8400001525879
1204.3404972,51.6199989318848
1204.3561222,55.2900009155273
1204.3717472,58.0400009155273
1204.3873722,59.3800010681152
1204.4029972,59.5299987792969
1204.4186222,59.2000007629395
1204.4342472,58.9000015258789
1204.4498722,58.6500015258789
1204.4654972,58.2099990844727
1204.4811222,57.3699989318848
1204.4967472,56.0699996948242
1204.5123722,54.1800003051758
1204.5279972,51.4300003051758
1204.5436222,47.5
1204.5592472,42.3800010681152
1204.5748722,36.2700004577637
1204.5904972,29.3700008392334
1204.6061222,21.8600006103516
1204.6217472,13.9399995803833
1204.6373722,5.94000005722046
1204.6529972,-1.77999997138977
1204.6686222,-9.02000045776367
1204.6842472,-15.7700004577637
1204.6998722,-21.9899997711182
1204.7154972,-27.4599990844727
1204.7311222,-31.8899993896484
1204.7467472,-35.1699981689453
1204.7623722,-37.4700012207031
1204.7779972,-39.0999984741211
1204.7936222,-40.0099983215332
1204.8092472,-39.6100006103516
1204.8248722,-37.2200012207031
1204.8404972,-32.7099990844727
1204.8561222,-26.7900009155273
1204.8717472,-20.6700000762939
1204.8873722,-15.4399995803833
1204.9029972,-11.6400003433228
1204.9186222,-9.48999977111816
1204.9342472,-9.17000007629395
1204.9498722,-10.8000001907349
1204.9654972,-14.1199998855591
1204.9811222,-18.3700008392334
1204.9967472,-22.5400009155273
1205.0123722,-25.7999992370605
1205.0279972,-27.8500003814697
1205.0436222,-28.8899993896484
1205.0592472,-29.3600006103516
1205.0748722,-29.5
1205.0904972,-29.2000007629395
1205.1061222,-28.1299991607666
1205.1217472,-26.1399993896484
1205.1373722,-23.4300003051758
1205.1529972,-20.3899993896484
1205.1686222,-17.4200000762939
1205.1842472,-14.789999961853
1205.1998722,-12.7399997711182
1205.2154972,-11.5699996948242
1205.2311222,-11.4899997711182
1205.2467472,-12.4799995422363
1205.2623722,-14.210000038147
1205.2779972,-16.2099990844727
1205.2936222,-18.0900001525879
1205.3092472,-19.6499996185303
1205.3248722,-20.8799991607666
1205.3404972,-21.8899993896484
1205.3561222,-22.8299999237061
1205.3717472,-23.8400001525879
1205.3873722,-25.0300006866455
1205.4029972,-26.4099998474121
1205.4186222,-28.0100002288818
1205.4342472,-30.0
1205.4498722,-32.5400009155273
1205.4654972,-35.6100006103516
1205.4811222,-38.939998626709
1205.4967472,-42.1800003051758
1205.5123722,-45.439998626709
1205.5279972,-49.4099998474121
1205.5436222,-54.8400001525879
1205.5592472,-61.75
1205.5748722,-69.3000030517578
1205.5904972,-76.4599990844727
1205.6061222,-82.5
1205.6217472,-87.4599990844727
1205.6373722,-92.5299987792969
1205.6529972,-100.019996643066
1205.6686222,-111.949996948242
1205.6842472,-128.699996948242
1205.6998722,-148.979995727539
1205.7154972,-170.929992675781
1205.7311222,-193.020004272461
1205.7467472,-213.960006713867
1205.7623722,-231.75
1205.7779972,-243.479995727539
1205.7936222,-247.259994506836
1205.8092472,-244.229995727539
1205.8248722,-237.779998779297
1205.8404972,-231.080001831055
1205.8561222,-225.539993286133
1205.8717472,-221.119995117188
1205.8873722,-217.110000610352
1205.9029972,-212.729995727539
1205.9186222,-206.919998168945
1205.9342472,-198.270004272461
1205.9498722,-185.610000610352
1205.9654972,-168.869995117188
1205.9811222,-149.160003662109
1205.9967472,-128.080001831055
1206.0123722,-107.050003051758
1206.0279972,-86.9199981689453
1206.0436222,-68.0
1206.0592472,-50.1300010681152
1206.0748722,-32.7900009155273
1206.0904972,-15.1499996185303
1206.1061222,3.42000007629395
1206.1217472,23.0599994659424
1206.1373722,43.6199989318848
1206.1529972,65.0800018310547
1206.1686222,87.5199966430664
1206.1842472,110.620002746582
1206.1998722,133.330001831055
1206.2154972,154.139999389648
1206.2311222,172.050003051758
1206.2467472,187.300003051758
1206.2623722,200.740005493164
1206.2779972,212.789993286133
1206.2936222,223.160003662109
1206.3092472,231.449996948242
1206.3248722,237.679992675781
1206.3404972,242.289993286133
1206.3561222,245.740005493164
1206.3717472,248.210006713867
1206.3873722,249.639999389648
1206.4029972,249.979995727539
1206.4186222,249.279998779297
1206.4342472,247.679992675781
1206.4498722,245.330001831055
1206.4654972,242.369995117188
1206.4811222,238.809997558594
1206.4967472,234.429992675781
1206.5123722,228.910003662109
1206.5279972,222.089996337891
1206.5436222,214.179992675781
1206.5592472,205.759994506836
1206.5748722,197.509994506836
1206.5904972,189.880004882813
1206.6061222,182.929992675781
1206.6217472,176.529998779297
1206.6373722,170.539993286133
1206.6529972,165.080001831055
1206.6686222,160.380004882813
1206.6842472,155.169998168945
1206.6998722,150.869995117188
1206.7154972,147.330001831055
1206.7311222,144.429992675781
1206.7467472,141.979995727539
1206.7623722,139.679992675781
1206.7779972,137.149993896484
1206.7936222,134.149993896484
1206.8092472,130.610000610352
1206.8248722,126.589996337891
1206.8404972,122.110000610352
1206.8561222,117.129997253418
1206.8717472,111.699996948242
1206.8873722,105.980003356934
1206.9029972,100.169998168945
1206.9186222,94.370002746582
1206.9342472,88.4700012207031
1206.9498722,82.3300018310547
1206.9654972,75.8899993896484
1206.9811222,69.3199996948242
1206.9967472,62.939998626709
1207.0123722,57.0499992370605
1207.0279972,51.7700004577637
1207.0436222,47.0999984741211
1207.0592472,42.9900016784668
1207.0748722,39.4099998474121
1207.0904972,36.3199996948242
1207.1061222,33.5499992370605
1207.1217472,30.8500003814697
1207.1373722,27.9500007629395
1207.1529972,24.7399997711182
1207.1686222,21.2600002288818
1207.1842472,17.6800003051758
1207.1998722,14.2399997711182
1207.2154972,11.1899995803833
1207.2311222,8.6899995803833
1207.2467472,6.71999979019165
1207.2623722,5.13000011444092
1207.2779972,3.75
1207.2936222,2.4300000667572
1207.3092472,1.0900000333786
1207.3248722,-0.400000005960464
1207.3404972,-2.26999998092651
1207.3561222,-4.67000007629395
1207.3717472,-7.55999994277954
1207.3873722,-10.7399997711182
1207.4029972,-13.9899997711182
1207.4186222,-17.1700000762939
1207.4342472,-20.2299995422363
1207.4498722,-23.2000007629395
1207.4654972,-26.0699996948242
1207.4811222,-28.8400001525879
1207.4967472,-31.4400005340576
1207.5123722,-33.7999992370605
1207.5279972,-35.9099998474121
1207.5436222,-37.810001373291
1207.5592472,-39.5200004577637
1207.5748722,-41.1100006103516
1207.5904972,-42.6100006103516
1207.6061222,-44.1100006103516
1207.6217472,-45.75
1207.6373722,-47.7099990844727
1207.6529972,-50.0999984741211
1207.6686222,-52.9300003051758
1207.6842472,-55.439998626709
1207.6998722,-58.0499992370605
1207.7154972,-60.5800018310547
1207.7311222,-62.9000015258789
1207.7467472,-64.9800033569336
1207.7623722,-66.9400024414063
1207.7779972,-69.0599975585938
1207.7936222,-71.5800018310547
1207.8092472,-74.5100021362305
1207.8248722,-77.6100006103516
1207.8404972,-80.4800033569336
1207.8561222,-82.7799987792969
1207.8717472,-84.3600006103516
1207.8873722,-85.1699981689453
1207.9029972,-85.129997253418
1207.9186222,-84.1699981689453
1207.9342472,-82.3600006103516
1207.9498722,-80.0
1207.9654972,-77.5500030517578
1207.9811222,-75.4100036621094
1207.9967472,-73.7699966430664
1208.0123722,-72.5500030517578
1208.0279972,-71.5299987792969
1208.0436222,-70.2900009155273
1208.0592472,-68.3099975585938
1208.0748722,-65.2099990844727
1208.0904972,-61.0
1208.1061222,-56.0999984741211
1208.1217472,-51.0699996948242
1208.1373722,-46.3699989318848
1208.1529972,-42.25
1208.1686222,-38.9000015258789
1208.1842472,-36.6199989318848
1208.1998722,-35.6199989318848
1208.2154972,-35.8499984741211
1208.2311222,-36.8899993896484
1208.2467472,-38.2200012207031
1208.2623722,-39.3899993896484
1208.2779972,-40.189998626709
1208.2936222,-40.6300010681152
1208.3092472,-40.8300018310547
1208.3248722,-40.9599990844727
1208.3404972,-41.1399993896484
1208.3561222,-41.6199989318848
1208.3717472,-42.7599983215332
1208.3873722,-44.8899993896484
1208.4029972,-48.0099983215332
