Time(s),Value(μS)
1082.0066116,1.21000003814697
1082.0222366,1.21099996566772
1082.0378616,1.21200001239777
1082.0534866,1.21200001239777
1082.0691116,1.21200001239777
1082.0847366,1.21099996566772
1082.1003616,1.21099996566772
1082.1159866,1.20899999141693
1082.1316116,1.20799994468689
1082.1472366,1.2059999704361
1082.1628616,1.2039999961853
1082.1784866,1.20099997520447
1082.1941116,1.19799995422363
1082.2097366,1.19400000572205
1082.2253616,1.18900001049042
1082.2409866,1.18400001525879
1082.2566116,1.17900002002716
1082.2722366,1.17299997806549
1082.2878616,1.16799998283386
1082.3034866,1.16299998760223
1082.3191116,1.15799999237061
1082.3347366,1.15299999713898
1082.3503616,1.14900004863739
1082.3659866,1.14499998092651
1082.3816116,1.14300000667572
1082.3972366,1.13999998569489
1082.4128616,1.13800001144409
1082.4284866,1.1360000371933
1082.4441116,1.13499999046326
1082.4597366,1.13300001621246
1082.4753616,1.13100004196167
1082.4909866,1.12999999523163
1082.5066116,1.12800002098083
1082.5222366,1.12600004673004
1082.5378616,1.125
1082.5534866,1.12399995326996
1082.5691116,1.12199997901917
1082.5847366,1.12199997901917
1082.6003616,1.12100005149841
1082.6159866,1.12000000476837
1082.6316116,1.11899995803833
1082.6472366,1.11800003051758
1082.6628616,1.11699998378754
1082.6784866,1.11600005626678
1082.6941116,1.11500000953674
1082.7097366,1.11500000953674
1082.7253616,1.1139999628067
1082.7409866,1.1139999628067
1082.7566116,1.11300003528595
1082.7722366,1.11199998855591
1082.7878616,1.11199998855591
1082.8034866,1.11099994182587
1082.8191116,1.11000001430511
1082.8347366,1.11000001430511
1082.8503616,1.11000001430511
1082.8659866,1.11000001430511
1082.8816116,1.11000001430511
1082.8972366,1.11000001430511
1082.9128616,1.11099994182587
1082.9284866,1.11199998855591
1082.9441116,1.11300003528595
1082.9597366,1.1139999628067
1082.9753616,1.1139999628067
1082.9909866,1.11500000953674
1083.0066116,1.11500000953674
1083.0222366,1.11600005626678
1083.0378616,1.11600005626678
1083.0534866,1.11699998378754
1083.0691116,1.11699998378754
1083.0847366,1.11800003051758
1083.1003616,1.11800003051758
1083.1159866,1.11800003051758
1083.1316116,1.11800003051758
1083.1472366,1.11899995803833
1083.1628616,1.11899995803833
1083.1784866,1.12000000476837
1083.1941116,1.12000000476837
1083.2097366,1.12100005149841
1083.2253616,1.12199997901917
1083.2409866,1.12199997901917
1083.2566116,1.12300002574921
1083.2722366,1.12399995326996
1083.2878616,1.125
1083.3034866,1.12600004673004
1083.3191116,1.12699997425079
1083.3347366,1.12699997425079
1083.3503616,1.12800002098083
1083.3659866,1.12899994850159
1083.3816116,1.12899994850159
1083.3972366,1.12999999523163
1083.4128616,1.13100004196167
1083.4284866,1.13199996948242
1083.4441116,1.13199996948242
1083.4597366,1.13300001621246
1083.4753616,1.13399994373322
1083.4909866,1.13399994373322
1083.5066116,1.13399994373322
1083.5222366,1.13399994373322
1083.5378616,1.13399994373322
1083.5534866,1.13399994373322
1083.5691116,1.13399994373322
1083.5847366,1.13499999046326
1083.6003616,1.13499999046326
1083.6159866,1.13499999046326
1083.6316116,1.1360000371933
1083.6472366,1.1360000371933
1083.6628616,1.1360000371933
1083.6784866,1.13699996471405
1083.6941116,1.13699996471405
1083.7097366,1.13800001144409
1083.7253616,1.13800001144409
1083.7409866,1.13800001144409
1083.7566116,1.13800001144409
1083.7722366,1.13699996471405
1083.7878616,1.13699996471405
1083.8034866,1.1360000371933
1083.8191116,1.1360000371933
1083.8347366,1.13699996471405
1083.8503616,1.13800001144409
1083.8659866,1.13800001144409
1083.8816116,1.13900005817413
1083.8972366,1.13900005817413
1083.9128616,1.13900005817413
1083.9284866,1.13900005817413
1083.9441116,1.13900005817413
1083.9597366,1.13900005817413
1083.9753616,1.13900005817413
1083.9909866,1.13900005817413
1084.0066116,1.13900005817413
1084.0222366,1.13900005817413
1084.0378616,1.13900005817413
1084.0534866,1.13900005817413
1084.0691116,1.13900005817413
1084.0847366,1.13800001144409
1084.1003616,1.13800001144409
1084.1159866,1.13800001144409
1084.1316116,1.13800001144409
1084.1472366,1.13800001144409
1084.1628616,1.13800001144409
1084.1784866,1.13800001144409
1084.1941116,1.13900005817413
1084.2097366,1.13900005817413
1084.2253616,1.13900005817413
1084.2409866,1.13900005817413
1084.2566116,1.13999998569489
1084.2722366,1.13999998569489
1084.2878616,1.13999998569489
1084.3034866,1.14100003242493
1084.3191116,1.14100003242493
1084.3347366,1.14199995994568
1084.3503616,1.14199995994568
1084.3659866,1.14300000667572
1084.3816116,1.14300000667572
1084.3972366,1.14400005340576
1084.4128616,1.14400005340576
1084.4284866,1.14499998092651
1084.4441116,1.14499998092651
1084.4597366,1.14499998092651
1084.4753616,1.14499998092651
1084.4909866,1.14400005340576
1084.5066116,1.14300000667572
1084.5222366,1.14199995994568
1084.5378616,1.14100003242493
1084.5534866,1.14100003242493
1084.5691116,1.13999998569489
1084.5847366,1.13999998569489
1084.6003616,1.13999998569489
1084.6159866,1.14100003242493
1084.6316116,1.14100003242493
1084.6472366,1.14100003242493
1084.6628616,1.14100003242493
1084.6784866,1.14100003242493
1084.6941116,1.14199995994568
1084.7097366,1.14199995994568
1084.7253616,1.14300000667572
1084.7409866,1.14300000667572
1084.7566116,1.14400005340576
1084.7722366,1.14400005340576
1084.7878616,1.14400005340576
1084.8034866,1.14400005340576
1084.8191116,1.14499998092651
1084.8347366,1.14600002765656
1084.8503616,1.14600002765656
1084.8659866,1.14699995517731
1084.8816116,1.14800000190735
1084.8972366,1.14900004863739
1084.9128616,1.14999997615814
1084.9284866,1.14999997615814
1084.9441116,1.14999997615814
1084.9597366,1.14999997615814
1084.9753616,1.14900004863739
1084.9909866,1.14900004863739
1085.0066116,1.14900004863739
1085.0222366,1.14900004863739
1085.0378616,1.14900004863739
1085.0534866,1.14800000190735
1085.0691116,1.14699995517731
1085.0847366,1.14600002765656
1085.1003616,1.14499998092651
1085.1159866,1.14400005340576
1085.1316116,1.14300000667572
1085.1472366,1.14199995994568
1085.1628616,1.14100003242493
1085.1784866,1.13999998569489
1085.1941116,1.13800001144409
1085.2097366,1.13699996471405
1085.2253616,1.1360000371933
1085.2409866,1.13399994373322
1085.2566116,1.13300001621246
1085.2722366,1.13100004196167
1085.2878616,1.12899994850159
1085.3034866,1.12699997425079
1085.3191116,1.12600004673004
1085.3347366,1.12399995326996
1085.3503616,1.12199997901917
1085.3659866,1.12100005149841
1085.3816116,1.12000000476837
1085.3972366,1.11899995803833
1085.4128616,1.11800003051758
1085.4284866,1.11699998378754
1085.4441116,1.11500000953674
1085.4597366,1.11199998855591
1085.4753616,1.10899996757507
1085.4909866,1.10599994659424
1085.5066116,1.10199999809265
1085.5222366,1.09899997711182
1085.5378616,1.09599995613098
1085.5534866,1.09399998188019
1085.5691116,1.09200000762939
1085.5847366,1.09099996089935
1085.6003616,1.0900000333786
1085.6159866,1.0900000333786
1085.6316116,1.0900000333786
1085.6472366,1.08899998664856
1085.6628616,1.08899998664856
1085.6784866,1.08899998664856
1085.6941116,1.0900000333786
1085.7097366,1.0900000333786
1085.7253616,1.09099996089935
1085.7409866,1.09099996089935
1085.7566116,1.09200000762939
1085.7722366,1.09300005435944
1085.7878616,1.09399998188019
1085.8034866,1.09500002861023
1085.8191116,1.09500002861023
1085.8347366,1.09599995613098
1085.8503616,1.09599995613098
1085.8659866,1.09599995613098
1085.8816116,1.09700000286102
1085.8972366,1.09700000286102
1085.9128616,1.09800004959106
1085.9284866,1.09800004959106
1085.9441116,1.09899997711182
1085.9597366,1.09899997711182
1085.9753616,1.10000002384186
1085.9909866,1.10000002384186
1086.0066116,1.10000002384186
1086.0222366,1.10000002384186
1086.0378616,1.10000002384186
1086.0534866,1.09899997711182
1086.0691116,1.09899997711182
1086.0847366,1.09899997711182
1086.1003616,1.09899997711182
1086.1159866,1.09899997711182
1086.1316116,1.09899997711182
1086.1472366,1.09899997711182
1086.1628616,1.09899997711182
1086.1784866,1.09899997711182
1086.1941116,1.09800004959106
1086.2097366,1.09800004959106
1086.2253616,1.09800004959106
1086.2409866,1.09700000286102
1086.2566116,1.09700000286102
1086.2722366,1.09700000286102
1086.2878616,1.09599995613098
1086.3034866,1.09599995613098
1086.3191116,1.09500002861023
1086.3347366,1.09500002861023
1086.3503616,1.09399998188019
1086.3659866,1.09399998188019
1086.3816116,1.09399998188019
1086.3972366,1.09300005435944
1086.4128616,1.09300005435944
1086.4284866,1.09300005435944
1086.4441116,1.09300005435944
1086.4597366,1.09399998188019
1086.4753616,1.09399998188019
1086.4909866,1.09500002861023
1086.5066116,1.09599995613098
1086.5222366,1.09599995613098
1086.5378616,1.09700000286102
1086.5534866,1.09800004959106
1086.5691116,1.09899997711182
1086.5847366,1.10000002384186
1086.6003616,1.10000002384186
1086.6159866,1.10099995136261
1086.6316116,1.10099995136261
1086.6472366,1.10199999809265
1086.6628616,1.10199999809265
1086.6784866,1.10300004482269
1086.6941116,1.10300004482269
1086.7097366,1.10399997234344
1086.7253616,1.10399997234344
1086.7409866,1.10399997234344
1086.7566116,1.10500001907349
1086.7722366,1.10500001907349
1086.7878616,1.10399997234344
1086.8034866,1.10399997234344
1086.8191116,1.10300004482269
1086.8347366,1.10199999809265
1086.8503616,1.10199999809265
1086.8659866,1.10199999809265
1086.8816116,1.10099995136261
1086.8972366,1.10199999809265
1086.9128616,1.10199999809265
1086.9284866,1.10199999809265
1086.9441116,1.10199999809265
1086.9597366,1.10199999809265
1086.9753616,1.10199999809265
1086.9909866,1.10199999809265
1087.0066116,1.10199999809265
1087.0222366,1.10099995136261
1087.0378616,1.10000002384186
1087.0534866,1.10000002384186
1087.0691116,1.09899997711182
1087.0847366,1.09800004959106
1087.1003616,1.09700000286102
1087.1159866,1.09700000286102
1087.1316116,1.09599995613098
1087.1472366,1.09599995613098
1087.1628616,1.09599995613098
1087.1784866,1.09599995613098
1087.1941116,1.09599995613098
1087.2097366,1.09599995613098
1087.2253616,1.09500002861023
1087.2409866,1.09500002861023
1087.2566116,1.09399998188019
1087.2722366,1.09300005435944
1087.2878616,1.09300005435944
1087.3034866,1.09300005435944
1087.3191116,1.09300005435944
1087.3347366,1.09300005435944
1087.3503616,1.09200000762939
1087.3659866,1.09200000762939
1087.3816116,1.09200000762939
1087.3972366,1.09099996089935
1087.4128616,1.09099996089935
1087.4284866,1.0900000333786
1087.4441116,1.0900000333786
1087.4597366,1.0900000333786
1087.4753616,1.09099996089935
1087.4909866,1.09099996089935
1087.5066116,1.09099996089935
1087.5222366,1.09200000762939
1087.5378616,1.09200000762939
1087.5534866,1.09200000762939
1087.5691116,1.09200000762939
1087.5847366,1.09200000762939
1087.6003616,1.09200000762939
1087.6159866,1.09200000762939
1087.6316116,1.09300005435944
1087.6472366,1.09300005435944
1087.6628616,1.09300005435944
1087.6784866,1.09300005435944
1087.6941116,1.09300005435944
1087.7097366,1.09300005435944
1087.7253616,1.09399998188019
1087.7409866,1.09399998188019
1087.7566116,1.09399998188019
1087.7722366,1.09399998188019
1087.7878616,1.09500002861023
1087.8034866,1.09500002861023
1087.8191116,1.09500002861023
1087.8347366,1.09500002861023
1087.8503616,1.09500002861023
1087.8659866,1.09599995613098
1087.8816116,1.09599995613098
1087.8972366,1.09599995613098
1087.9128616,1.09599995613098
1087.9284866,1.09599995613098
1087.9441116,1.09599995613098
1087.9597366,1.09599995613098
1087.9753616,1.09700000286102
1087.9909866,1.09700000286102
1088.0066116,1.09800004959106
1088.0222366,1.09800004959106
1088.0378616,1.09800004959106
1088.0534866,1.09899997711182
1088.0691116,1.09899997711182
1088.0847366,1.10000002384186
1088.1003616,1.10000002384186
1088.1159866,1.10099995136261
1088.1316116,1.10099995136261
1088.1472366,1.10099995136261
1088.1628616,1.10099995136261
1088.1784866,1.10099995136261
1088.1941116,1.10099995136261
1088.2097366,1.10099995136261
1088.2253616,1.10099995136261
1088.2409866,1.10199999809265
1088.2566116,1.10199999809265
1088.2722366,1.10300004482269
1088.2878616,1.10300004482269
1088.3034866,1.10300004482269
1088.3191116,1.10300004482269
1088.3347366,1.10300004482269
1088.3503616,1.10300004482269
1088.3659866,1.10199999809265
1088.3816116,1.10099995136261
1088.3972366,1.10099995136261
1088.4128616,1.10000002384186
1088.4284866,1.10000002384186
1088.4441116,1.10000002384186
1088.4597366,1.09899997711182
1088.4753616,1.09899997711182
1088.4909866,1.09899997711182
1088.5066116,1.09800004959106
1088.5222366,1.09800004959106
1088.5378616,1.09899997711182
1088.5534866,1.09899997711182
1088.5691116,1.10000002384186
1088.5847366,1.10099995136261
1088.6003616,1.10199999809265
1088.6159866,1.10199999809265
1088.6316116,1.10199999809265
1088.6472366,1.10300004482269
1088.6628616,1.10300004482269
1088.6784866,1.10300004482269
1088.6941116,1.10399997234344
1088.7097366,1.10399997234344
1088.7253616,1.10399997234344
1088.7409866,1.10500001907349
1088.7566116,1.10599994659424
1088.7722366,1.10699999332428
1088.7878616,1.10699999332428
1088.8034866,1.10800004005432
1088.8191116,1.10899996757507
1088.8347366,1.11000001430511
1088.8503616,1.11000001430511
1088.8659866,1.11099994182587
1088.8816116,1.11099994182587
1088.8972366,1.11099994182587
1088.9128616,1.11199998855591
1088.9284866,1.11199998855591
1088.9441116,1.11300003528595
1088.9597366,1.11300003528595
1088.9753616,1.11300003528595
1088.9909866,1.1139999628067
1089.0066116,1.1139999628067
1089.0222366,1.1139999628067
1089.0378616,1.1139999628067
1089.0534866,1.1139999628067
1089.0691116,1.1139999628067
1089.0847366,1.1139999628067
1089.1003616,1.11300003528595
1089.1159866,1.11300003528595
1089.1316116,1.11300003528595
1089.1472366,1.11199998855591
1089.1628616,1.11199998855591
1089.1784866,1.11199998855591
1089.1941116,1.11099994182587
1089.2097366,1.11099994182587
1089.2253616,1.11099994182587
1089.2409866,1.11199998855591
1089.2566116,1.11199998855591
1089.2722366,1.11199998855591
1089.2878616,1.11199998855591
1089.3034866,1.11099994182587
1089.3191116,1.11099994182587
1089.3347366,1.11099994182587
1089.3503616,1.11199998855591
1089.3659866,1.11199998855591
1089.3816116,1.11199998855591
1089.3972366,1.11199998855591
1089.4128616,1.11199998855591
1089.4284866,1.11300003528595
1089.4441116,1.11300003528595
1089.4597366,1.11300003528595
1089.4753616,1.11300003528595
1089.4909866,1.11300003528595
1089.5066116,1.1139999628067
1089.5222366,1.1139999628067
1089.5378616,1.1139999628067
1089.5534866,1.11500000953674
1089.5691116,1.11500000953674
1089.5847366,1.11500000953674
1089.6003616,1.11500000953674
1089.6159866,1.11500000953674
1089.6316116,1.11500000953674
1089.6472366,1.11600005626678
1089.6628616,1.11600005626678
1089.6784866,1.11600005626678
1089.6941116,1.11699998378754
1089.7097366,1.11699998378754
1089.7253616,1.11699998378754
1089.7409866,1.11699998378754
1089.7566116,1.11699998378754
1089.7722366,1.11699998378754
1089.7878616,1.11699998378754
1089.8034866,1.11699998378754
1089.8191116,1.11800003051758
1089.8347366,1.11800003051758
1089.8503616,1.11800003051758
1089.8659866,1.11800003051758
1089.8816116,1.11699998378754
1089.8972366,1.11699998378754
1089.9128616,1.11600005626678
1089.9284866,1.11600005626678
1089.9441116,1.11500000953674
1089.9597366,1.11500000953674
1089.9753616,1.1139999628067
1089.9909866,1.1139999628067
1090.0066116,1.1139999628067
1090.0222366,1.11300003528595
1090.0378616,1.11300003528595
1090.0534866,1.11300003528595
1090.0691116,1.11300003528595
1090.0847366,1.11300003528595
1090.1003616,1.11300003528595
1090.1159866,1.11199998855591
1090.1316116,1.11199998855591
1090.1472366,1.11300003528595
1090.1628616,1.11300003528595
1090.1784866,1.11300003528595
1090.1941116,1.11300003528595
1090.2097366,1.11300003528595
1090.2253616,1.11300003528595
1090.2409866,1.11300003528595
1090.2566116,1.11300003528595
1090.2722366,1.11300003528595
1090.2878616,1.11300003528595
1090.3034866,1.11300003528595
1090.3191116,1.1139999628067
1090.3347366,1.1139999628067
1090.3503616,1.1139999628067
1090.3659866,1.11500000953674
1090.3816116,1.11500000953674
1090.3972366,1.11600005626678
1090.4128616,1.11600005626678
1090.4284866,1.11600005626678
1090.4441116,1.11600005626678
1090.4597366,1.11600005626678
1090.4753616,1.11699998378754
1090.4909866,1.11699998378754
1090.5066116,1.11699998378754
1090.5222366,1.11699998378754
1090.5378616,1.11699998378754
1090.5534866,1.11699998378754
1090.5691116,1.11699998378754
1090.5847366,1.11699998378754
1090.6003616,1.11699998378754
1090.6159866,1.11699998378754
1090.6316116,1.11699998378754
1090.6472366,1.11699998378754
1090.6628616,1.11600005626678
1090.6784866,1.11600005626678
1090.6941116,1.11500000953674
1090.7097366,1.1139999628067
1090.7253616,1.11300003528595
1090.7409866,1.11199998855591
1090.7566116,1.11099994182587
1090.7722366,1.11099994182587
1090.7878616,1.11000001430511
1090.8034866,1.11000001430511
1090.8191116,1.11000001430511
1090.8347366,1.11000001430511
1090.8503616,1.11000001430511
1090.8659866,1.10899996757507
1090.8816116,1.10899996757507
1090.8972366,1.10800004005432
1090.9128616,1.10800004005432
1090.9284866,1.10800004005432
1090.9441116,1.10800004005432
1090.9597366,1.10800004005432
1090.9753616,1.10800004005432
1090.9909866,1.10800004005432
1091.0066116,1.10800004005432
1091.0222366,1.10800004005432
1091.0378616,1.10800004005432
1091.0534866,1.10699999332428
1091.0691116,1.10699999332428
1091.0847366,1.10699999332428
1091.1003616,1.10699999332428
1091.1159866,1.10800004005432
1091.1316116,1.10800004005432
1091.1472366,1.10800004005432
1091.1628616,1.10800004005432
1091.1784866,1.10899996757507
1091.1941116,1.10899996757507
1091.2097366,1.10899996757507
1091.2253616,1.11000001430511
1091.2409866,1.11000001430511
1091.2566116,1.11000001430511
1091.2722366,1.11099994182587
1091.2878616,1.11099994182587
1091.3034866,1.11199998855591
1091.3191116,1.11199998855591
1091.3347366,1.11300003528595
1091.3503616,1.11300003528595
1091.3659866,1.1139999628067
1091.3816116,1.1139999628067
1091.3972366,1.11500000953674
1091.4128616,1.11500000953674
1091.4284866,1.1139999628067
1091.4441116,1.1139999628067
1091.4597366,1.11300003528595
1091.4753616,1.11199998855591
1091.4909866,1.11099994182587
1091.5066116,1.11099994182587
1091.5222366,1.11000001430511
1091.5378616,1.10899996757507
1091.5534866,1.10899996757507
1091.5691116,1.10800004005432
1091.5847366,1.10800004005432
1091.6003616,1.10800004005432
1091.6159866,1.10699999332428
1091.6316116,1.10699999332428
1091.6472366,1.10699999332428
1091.6628616,1.10599994659424
1091.6784866,1.10599994659424
1091.6941116,1.10599994659424
1091.7097366,1.10599994659424
1091.7253616,1.10599994659424
1091.7409866,1.10500001907349
1091.7566116,1.10500001907349
1091.7722366,1.10500001907349
1091.7878616,1.10500001907349
1091.8034866,1.10500001907349
1091.8191116,1.10500001907349
1091.8347366,1.10500001907349
1091.8503616,1.10500001907349
1091.8659866,1.10500001907349
1091.8816116,1.10500001907349
1091.8972366,1.10500001907349
1091.9128616,1.10599994659424
1091.9284866,1.10599994659424
1091.9441116,1.10699999332428
1091.9597366,1.10699999332428
1091.9753616,1.10699999332428
1091.9909866,1.10699999332428
1092.0066116,1.10699999332428
1092.0222366,1.10800004005432
1092.0378616,1.10800004005432
1092.0534866,1.10800004005432
1092.0691116,1.10800004005432
1092.0847366,1.10800004005432
1092.1003616,1.10800004005432
1092.1159866,1.10899996757507
1092.1316116,1.10899996757507
1092.1472366,1.10899996757507
1092.1628616,1.10899996757507
1092.1784866,1.10899996757507
1092.1941116,1.10899996757507
1092.2097366,1.10899996757507
1092.2253616,1.10899996757507
1092.2409866,1.10899996757507
1092.2566116,1.10800004005432
1092.2722366,1.10800004005432
1092.2878616,1.10800004005432
1092.3034866,1.10699999332428
1092.3191116,1.10599994659424
1092.3347366,1.10599994659424
1092.3503616,1.10500001907349
1092.3659866,1.10500001907349
1092.3816116,1.10500001907349
1092.3972366,1.10399997234344
1092.4128616,1.10399997234344
1092.4284866,1.10399997234344
