Time(s),Value(%)
1082.0066116,22.9699993133545
1082.0222366,25.4699993133545
1082.0378616,27.2600002288818
1082.0534866,28.4899997711182
1082.0691116,29.4200000762939
1082.0847366,30.1800003051758
1082.1003616,30.7099990844727
1082.1159866,30.8700008392334
1082.1316116,30.5799999237061
1082.1472366,29.8700008392334
1082.1628616,28.8899993896484
1082.1784866,27.7399997711182
1082.1941116,26.5200004577637
1082.2097366,25.2999992370605
1082.2253616,24.1100006103516
1082.2409866,22.9200000762939
1082.2566116,21.6200008392334
1082.2722366,20.1100006103516
1082.2878616,18.3700008392334
1082.3034866,16.3899993896484
1082.3191116,14.1300001144409
1082.3347366,11.539999961853
1082.3503616,8.68000030517578
1082.3659866,5.71999979019165
1082.3816116,2.9300000667572
1082.3972366,0.439999997615814
1082.4128616,-1.79999995231628
1082.4284866,-3.94000005722046
1082.4441116,-6.0
1082.4597366,-7.80999994277954
1082.4753616,-9.23999977111816
1082.4909866,-10.2799997329712
1082.5066116,-10.9799995422363
1082.5222366,-11.3699998855591
1082.5378616,-11.3400001525879
1082.5534866,-10.7299995422363
1082.5691116,-9.43000030517578
1082.5847366,-7.23000001907349
1082.6003616,-3.66000008583069
1082.6159866,1.70000004768372
1082.6316116,8.81999969482422
1082.6472366,16.9799995422363
1082.6628616,25.2800006866455
1082.6784866,33.2299995422363
1082.6941116,41.060001373291
1082.7097366,49.0800018310547
1082.7253616,56.9300003051758
1082.7409866,63.6800003051758
1082.7566116,68.5699996948242
1082.7722366,71.5299987792969
1082.7878616,73.120002746582
1082.8034866,74.1600036621094
1082.8191116,75.3899993896484
1082.8347366,77.1999969482422
1082.8503616,79.5999984741211
1082.8659866,82.4800033569336
1082.8816116,85.8399963378906
1082.8972366,89.8099975585938
1082.9128616,94.25
1082.9284866,98.4499969482422
1082.9441116,101.150001525879
1082.9597366,101.389999389648
1082.9753616,99.120002746582
1082.9909866,95.120002746582
1083.0066116,90.1800003051758
1083.0222366,84.7600021362305
1083.0378616,79.0400009155273
1083.0534866,73.0999984741211
1083.0691116,67.0599975585938
1083.0847366,61.0499992370605
1083.1003616,55.1399993896484
1083.1159866,49.3400001525879
1083.1316116,43.6599998474121
1083.1472366,38.1199989318848
1083.1628616,32.7799987792969
1083.1784866,27.7000007629395
1083.1941116,22.8899993896484
1083.2097366,18.1900005340576
1083.2253616,13.3299999237061
1083.2409866,8.02999973297119
1083.2566116,2.16000008583069
1083.2722366,-4.15000009536743
1083.2878616,-10.6599998474121
1083.3034866,-17.0900001525879
1083.3191116,-23.2199993133545
1083.3347366,-28.9599990844727
1083.3503616,-34.25
1083.3659866,-38.8899993896484
1083.3816116,-42.439998626709
1083.3972366,-44.4799995422363
1083.4128616,-44.9500007629395
1083.4284866,-44.0299987792969
1083.4441116,-41.9199981689453
1083.4597366,-38.75
1083.4753616,-34.810001373291
1083.4909866,-30.7099990844727
1083.5066116,-27.2800006866455
1083.5222366,-25.1499996185303
1083.5378616,-24.3700008392334
1083.5534866,-24.5900001525879
1083.5691116,-25.6000003814697
1083.5847366,-27.3600006103516
1083.6003616,-29.8600006103516
1083.6159866,-32.8899993896484
1083.6316116,-36.1500015258789
1083.6472366,-39.4199981689453
1083.6628616,-42.6399993896484
1083.6784866,-45.9099998474121
1083.6941116,-49.3199996948242
1083.7097366,-52.9099998474121
1083.7253616,-56.6800003051758
1083.7409866,-60.6399993896484
1083.7566116,-64.7099990844727
1083.7722366,-68.7399978637695
1083.7878616,-72.629997253418
1083.8034866,-76.3499984741211
1083.8191116,-80.0299987792969
1083.8347366,-83.7300033569336
1083.8503616,-87.370002746582
1083.8659866,-90.7900009155273
1083.8816116,-94.0199966430664
1083.8972366,-97.2300033569336
1083.9128616,-100.540000915527
1083.9284866,-103.819999694824
1083.9441116,-106.76000213623
1083.9597366,-109.169998168945
1083.9753616,-111.190002441406
1083.9909866,-113.080001831055
1084.0066116,-114.900001525879
1084.0222366,-116.400001525879
1084.0378616,-117.330001831055
1084.0534866,-117.580001831055
1084.0691116,-117.23999786377
1084.0847366,-116.48999786377
1084.1003616,-115.470001220703
1084.1159866,-114.26000213623
1084.1316116,-112.830001831055
1084.1472366,-111.110000610352
1084.1628616,-108.930000305176
1084.1784866,-106.129997253418
1084.1941116,-102.709999084473
1084.2097366,-98.6999969482422
1084.2253616,-94.0599975585938
1084.2409866,-88.6699981689453
1084.2566116,-82.4700012207031
1084.2722366,-75.6399993896484
1084.2878616,-68.629997253418
1084.3034866,-61.9799995422363
1084.3191116,-56.0299987792969
1084.3347366,-50.7999992370605
1084.3503616,-46.0999984741211
1084.3659866,-41.75
1084.3816116,-37.7200012207031
1084.3972366,-34.1100006103516
1084.4128616,-31.0
1084.4284866,-28.3799991607666
1084.4441116,-26.2800006866455
1084.4597366,-24.7000007629395
1084.4753616,-23.5300006866455
1084.4909866,-22.6000003814697
1084.5066116,-21.7099990844727
1084.5222366,-20.8400001525879
1084.5378616,-20.1299991607666
1084.5534866,-19.75
1084.5691116,-19.6200008392334
1084.5847366,-19.4400005340576
1084.6003616,-18.8999996185303
1084.6159866,-17.8999996185303
1084.6316116,-16.5499992370605
1084.6472366,-15.1000003814697
1084.6628616,-13.9099998474121
1084.6784866,-13.25
1084.6941116,-13.1599998474121
1084.7097366,-13.6099996566772
1084.7253616,-14.6099996566772
1084.7409866,-16.2099990844727
1084.7566116,-18.2800006866455
1084.7722366,-20.3700008392334
1084.7878616,-21.7399997711182
1084.8034866,-21.8700008392334
1084.8191116,-20.8299999237061
1084.8347366,-19.0799999237061
1084.8503616,-16.9599990844727
1084.8659866,-14.5500001907349
1084.8816116,-11.7799997329712
1084.8972366,-8.64999961853027
1084.9128616,-5.21999979019165
1084.9284866,-1.37000000476837
1084.9441116,3.26999998092651
1084.9597366,9.17000007629395
1084.9753616,16.3600006103516
1084.9909866,24.4599990844727
1085.0066116,32.8600006103516
1085.0222366,41.0499992370605
1085.0378616,48.7099990844727
1085.0534866,55.6100006103516
1085.0691116,61.4799995422363
1085.0847366,66.0999984741211
1085.1003616,69.3600006103516
1085.1159866,71.370002746582
1085.1316116,72.4199981689453
1085.1472366,72.879997253418
1085.1628616,73.0599975585938
1085.1784866,73.1999969482422
1085.1941116,73.3899993896484
1085.2097366,73.620002746582
1085.2253616,73.7799987792969
1085.2409866,73.7900009155273
1085.2566116,73.5899963378906
1085.2722366,73.1399993896484
1085.2878616,72.3499984741211
1085.3034866,71.1399993896484
1085.3191116,69.5500030517578
1085.3347366,67.8099975585938
1085.3503616,66.2900009155273
1085.3659866,65.1399993896484
1085.3816116,64.1800003051758
1085.3972366,63.0200004577637
1085.4128616,61.5200004577637
1085.4284866,59.8199996948242
1085.4441116,58.2099990844727
1085.4597366,56.9000015258789
1085.4753616,55.8899993896484
1085.4909866,55.060001373291
1085.5066116,54.1800003051758
1085.5222366,53.0699996948242
1085.5378616,51.7299995422363
1085.5534866,50.3499984741211
1085.5691116,49.310001373291
1085.5847366,48.9500007629395
1085.6003616,49.3800010681152
1085.6159866,50.6199989318848
1085.6316116,52.7700004577637
1085.6472366,56.2299995422363
1085.6628616,61.5299987792969
1085.6784866,68.8300018310547
1085.6941116,77.5199966430664
1085.7097366,86.4499969482422
1085.7253616,94.5800018310547
1085.7409866,101.370002746582
1085.7566116,106.879997253418
1085.7722366,111.589996337891
1085.7878616,116.110000610352
1085.8034866,120.919998168945
1085.8191116,126.099998474121
1085.8347366,131.589996337891
1085.8503616,137.309997558594
1085.8659866,143.270004272461
1085.8816116,149.279998779297
1085.8972366,154.630004882813
1085.9128616,158.149993896484
1085.9284866,158.919998168945
1085.9441116,156.940002441406
1085.9597366,153.039993286133
1085.9753616,148.179992675781
1085.9909866,142.960006713867
1086.0066116,137.710006713867
1086.0222366,132.539993286133
1086.0378616,127.470001220703
1086.0534866,122.360000610352
1086.0691116,116.919998168945
1086.0847366,110.879997253418
1086.1003616,104.190002441406
1086.1159866,96.9899978637695
1086.1316116,89.5100021362305
1086.1472366,81.9700012207031
1086.1628616,74.5199966430664
1086.1784866,67.2699966430664
1086.1941116,60.2299995422363
1086.2097366,53.3400001525879
1086.2253616,46.4199981689453
1086.2409866,39.310001373291
1086.2566116,31.9599990844727
1086.2722366,24.4400005340576
1086.2878616,16.8199996948242
1086.3034866,9.14999961853027
1086.3191116,1.53999996185303
1086.3347366,-5.80000019073486
1086.3503616,-12.5900001525879
1086.3659866,-18.5799999237061
1086.3816116,-23.7199993133545
1086.3972366,-28.1399993896484
1086.4128616,-31.9799995422363
1086.4284866,-35.310001373291
1086.4441116,-38.2299995422363
1086.4597366,-40.8300018310547
1086.4753616,-43.189998626709
1086.4909866,-45.2299995422363
1086.5066116,-46.6800003051758
1086.5222366,-47.2599983215332
1086.5378616,-46.9099998474121
1086.5534866,-45.8400001525879
1086.5691116,-44.3400001525879
1086.5847366,-42.6800003051758
1086.6003616,-41.0699996948242
1086.6159866,-39.7299995422363
1086.6316116,-39.0200004577637
1086.6472366,-39.2000007629395
1086.6628616,-40.3499984741211
1086.6784866,-42.2700004577637
1086.6941116,-44.6699981689453
1086.7097366,-47.2999992370605
1086.7253616,-49.9300003051758
1086.7409866,-52.4599990844727
1086.7566116,-54.8300018310547
1086.7722366,-57.1300010681152
1086.7878616,-59.560001373291
1086.8034866,-62.310001373291
1086.8191116,-65.4499969482422
1086.8347366,-68.9599990844727
1086.8503616,-72.870002746582
1086.8659866,-77.2099990844727
1086.8816116,-81.879997253418
1086.8972366,-86.5500030517578
1086.9128616,-90.7399978637695
1086.9284866,-94.2200012207031
1086.9441116,-97.25
1086.9597366,-100.26000213623
1086.9753616,-103.370002746582
1086.9909866,-106.319999694824
1087.0066116,-108.75
1087.0222366,-110.459999084473
1087.0378616,-111.529998779297
1087.0534866,-112.300003051758
1087.0691116,-113.26000213623
1087.0847366,-114.779998779297
1087.1003616,-116.959999084473
1087.1159866,-119.680000305176
1087.1316116,-122.830001831055
1087.1472366,-126.339996337891
1087.1628616,-130.029998779297
1087.1784866,-133.320007324219
1087.1941116,-135.270004272461
1087.2097366,-135.080001831055
1087.2253616,-132.559997558594
1087.2409866,-128.179992675781
1087.2566116,-122.580001831055
1087.2722366,-116.279998779297
1087.2878616,-109.690002441406
1087.3034866,-103.059997558594
1087.3191116,-96.5699996948242
1087.3347366,-90.370002746582
1087.3503616,-84.5699996948242
1087.3659866,-79.25
1087.3816116,-74.4100036621094
1087.3972366,-70.0599975585938
1087.4128616,-66.2900009155273
1087.4284866,-63.2200012207031
1087.4441116,-60.7999992370605
1087.4597366,-58.7700004577637
1087.4753616,-56.7700004577637
1087.4909866,-54.6300010681152
1087.5066116,-52.5299987792969
1087.5222366,-50.7299995422363
1087.5378616,-49.2299995422363
1087.5534866,-47.7400016784668
1087.5691116,-45.9099998474121
1087.5847366,-43.6199989318848
1087.6003616,-40.9599990844727
1087.6159866,-38.2000007629395
1087.6316116,-35.6500015258789
1087.6472366,-33.5499992370605
1087.6628616,-31.9599990844727
1087.6784866,-30.9699993133545
1087.6941116,-30.8700008392334
1087.7097366,-31.9099998474121
1087.7253616,-34.0299987792969
1087.7409866,-36.5900001525879
1087.7566116,-38.5999984741211
1087.7722366,-39.4000015258789
1087.7878616,-39.0999984741211
1087.8034866,-38.25
1087.8191116,-37.1100006103516
1087.8347366,-35.5
1087.8503616,-33.1699981689453
1087.8659866,-30.0799999237061
1087.8816116,-26.4400005340576
1087.8972366,-22.5100002288818
1087.9128616,-18.4099998474121
1087.9284866,-14.1300001144409
1087.9441116,-9.60999965667725
1087.9597366,-4.78999996185303
1087.9753616,0.46000000834465
1087.9909866,6.25
1088.0066116,12.5299997329712
1088.0222366,19.2000007629395
1088.0378616,26.2299995422363
1088.0534866,33.7000007629395
1088.0691116,41.6699981689453
1088.0847366,49.9199981689453
1088.1003616,57.939998626709
1088.1159866,65.1399993896484
1088.1316116,71.1900024414063
1088.1472366,76.129997253418
1088.1628616,80.3000030517578
1088.1784866,84.0599975585938
1088.1941116,87.6800003051758
1088.2097366,91.25
1088.2253616,94.7300033569336
1088.2409866,98.0899963378906
1088.2566116,101.400001525879
1088.2722366,104.73999786377
1088.2878616,108.129997253418
1088.3034866,111.379997253418
1088.3191116,114.169998168945
1088.3347366,116.26000213623
1088.3503616,117.690002441406
1088.3659866,118.629997253418
1088.3816116,119.26000213623
1088.3972366,119.709999084473
1088.4128616,120.169998168945
1088.4284866,120.879997253418
1088.4441116,121.919998168945
1088.4597366,123.120002746582
1088.4753616,124.129997253418
1088.4909866,124.730003356934
1088.5066116,125.0
1088.5222366,125.150001525879
1088.5378616,125.150001525879
1088.5534866,124.809997558594
1088.5691116,123.889999389648
1088.5847366,122.370002746582
1088.6003616,120.370002746582
1088.6159866,118.029998779297
1088.6316116,115.389999389648
1088.6472366,112.400001525879
1088.6628616,109.110000610352
1088.6784866,105.589996337891
1088.6941116,102.790000915527
1088.7097366,101.309997558594
1088.7253616,101.26000213623
1088.7409866,102.150001525879
1088.7566116,103.230003356934
1088.7722366,104.099998474121
1088.7878616,104.959999084473
1088.8034866,106.160003662109
1088.8191116,107.540000915527
1088.8347366,108.449996948242
1088.8503616,108.269996643066
1088.8659866,106.849998474121
1088.8816116,104.449996948242
1088.8972366,101.48999786377
1088.9128616,98.2200012207031
1088.9284866,94.6699981689453
1088.9441116,90.8399963378906
1088.9597366,86.7099990844727
1088.9753616,82.3199996948242
1088.9909866,77.7099990844727
1089.0066116,72.9300003051758
1089.0222366,67.870002746582
1089.0378616,62.1599998474121
1089.0534866,55.4300003051758
1089.0691116,47.5400009155273
1089.0847366,38.7700004577637
1089.1003616,29.6900005340576
1089.1159866,20.8899993896484
1089.1316116,12.7399997711182
1089.1472366,5.32000017166138
1089.1628616,-1.52999997138977
1089.1784866,-8.13000011444092
1089.1941116,-14.8699998855591
1089.2097366,-21.9799995422363
1089.2253616,-29.5200004577637
1089.2409866,-37.4300003051758
1089.2566116,-45.7299995422363
1089.2722366,-54.4900016784668
1089.2878616,-63.5999984741211
1089.3034866,-72.5999984741211
1089.3191116,-80.8399963378906
1089.3347366,-87.870002746582
1089.3503616,-93.8000030517578
1089.3659866,-99.0599975585938
1089.3816116,-103.809997558594
1089.3972366,-107.940002441406
1089.4128616,-111.23999786377
1089.4284866,-113.680000305176
1089.4441116,-115.430000305176
1089.4597366,-116.629997253418
1089.4753616,-117.279998779297
1089.4909866,-117.290000915527
1089.5066116,-116.610000610352
1089.5222366,-115.220001220703
1089.5378616,-113.099998474121
1089.5534866,-110.199996948242
1089.5691116,-106.629997253418
1089.5847366,-102.580001831055
1089.6003616,-98.2600021362305
1089.6159866,-93.8000030517578
1089.6316116,-89.2300033569336
1089.6472366,-84.6800003051758
1089.6628616,-80.4899978637695
1089.6784866,-76.7399978637695
1089.6941116,-73.879997253418
1089.7097366,-71.75
1089.7253616,-70.0500030517578
1089.7409866,-68.5400009155273
1089.7566116,-67.2399978637695
1089.7722366,-66.2699966430664
1089.7878616,-65.7099990844727
1089.8034866,-65.5500030517578
1089.8191116,-65.6900024414063
1089.8347366,-66.0500030517578
1089.8503616,-66.5
1089.8659866,-66.879997253418
1089.8816116,-67.0100021362305
1089.8972366,-66.8499984741211
1089.9128616,-66.5500030517578
1089.9284866,-66.3199996948242
1089.9441116,-66.2399978637695
1089.9597366,-66.1999969482422
1089.9753616,-66.0400009155273
1089.9909866,-65.620002746582
1090.0066116,-64.9700012207031
1090.0222366,-64.1900024414063
1090.0378616,-63.5
1090.0534866,-63.0400009155273
1090.0691116,-62.8800010681152
1090.0847366,-63.0200004577637
1090.1003616,-63.5099983215332
1090.1159866,-64.4199981689453
1090.1316116,-65.6800003051758
1090.1472366,-66.9599990844727
1090.1628616,-67.7300033569336
1090.1784866,-67.620002746582
1090.1941116,-66.5999984741211
1090.2097366,-64.9199981689453
1090.2253616,-62.7999992370605
1090.2409866,-60.3199996948242
1090.2566116,-57.5099983215332
1090.2722366,-54.4500007629395
1090.2878616,-51.2099990844727
1090.3034866,-47.6599998474121
1090.3191116,-43.4199981689453
1090.3347366,-38.0400009155273
1090.3503616,-31.4599990844727
1090.3659866,-23.9899997711182
1090.3816116,-16.0799999237061
1090.3972366,-8.09000015258789
1090.4128616,-0.330000013113022
1090.4284866,6.82999992370605
1090.4441116,12.9799995422363
1090.4597366,17.7900009155273
1090.4753616,21.2999992370605
1090.4909866,23.8500003814697
1090.5066116,25.7900009155273
1090.5222366,27.3299999237061
1090.5378616,28.5499992370605
1090.5534866,29.5
1090.5691116,30.2199993133545
1090.5847366,30.7600002288818
1090.6003616,31.1000003814697
1090.6159866,31.1900005340576
1090.6316116,30.9500007629395
1090.6472366,30.3999996185303
1090.6628616,29.6299991607666
1090.6784866,28.6900005340576
1090.6941116,27.8199996948242
1090.7097366,27.0900001525879
1090.7253616,26.4699993133545
1090.7409866,25.8299999237061
1090.7566116,24.9799995422363
1090.7722366,23.7600002288818
1090.7878616,22.1299991607666
1090.8034866,20.1599998474121
1090.8191116,17.9099998474121
1090.8347366,15.4099998474121
1090.8503616,12.7700004577637
1090.8659866,10.1999998092651
1090.8816116,8.0600004196167
1090.8972366,6.53000020980835
1090.9128616,5.48000001907349
1090.9284866,4.61999988555908
1090.9441116,3.75999999046326
1090.9597366,2.9300000667572
1090.9753616,2.27999997138977
1090.9909866,1.87999999523163
1091.0066116,1.75999999046326
1091.0222366,1.89999997615814
1091.0378616,2.36999988555908
1091.0534866,3.27999997138977
1091.0691116,4.63000011444092
1091.0847366,6.42000007629395
1091.1003616,8.68000030517578
1091.1159866,11.4700002670288
1091.1316116,14.710000038147
1091.1472366,18.2299995422363
1091.1628616,21.7900009155273
1091.1784866,25.3099994659424
1091.1941116,28.7900009155273
1091.2097366,32.2299995422363
1091.2253616,35.4199981689453
1091.2409866,38.0699996948242
1091.2566116,39.9900016784668
1091.2722366,41.25
1091.2878616,42.0400009155273
1091.3034866,42.560001373291
1091.3191116,42.7999992370605
1091.3347366,42.7000007629395
1091.3503616,42.1800003051758
1091.3659866,41.2999992370605
1091.3816116,40.1199989318848
1091.3972366,38.75
1091.4128616,37.2799987792969
1091.4284866,35.7999992370605
1091.4441116,34.3699989318848
1091.4597366,32.9500007629395
1091.4753616,31.4200000762939
1091.4909866,29.6499996185303
1091.5066116,27.6599998474121
1091.5222366,25.6000003814697
1091.5378616,23.6599998474121
1091.5534866,21.9400005340576
1091.5691116,20.4200000762939
1091.5847366,18.9799995422363
1091.6003616,17.4400005340576
1091.6159866,15.6199998855591
1091.6316116,13.4899997711182
1091.6472366,11.1099996566772
1091.6628616,8.53999996185303
1091.6784866,5.84000015258789
1091.6941116,3.0699999332428
1091.7097366,0.46000000834465
1091.7253616,-1.63999998569489
1091.7409866,-3.03999996185303
1091.7566116,-3.89000010490417
1091.7722366,-4.55999994277954
1091.7878616,-5.32999992370605
1091.8034866,-6.23999977111816
1091.8191116,-7.13000011444092
1091.8347366,-7.86999988555908
1091.8503616,-8.34000015258789
1091.8659866,-8.28999996185303
1091.8816116,-7.26000022888184
1091.8972366,-4.82000017166138
1091.9128616,-0.939999997615814
1091.9284866,4.05999994277954
1091.9441116,9.80000019073486
1091.9597366,15.9499998092651
1091.9753616,22.2299995422363
1091.9909866,28.2299995422363
1092.0066116,33.4300003051758
1092.0222366,37.5
1092.0378616,40.4700012207031
1092.0534866,42.6399993896484
1092.0691116,44.1800003051758
1092.0847366,45.0999984741211
1092.1003616,45.4000015258789
1092.1159866,45.1599998474121
1092.1316116,44.5800018310547
1092.1472366,43.8600006103516
1092.1628616,43.1100006103516
1092.1784866,42.3699989318848
1092.1941116,41.5999984741211
1092.2097366,40.7299995422363
1092.2253616,39.6800003051758
1092.2409866,38.3699989318848
1092.2566116,36.810001373291
1092.2722366,35.0099983215332
1092.2878616,32.939998626709
1092.3034866,30.5100002288818
1092.3191116,27.6499996185303
1092.3347366,24.4099998474121
1092.3503616,21.0100002288818
1092.3659866,17.7099990844727
1092.3816116,14.7200002670288
