Time(s),Value(%)
530.0134825,-10.4300003051758
530.0291075,16.1599998474121
530.0447325,50.4700012207031
530.0603575,85.5500030517578
530.0759825,113.089996337891
530.0916075,128.160003662109
530.1072325,130.970001220703
530.1228575,125.470001220703
530.1384825,116.51000213623
530.1541075,107.400001525879
530.1697325,99.0400009155273
530.1853575,90.620002746582
530.2009825,80.9599990844727
530.2166075,69.4300003051758
530.2322325,56.1599998474121
530.2478575,41.9300003051758
530.2634825,27.6100006103516
530.2791075,13.7200002670288
530.2947325,0.5
530.3103575,-11.7799997329712
530.3259825,-22.9200000762939
530.3416075,-32.9199981689453
530.3572325,-41.9599990844727
530.3728575,-50.2099990844727
530.3884825,-57.8499984741211
530.4041075,-64.9899978637695
530.4197325,-71.5199966430664
530.4353575,-76.9599990844727
530.4509825,-80.9000015258789
530.4666075,-83.4000015258789
530.4822325,-84.6600036621094
530.4978575,-84.6100006103516
530.5134825,-82.9499969482422
530.5291075,-79.6100006103516
530.5447325,-75.2900009155273
530.5603575,-71.120002746582
530.5759825,-67.9100036621094
530.5916075,-65.7799987792969
530.6072325,-64.4199981689453
530.6228575,-63.4799995422363
530.6384825,-62.6800003051758
530.6541075,-61.5699996948242
530.6697325,-59.2999992370605
530.6853575,-55.1399993896484
530.7009825,-49.060001373291
530.7166075,-40.7900009155273
530.7322325,-28.0200004577637
530.7478575,-7.34000015258789
530.7634825,21.8400001525879
530.7791075,54.9599990844727
530.7947325,84.5100021362305
530.8103575,104.199996948242
530.8259825,111.870002746582
530.8416075,109.370002746582
530.8572325,100.809997558594
530.8728575,90.1699981689453
530.8884825,79.8000030517578
530.9041075,70.0899963378906
530.9197325,60.4099998474121
530.9353575,50.189998626709
530.9509825,39.5999984741211
530.9666075,29.5200004577637
530.9822325,21.1200008392334
530.9978575,15.289999961853
531.0134825,12.2200002670288
531.0291075,11.3699998855591
531.0447325,11.6000003814697
531.0603575,11.6999998092651
531.0759825,10.8999996185303
531.0916075,9.03999996185303
531.1072325,6.3600001335144
531.1228575,3.22000002861023
531.1384825,-0.0299999993294477
531.1541075,-3.15000009536743
531.1697325,-6.11999988555908
531.1853575,-9.03999996185303
531.2009825,-12.0900001525879
531.2166075,-15.3299999237061
531.2322325,-18.5499992370605
531.2478575,-21.2900009155273
531.2634825,-22.9799995422363
531.2791075,-23.3600006103516
531.2947325,-22.6900005340576
531.3103575,-21.7900009155273
531.3259825,-21.5300006866455
531.3416075,-22.2999992370605
531.3572325,-23.7800006866455
531.3728575,-24.8999996185303
531.3884825,-23.6299991607666
531.4041075,-16.6100006103516
531.4197325,0.200000002980232
531.4353575,28.7900009155273
531.4509825,66.3399963378906
531.4666075,104.910003662109
531.4822325,134.779998779297
531.4978575,149.529998779297
531.5134825,148.729995727539
531.5291075,136.839996337891
531.5447325,119.980003356934
531.5603575,102.970001220703
531.5759825,87.8300018310547
531.5916075,74.0400009155273
531.6072325,60.0400009155273
531.6228575,44.8899993896484
531.6384825,29.0499992370605
531.6541075,13.8699998855591
531.6697325,0.639999985694885
531.6853575,-10.039999961853
531.7009825,-18.3099994659424
531.7166075,-24.6299991607666
531.7322325,-29.6200008392334
531.7478575,-33.9300003051758
531.7634825,-38.2200012207031
531.7791075,-42.939998626709
531.7947325,-48.2700004577637
531.8103575,-54.1500015258789
531.8259825,-60.3499984741211
531.8416075,-66.5199966430664
531.8572325,-72.3000030517578
531.8728575,-77.4899978637695
531.8884825,-81.9499969482422
531.9041075,-85.5400009155273
531.9197325,-88.1600036621094
531.9353575,-89.9100036621094
531.9509825,-90.9800033569336
531.9666075,-91.4000015258789
531.9822325,-90.9300003051758
531.9978575,-89.2799987792969
532.0134825,-86.4400024414063
532.0291075,-82.629997253418
532.0447325,-78.0199966430664
532.0603575,-72.0999984741211
532.0759825,-62.8199996948242
532.0916075,-46.0699996948242
532.1072325,-17.9699993133545
532.1228575,20.6599998474121
532.1384825,62.7400016784668
532.1541075,98.2699966430664
532.1697325,119.75
532.1853575,125.430000305176
532.2009825,118.889999389648
532.2166075,105.959999084473
532.2322325,91.5500030517578
532.2478575,78.1100006103516
532.2634825,65.870002746582
532.2791075,53.9300003051758
532.2947325,41.2999992370605
532.3103575,27.5599994659424
532.3259825,13.1400003433228
532.3416075,-0.720000028610229
532.3572325,-12.5799999237061
532.3728575,-21.5699996948242
532.3884825,-27.7299995422363
532.4041075,-31.7700004577637
532.4197325,-34.5699996948242
532.4353575,-36.939998626709
532.4509825,-39.4799995422363
532.4666075,-42.4599990844727
532.4822325,-45.8899993896484
532.4978575,-49.7200012207031
532.5134825,-53.8499984741211
532.5291075,-58.0999984741211
532.5447325,-62.2599983215332
532.5603575,-66.1900024414063
532.5759825,-69.7399978637695
532.5916075,-72.5899963378906
532.6072325,-74.370002746582
532.6228575,-74.8399963378906
532.6384825,-73.9400024414063
532.6541075,-71.870002746582
532.6697325,-69.0699996948242
532.6853575,-65.9899978637695
532.7009825,-62.9300003051758
532.7166075,-59.9000015258789
532.7322325,-56.6800003051758
532.7478575,-52.9500007629395
532.7634825,-48.2599983215332
532.7791075,-41.3499984741211
532.7947325,-28.9099998474121
532.8103575,-5.96000003814697
532.8259825,29.5699996948242
532.8416075,72.5299987792969
532.8572325,112.190002441406
532.8728575,138.679992675781
532.8884825,147.979995727539
532.9041075,142.5
532.9197325,128.220001220703
532.9353575,111.209999084473
532.9509825,95.4199981689453
532.9666075,82.0999984741211
532.9822325,70.4899978637695
532.9978575,59.1500015258789
533.0134825,47.0900001525879
533.0291075,34.4000015258789
533.0447325,21.9699993133545
533.0603575,10.9300003051758
533.0759825,2.13000011444092
533.0916075,-4.07000017166138
533.1072325,-7.94999980926514
533.1228575,-10.289999961853
533.1384825,-12.0
533.1541075,-13.8000001907349
533.1697325,-16.0699996948242
533.1853575,-19.0599994659424
533.2009825,-23.0900001525879
533.2166075,-28.2299995422363
533.2322325,-33.9900016784668
533.2478575,-39.5200004577637
533.2634825,-44.1100006103516
533.2791075,-47.5699996948242
533.2947325,-50.0900001525879
533.3103575,-52.0099983215332
533.3259825,-53.5
533.3416075,-54.3699989318848
533.3572325,-54.2999992370605
533.3728575,-53.1699981689453
533.3884825,-51.1399993896484
533.4041075,-48.5
533.4197325,-45.4599990844727
533.4353575,-41.7599983215332
533.4509825,-36.1199989318848
533.4666075,-25.7199993133545
533.4822325,-6.48000001907349
533.4978575,24.2099990844727
533.5134825,63.3899993896484
533.5291075,102.330001831055
533.5447325,131.169998168945
533.5603575,144.179992675781
533.5759825,141.639999389648
533.5916075,128.289993286133
533.6072325,110.160003662109
533.6228575,91.9000015258789
533.6384825,75.6800003051758
533.6541075,61.4199981689453
533.6697325,48.0
533.6853575,34.3800010681152
533.7009825,20.5900001525879
533.7166075,7.6100001335144
533.7322325,-3.39000010490417
533.7478575,-11.7700004577637
533.7634825,-17.4099998474121
533.7791075,-20.6200008392334
533.7947325,-21.9699993133545
533.8103575,-22.1100006103516
533.8259825,-21.5799999237061
533.8416075,-20.7900009155273
533.8572325,-20.2399997711182
533.8728575,-20.5
533.8884825,-22.0400009155273
533.9041075,-25.1800003051758
533.9197325,-29.9200000762939
533.9353575,-35.8800010681152
533.9509825,-42.4099998474121
533.9666075,-48.9300003051758
533.9822325,-54.9300003051758
533.9978575,-59.9300003051758
534.0134825,-63.5299987792969
534.0291075,-65.5
534.0447325,-65.8499984741211
534.0603575,-64.8899993896484
534.0759825,-63.1100006103516
534.0916075,-60.810001373291
534.1072325,-57.9000015258789
534.1228575,-53.810001373291
534.1384825,-47.189998626709
534.1541075,-35.310001373291
534.1697325,-14.2299995422363
534.1853575,18.3099994659424
534.2009825,58.4099998474121
534.2166075,96.6399993896484
534.2322325,124.180000305176
534.2478575,137.179992675781
534.2634825,136.649993896484
534.2791075,126.569999694824
534.2947325,111.769996643066
534.3103575,96.0400009155273
534.3259825,81.120002746582
534.3416075,66.8899993896484
534.3572325,52.3899993896484
534.3728575,37.0200004577637
534.3884825,21.0200004577637
534.4041075,5.3899998664856
534.4197325,-8.47999954223633
534.4353575,-19.4599990844727
534.4509825,-27.1399993896484
534.4666075,-31.8299999237061
534.4822325,-34.1599998474121
534.4978575,-34.8499984741211
534.5134825,-34.6399993896484
534.5291075,-34.2599983215332
534.5447325,-34.2700004577637
534.5603575,-35.0999984741211
534.5759825,-37.0299987792969
534.5916075,-40.2900009155273
534.6072325,-44.810001373291
534.6228575,-49.9799995422363
534.6384825,-54.9300003051758
534.6541075,-58.9799995422363
534.6697325,-61.8899993896484
534.6853575,-63.6199989318848
534.7009825,-64.2600021362305
534.7166075,-64.0400009155273
534.7322325,-63.3600006103516
534.7478575,-62.5200004577637
534.7634825,-61.4900016784668
534.7791075,-59.939998626709
534.7947325,-57.0800018310547
534.8103575,-51.2599983215332
534.8259825,-39.0299987792969
534.8416075,-15.8699998855591
534.8572325,19.6599998474121
534.8728575,61.939998626709
534.8884825,100.190002441406
534.9041075,124.730003356934
534.9197325,131.779998779297
534.9353575,124.040000915527
534.9509825,107.900001525879
534.9666075,89.6600036621094
534.9822325,73.0199966430664
534.9978575,58.6300010681152
535.0134825,45.3499984741211
535.0291075,31.9099998474121
535.0447325,17.8999996185303
535.0603575,3.86999988555908
535.0759825,-9.06999969482422
535.0916075,-19.8899993896484
535.1072325,-27.9799995422363
535.1228575,-33.1599998474121
535.1384825,-35.7000007629395
535.1541075,-36.2799987792969
535.1697325,-35.7900009155273
535.1853575,-35.1800003051758
535.2009825,-35.1800003051758
535.2166075,-36.310001373291
535.2322325,-38.8699989318848
535.2478575,-42.689998626709
535.2634825,-47.1199989318848
535.2791075,-51.2700004577637
535.2947325,-54.4599990844727
535.3103575,-56.4599990844727
535.3259825,-57.5299987792969
535.3416075,-58.1300010681152
535.3572325,-58.5299987792969
535.3728575,-58.5699996948242
535.3884825,-57.9099998474121
535.4041075,-56.4099998474121
535.4197325,-54.0400009155273
535.4353575,-50.4599990844727
535.4509825,-44.5900001525879
535.4666075,-33.6500015258789
535.4822325,-13.0500001907349
535.4978575,20.1200008392334
535.5134825,62.4000015258789
535.5291075,104.089996337891
535.5447325,134.570007324219
535.5603575,147.800003051758
535.5759825,144.380004882813
535.5916075,129.710006713867
535.6072325,110.470001220703
535.6228575,91.7300033569336
535.6384825,75.7200012207031
535.6541075,62.1699981689453
535.6697325,49.5699996948242
535.6853575,36.560001373291
535.7009825,22.7099990844727
535.7166075,8.77999973297119
535.7322325,-3.84999990463257
535.7478575,-13.8800001144409
535.7634825,-20.6399993896484
535.7791075,-24.3099994659424
535.7947325,-25.6900005340576
535.8103575,-25.8600006103516
535.8259825,-25.7600002288818
535.8416075,-26.1100006103516
535.8572325,-27.3500003814697
535.8728575,-29.5499992370605
535.8884825,-32.5299987792969
535.9041075,-36.060001373291
535.9197325,-39.939998626709
535.9353575,-43.9199981689453
535.9509825,-47.7000007629395
535.9666075,-50.9700012207031
535.9822325,-53.5299987792969
535.9978575,-55.3400001525879
536.0134825,-56.3600006103516
536.0291075,-56.560001373291
536.0447325,-55.9199981689453
536.0603575,-54.5099983215332
536.0759825,-52.3899993896484
536.0916075,-49.3400001525879
536.1072325,-44.1699981689453
536.1228575,-34.0
536.1384825,-14.7600002288818
536.1541075,16.0300006866455
536.1697325,56.0099983215332
536.1853575,97.0699996948242
536.2009825,128.910003662109
536.2166075,144.460006713867
536.2322325,142.940002441406
536.2478575,128.929992675781
536.2634825,109.190002441406
536.2791075,89.379997253418
536.2947325,72.3000030517578
536.3103575,57.9099998474121
536.3259825,44.6699981689453
536.3416075,31.0400009155273
536.3572325,16.5
536.3728575,1.87999999523163
536.3884825,-11.1800003051758
536.4041075,-21.2299995422363
536.4197325,-27.5599994659424
536.4353575,-30.5799999237061
536.4509825,-31.4300003051758
536.4666075,-31.4099998474121
536.4822325,-31.5599994659424
536.4978575,-32.4700012207031
536.5134825,-34.2099990844727
536.5291075,-36.6100006103516
536.5447325,-39.4599990844727
536.5603575,-42.6599998474121
536.5759825,-46.2099990844727
536.5916075,-50.1199989318848
536.6072325,-54.1599998474121
536.6228575,-57.7700004577637
536.6384825,-60.3699989318848
536.6541075,-61.7099990844727
536.6697325,-61.9000015258789
536.6853575,-61.2900009155273
536.7009825,-60.2700004577637
536.7166075,-59.1399993896484
536.7322325,-57.939998626709
536.7478575,-56.2000007629395
536.7634825,-52.5499992370605
536.7791075,-44.3800010681152
536.7947325,-27.7999992370605
536.8103575,0.400000005960464
536.8259825,38.9700012207031
536.8416075,80.7200012207031
536.8572325,115.480003356934
536.8728575,135.169998168945
536.8884825,137.490005493164
536.9041075,125.919998168945
536.9197325,106.900001525879
536.9353575,86.4700012207031
536.9509825,68.2300033569336
536.9666075,52.9300003051758
536.9822325,39.7200012207031
536.9978575,27.4200000762939
537.0134825,15.289999961853
537.0291075,3.15000009536743
537.0447325,-8.52999973297119
537.0603575,-18.7399997711182
537.0759825,-26.3799991607666
537.0916075,-30.9400005340576
537.1072325,-32.7000007629395
537.1228575,-32.5400009155273
537.1384825,-31.5400009155273
537.1541075,-30.7299995422363
537.1697325,-30.7700004577637
537.1853575,-31.8400001525879
537.2009825,-33.9000015258789
537.2166075,-36.8199996948242
537.2322325,-40.4300003051758
537.2478575,-44.4099998474121
537.2634825,-48.2900009155273
537.2791075,-51.4900016784668
537.2947325,-53.5499992370605
537.3103575,-54.3300018310547
537.3259825,-53.9500007629395
537.3416075,-52.7700004577637
537.3572325,-51.2700004577637
537.3728575,-49.8199996948242
537.3884825,-48.4799995422363
537.4041075,-46.9500007629395
537.4197325,-44.5
537.4353575,-39.6599998474121
537.4509825,-29.5699996948242
537.4666075,-11.1700000762939
537.4822325,15.8100004196167
537.4978575,47.9500007629395
537.5134825,80.5299987792969
537.5291075,108.870002746582
537.5447325,128.419998168945
537.5603575,136.25
537.5759825,132.619995117188
537.5916075,120.569999694824
537.6072325,104.129997253418
537.6228575,86.6500015258789
537.6384825,69.9800033569336
537.6541075,54.5
537.6697325,39.7999992370605
537.6853575,25.3999996185303
537.7009825,11.210000038147
537.7166075,-2.16000008583069
537.7322325,-13.6899995803833
537.7478575,-22.3799991607666
537.7634825,-27.7999992370605
537.7791075,-30.2600002288818
537.7947325,-30.7700004577637
537.8103575,-30.5400009155273
537.8259825,-30.5900001525879
537.8416075,-31.4500007629395
537.8572325,-33.2900009155273
537.8728575,-36.0999984741211
537.8884825,-39.7400016784668
537.9041075,-43.8199996948242
537.9197325,-47.8300018310547
537.9353575,-51.3699989318848
537.9509825,-54.2400016784668
537.9666075,-56.3400001525879
537.9822325,-57.5900001525879
537.9978575,-58.0499992370605
538.0134825,-57.939998626709
538.0291075,-57.4300003051758
538.0447325,-56.439998626709
538.0603575,-54.7299995422363
538.0759825,-51.9199981689453
538.0916075,-46.8800010681152
538.1072325,-36.560001373291
538.1228575,-16.1499996185303
538.1384825,17.0499992370605
538.1541075,59.0
538.1697325,99.5699996948242
538.1853575,128.220001220703
538.2009825,139.550003051758
538.2166075,134.800003051758
538.2322325,119.660003662109
538.2478575,100.660003662109
538.2634825,82.4300003051758
538.2791075,66.7200012207031
538.2947325,53.0400009155273
538.3103575,39.939998626709
538.3259825,26.3299999237061
538.3416075,12.1000003814697
538.3572325,-1.95000004768372
538.3728575,-14.6199998855591
538.3884825,-24.7700004577637
538.4041075,-31.6700000762939
538.4197325,-35.2799987792969
538.4353575,-36.3699989318848
538.4509825,-36.2000007629395
538.4666075,-35.9900016784668
538.4822325,-36.560001373291
538.4978575,-38.1599998474121
538.5134825,-40.7400016784668
538.5291075,-44.1800003051758
538.5447325,-48.310001373291
538.5603575,-52.7700004577637
538.5759825,-57.0200004577637
538.5916075,-60.5699996948242
538.6072325,-63.1399993896484
538.6228575,-64.8499984741211
538.6384825,-65.9599990844727
538.6541075,-66.5699996948242
538.6697325,-66.5599975585938
538.6853575,-65.6999969482422
538.7009825,-63.8800010681152
538.7166075,-60.9099998474121
538.7322325,-56.0099983215332
538.7478575,-46.6800003051758
538.7634825,-28.2099990844727
538.7791075,3.1800000667572
538.7947325,45.4199981689453
538.8103575,89.6800003051758
538.8259825,124.930000305176
538.8416075,143.729995727539
538.8572325,145.089996337891
538.8728575,133.509994506836
538.8884825,115.559997558594
538.9041075,96.6800003051758
538.9197325,79.6399993896484
538.9353575,64.7399978637695
538.9509825,50.9900016784668
538.9666075,37.3800010681152
538.9822325,23.6399993896484
538.9978575,10.2200002670288
539.0134825,-1.9099999666214
539.0291075,-11.75
539.0447325,-18.5599994659424
539.0603575,-22.2199993133545
539.0759825,-23.3999996185303
539.0916075,-23.3199996948242
539.1072325,-23.3400001525879
539.1228575,-24.6299991607666
539.1384825,-27.7199993133545
539.1541075,-32.3800010681152
539.1697325,-37.9199981689453
539.1853575,-43.6199989318848
539.2009825,-48.939998626709
539.2166075,-53.5499992370605
539.2322325,-57.2000007629395
539.2478575,-59.6399993896484
539.2634825,-60.8400001525879
539.2791075,-61.0299987792969
539.2947325,-60.3899993896484
539.3103575,-58.8899993896484
539.3259825,-56.5499992370605
539.3416075,-53.6699981689453
539.3572325,-50.7299995422363
539.3728575,-48.0
539.3884825,-44.8400001525879
539.4041075,-39.0499992370605
539.4197325,-26.9799995422363
539.4353575,-5.07000017166138
539.4509825,27.2600002288818
539.4666075,65.3499984741211
539.4822325,100.470001220703
539.4978575,124.51000213623
539.5134825,133.929992675781
539.5291075,130.339996337891
539.5447325,118.389999389648
539.5603575,102.940002441406
539.5759825,87.3000030517578
539.5916075,72.6699981689453
539.6072325,58.6300010681152
539.6228575,44.2099990844727
539.6384825,28.9899997711182
539.6541075,13.5799999237061
539.6697325,-0.639999985694885
539.6853575,-12.1800003051758
539.7009825,-20.1299991607666
539.7166075,-24.5
539.7322325,-26.1299991607666
539.7478575,-26.2900009155273
539.7634825,-26.1900005340576
539.7791075,-26.7000007629395
539.7947325,-28.3299999237061
539.8103575,-31.2700004577637
539.8259825,-35.5299987792969
539.8416075,-40.7900009155273
539.8572325,-46.5299987792969
539.8728575,-52.2900009155273
539.8884825,-57.7200012207031
539.9041075,-62.4500007629395
539.9197325,-66.129997253418
539.9353575,-68.4800033569336
539.9509825,-69.3600006103516
539.9666075,-68.8099975585938
539.9822325,-67.0800018310547
539.9978575,-64.6900024414063
540.0134825,-62.310001373291
540.0291075,-60.1300010681152
540.0447325,-57.0400009155273
540.0603575,-50.25
540.0759825,-35.5400009155273
540.0916075,-9.03999996185303
540.1072325,29.3099994659424
540.1228575,73.879997253418
540.1384825,115.110000610352
540.1541075,143.960006713867
540.1697325,156.080001831055
540.1853575,152.979995727539
540.2009825,139.889999389648
540.2166075,122.650001525879
540.2322325,105.269996643066
540.2478575,89.2900009155273
540.2634825,74.4400024414063
540.2791075,59.8699989318848
540.2947325,44.8699989318848
540.3103575,29.2099990844727
540.3259825,13.3699998855591
540.3416075,-1.57000005245209
540.3572325,-14.4899997711182
540.3728575,-24.7399997711182
540.3884825,-32.310001373291
540.4041075,-37.6399993896484
540.4197325,-41.3199996948242
540.4353575,-43.9000015258789
540.4509825,-45.810001373291
540.4666075,-47.3899993896484
540.4822325,-49.0699996948242
540.4978575,-51.25
540.5134825,-54.1100006103516
540.5291075,-57.6300010681152
540.5447325,-61.560001373291
540.5603575,-65.2200012207031
540.5759825,-67.4300003051758
540.5916075,-66.9300003051758
540.6072325,-63.1300010681152
540.6228575,-56.5400009155273
540.6384825,-48.5699996948242
540.6541075,-41.1399993896484
540.6697325,-36.3300018310547
