Time(s),Value(%)
623.0150509,-1.55999994277954
623.0306759,-3.27999997138977
623.0463009,-4.82000017166138
623.0619259,-5.94999980926514
623.0775509,-6.44000005722046
623.0931759,-5.78000020980835
623.1088009,-3.25999999046326
623.1244259,1.3400000333786
623.1400509,7.48000001907349
623.1556759,14.1599998474121
623.1713009,20.3999996185303
623.1869259,25.2299995422363
623.2025509,27.8899993896484
623.2181759,28.1800003051758
623.2338009,26.5200004577637
623.2494259,23.6399993896484
623.2650509,20.1599998474121
623.2806759,16.5300006866455
623.2963009,13.1199998855591
623.3119259,10.210000038147
623.3275509,7.88000011444092
623.3431759,6.05999994277954
623.3588009,4.59000015258789
623.3744259,3.39000010490417
623.3900509,2.32999992370605
623.4056759,1.30999994277954
623.4213009,0.28999999165535
623.4369259,-0.740000009536743
623.4525509,-1.87000000476837
623.4681759,-3.09999990463257
623.4838009,-4.36999988555908
623.4994259,-5.65999984741211
623.5150509,-7.05000019073486
623.5306759,-8.56999969482422
623.5463009,-10.0600004196167
623.5619259,-11.3000001907349
623.5775509,-12.1800003051758
623.5931759,-12.7299995422363
623.6088009,-13.0
623.6244259,-12.7299995422363
623.6400509,-11.1499996185303
623.6556759,-7.19000005722046
623.6713009,-0.569999992847443
623.6869259,7.51999998092651
623.7025509,14.9399995803833
623.7181759,19.7800006866455
623.7338009,21.2299995422363
623.7494259,19.7399997711182
623.7650509,16.4400005340576
623.7806759,12.5200004577637
623.7963009,8.73999977111816
623.8119259,5.3600001335144
623.8275509,2.33999991416931
623.8431759,-0.340000003576279
623.8588009,-2.73000001907349
623.8744259,-4.84000015258789
623.8900509,-6.6399998664856
623.9056759,-8.09000015258789
623.9213009,-9.14000034332275
623.9369259,-9.85999965667725
623.9525509,-10.3299999237061
623.9681759,-10.6499996185303
623.9838009,-10.8999996185303
623.9994259,-11.3000001907349
624.0150509,-12.0200004577637
624.0306759,-13.0500001907349
624.0463009,-14.1599998474121
624.0619259,-15.1400003433228
624.0775509,-15.8400001525879
624.0931759,-16.25
624.1088009,-16.4099998474121
624.1244259,-16.4099998474121
624.1400509,-16.2800006866455
624.1556759,-15.9899997711182
624.1713009,-15.2600002288818
624.1869259,-13.3199996948242
624.2025509,-9.30000019073486
624.2181759,-3.09999990463257
624.2338009,4.21000003814697
624.2494259,10.7299995422363
624.2650509,14.4799995422363
624.2806759,14.3999996185303
624.2963009,10.9700002670288
624.3119259,5.84000015258789
624.3275509,0.850000023841858
624.3431759,-2.80999994277954
624.3588009,-5.0
624.3744259,-6.26000022888184
624.3900509,-7.26999998092651
624.4056759,-8.4399995803833
624.4213009,-9.76000022888184
624.4369259,-10.8699998855591
624.4525509,-11.3299999237061
624.4681759,-10.9499998092651
624.4838009,-9.9399995803833
624.4994259,-8.72000026702881
624.5150509,-7.65000009536743
624.5306759,-6.90999984741211
624.5463009,-6.51000022888184
624.5619259,-6.34999990463257
624.5775509,-6.32000017166138
624.5931759,-6.32000017166138
624.6088009,-6.36999988555908
624.6244259,-6.53000020980835
624.6400509,-6.78000020980835
624.6556759,-7.15000009536743
624.6713009,-7.61999988555908
624.6869259,-8.10000038146973
624.7025509,-8.30000019073486
624.7181759,-7.82999992370605
624.7338009,-6.19999980926514
624.7494259,-2.77999997138977
624.7650509,2.75999999046326
624.7806759,9.85999965667725
624.7963009,16.7700004577637
624.8119259,21.5200004577637
624.8275509,23.0300006866455
624.8431759,21.4400005340576
624.8588009,17.7999992370605
624.8744259,13.4300003051758
624.8900509,9.40999984741211
624.9056759,6.17000007629395
624.9213009,3.50999999046326
624.9369259,1.12999999523163
624.9525509,-1.05999994277954
624.9681759,-2.95000004768372
624.9838009,-4.3899998664856
624.9994259,-5.25
625.0150509,-5.48999977111816
625.0306759,-5.17999982833862
625.0463009,-4.63000011444092
625.0619259,-4.23999977111816
625.0775509,-4.30999994277954
625.0931759,-4.82000017166138
625.1088009,-5.6100001335144
625.1244259,-6.42999982833862
625.1400509,-7.09000015258789
625.1556759,-7.48000001907349
625.1713009,-7.55999994277954
625.1869259,-7.3899998664856
625.2025509,-7.07000017166138
625.2181759,-6.73000001907349
625.2338009,-6.46000003814697
625.2494259,-6.23000001907349
625.2650509,-5.69000005722046
625.2806759,-4.1399998664856
625.2963009,-0.730000019073486
625.3119259,4.88000011444092
625.3275509,12.0799999237061
625.3431759,19.25
625.3588009,24.5200004577637
625.3744259,26.6700000762939
625.3900509,25.6200008392334
625.4056759,22.3299999237061
625.4213009,18.1800003051758
625.4369259,14.2600002288818
625.4525509,11.0299997329712
625.4681759,8.46000003814697
625.4838009,6.30999994277954
625.4994259,4.44000005722046
625.5150509,2.85999989509583
625.5306759,1.62999999523163
625.5463009,0.779999971389771
625.5619259,0.319999992847443
625.5775509,0.170000001788139
625.5931759,0.159999996423721
625.6088009,0.109999999403954
625.6244259,-0.100000001490116
625.6400509,-0.529999971389771
625.6556759,-1.16999995708466
625.6713009,-1.95000004768372
625.6869259,-2.80999994277954
625.7025509,-3.67000007629395
625.7181759,-4.48999977111816
625.7338009,-5.23000001907349
625.7494259,-5.82000017166138
625.7650509,-6.32000017166138
625.7806759,-6.84999990463257
625.7963009,-7.40000009536743
625.8119259,-7.53000020980835
625.8275509,-6.23000001907349
625.8431759,-2.45000004768372
625.8588009,3.83999991416931
625.8744259,11.3000001907349
625.8900509,17.7800006866455
625.9056759,21.5200004577637
625.9213009,21.8700008392334
625.9369259,19.3500003814697
625.9525509,15.1599998474121
625.9681759,10.6400003433228
625.9838009,6.71000003814697
625.9994259,3.72000002861023
626.0150509,1.5
626.0306759,-0.370000004768372
626.0463009,-2.25999999046326
626.0619259,-4.15999984741211
626.0775509,-5.82999992370605
626.0931759,-7.01000022888184
626.1088009,-7.59999990463257
626.1244259,-7.69000005722046
626.1400509,-7.53000020980835
626.1556759,-7.32999992370605
626.1713009,-7.21999979019165
626.1869259,-7.26000022888184
626.2025509,-7.51000022888184
626.2181759,-7.98000001907349
626.2338009,-8.61999988555908
626.2494259,-9.43000030517578
626.2650509,-10.3800001144409
626.2806759,-11.4499998092651
626.2963009,-12.460000038147
626.3119259,-13.2200002670288
626.3275509,-13.6599998474121
626.3431759,-13.8800001144409
626.3588009,-13.8900003433228
626.3744259,-13.2399997711182
626.3900509,-11.1199998855591
626.4056759,-7.15000009536743
626.4213009,-1.70000004768372
626.4369259,4.46000003814697
626.4525509,10.3599996566772
626.4681759,14.8199996948242
626.4838009,16.9099998474121
626.4994259,16.4899997711182
626.5150509,14.1700000762939
626.5306759,10.9399995803833
626.5463009,7.6399998664856
626.5619259,4.75
626.5775509,2.33999991416931
626.5931759,0.170000001788139
626.6088009,-1.91999995708466
626.6244259,-3.89000010490417
626.6400509,-5.5
626.6556759,-6.51999998092651
626.6713009,-6.96000003814697
626.6869259,-7.05000019073486
626.7025509,-7.01000022888184
626.7181759,-6.94999980926514
626.7338009,-6.92000007629395
626.7494259,-6.98000001907349
626.7650509,-7.17000007629395
626.7806759,-7.48999977111816
626.7963009,-8.01000022888184
626.8119259,-8.6899995803833
626.8275509,-9.39000034332275
626.8431759,-9.9399995803833
626.8588009,-10.2399997711182
626.8744259,-10.3000001907349
626.8900509,-10.1400003433228
626.9056759,-9.76000022888184
626.9213009,-9.15999984741211
626.9369259,-8.07999992370605
626.9525509,-5.86999988555908
626.9681759,-1.75
626.9838009,4.48999977111816
626.9994259,11.9099998474121
627.0150509,18.6100006103516
627.0306759,22.7600002288818
627.0463009,23.4599990844727
627.0619259,21.1200008392334
627.0775509,17.0200004577637
627.0931759,12.6400003433228
627.1088009,8.97000026702881
627.1244259,6.21999979019165
627.1400509,4.05999994277954
627.1556759,2.09999990463257
627.1713009,0.230000004172325
627.1869259,-1.30999994277954
627.2025509,-2.26999998092651
627.2181759,-2.61999988555908
627.2338009,-2.54999995231628
627.2494259,-2.34999990463257
627.2650509,-2.25999999046326
627.2806759,-2.39000010490417
627.2963009,-2.76999998092651
627.3119259,-3.32999992370605
627.3275509,-3.94000005722046
627.3431759,-4.42000007629395
627.3588009,-4.67000007629395
627.3744259,-4.73000001907349
627.3900509,-4.78999996185303
627.4056759,-5.05999994277954
627.4213009,-5.6399998664856
627.4369259,-6.5
627.4525509,-7.48000001907349
627.4681759,-8.30000019073486
627.4838009,-8.59000015258789
627.4994259,-7.78000020980835
627.5150509,-5.17999982833862
627.5306759,-0.319999992847443
627.5463009,6.48000001907349
627.5619259,13.8999996185303
627.5775509,19.9599990844727
627.5931759,22.9899997711182
627.6088009,22.5300006866455
627.6244259,19.3199996948242
627.6400509,14.8199996948242
627.6556759,10.3999996185303
627.6713009,6.84999990463257
627.6869259,4.15000009536743
627.7025509,1.87999999523163
627.7181759,-0.239999994635582
627.7338009,-2.1800000667572
627.7494259,-3.67000007629395
627.7650509,-4.42000007629395
627.7806759,-4.36999988555908
627.7963009,-3.72000002861023
627.8119259,-2.77999997138977
627.8275509,-1.88999998569489
627.8431759,-1.29999995231628
627.8588009,-1.17999994754791
627.8744259,-1.5900000333786
627.8900509,-2.48000001907349
627.9056759,-3.64000010490417
627.9213009,-4.76999998092651
627.9369259,-5.69999980926514
627.9525509,-6.51000022888184
627.9681759,-7.32000017166138
627.9838009,-8.17000007629395
627.9994259,-8.92000007629395
628.0150509,-9.39999961853027
628.0306759,-9.27000045776367
628.0463009,-7.92999982833862
628.0619259,-4.71000003814697
628.0775509,0.519999980926514
628.0931759,6.98000001907349
628.1088009,13.0799999237061
628.1244259,17.1299991607666
628.1400509,18.1900005340576
628.1556759,16.4500007629395
628.1713009,12.9899997711182
628.1869259,8.9399995803833
628.2025509,5.1399998664856
628.2181759,1.95000004768372
628.2338009,-0.689999997615814
628.2494259,-3.07999992370605
628.2650509,-5.34000015258789
628.2806759,-7.28999996185303
628.2963009,-8.61999988555908
628.3119259,-9.10999965667725
628.3275509,-8.8100004196167
628.3431759,-8.03999996185303
628.3588009,-7.25
628.3744259,-6.78999996185303
628.3900509,-6.65999984741211
628.4056759,-6.61999988555908
628.4213009,-6.44999980926514
628.4369259,-6.15999984741211
628.4525509,-5.86999988555908
628.4681759,-5.6399998664856
628.4838009,-5.46999979019165
628.4994259,-5.42999982833862
628.5150509,-5.65999984741211
628.5306759,-6.23999977111816
628.5463009,-7.1100001335144
628.5619259,-8.03999996185303
628.5775509,-8.67000007629395
628.5931759,-8.52000045776367
628.6088009,-6.96999979019165
628.6244259,-3.76999998092651
628.6400509,0.5
628.6556759,4.53999996185303
628.6713009,6.82999992370605
628.6869259,6.25
628.7025509,2.5
628.7181759,-3.70000004768372
628.7338009,-11.0200004577637
628.7494259,-17.7800006866455
628.7650509,-22.6000003814697
628.7806759,-25.1599998474121
628.7963009,-26.1000003814697
628.8119259,-25.8700008392334
628.8275509,-24.3899993896484
628.8431759,-21.9099998474121
628.8588009,-19.2299995422363
628.8744259,-16.8700008392334
628.8900509,-14.6400003433228
628.9056759,-11.9499998092651
628.9213009,-8.46000003814697
628.9369259,-4.3600001335144
628.9525509,-0.419999986886978
628.9681759,2.5
628.9838009,4.01999998092651
628.9994259,4.51000022888184
629.0150509,4.75
629.0306759,5.48999977111816
629.0463009,6.92000007629395
629.0619259,8.72999954223633
629.0775509,10.3800001144409
629.0931759,11.5299997329712
629.1088009,12.2799997329712
629.1244259,13.1400003433228
629.1400509,15.0799999237061
629.1556759,19.2199993133545
629.1713009,26.0900001525879
629.1869259,34.9099998474121
629.2025509,43.6100006103516
629.2181759,49.8199996948242
629.2338009,52.0900001525879
629.2494259,50.5800018310547
629.2650509,46.6699981689453
629.2806759,42.2000007629395
629.2963009,38.5400009155273
629.3119259,36.0699996948242
629.3275509,34.1199989318848
629.3431759,31.7199993133545
629.3588009,28.3999996185303
629.3744259,24.3999996185303
629.3900509,20.4200000762939
629.4056759,17.1700000762939
629.4213009,15.1400003433228
629.4369259,14.3599996566772
629.4525509,14.3400001525879
629.4681759,14.2799997329712
629.4838009,13.6000003814697
629.4994259,12.1599998474121
629.5150509,10.1800003051758
629.5306759,7.92000007629395
629.5463009,5.59999990463257
629.5619259,3.34999990463257
629.5775509,1.23000001907349
629.5931759,-0.790000021457672
629.6088009,-2.76999998092651
629.6244259,-4.69999980926514
629.6400509,-6.57999992370605
629.6556759,-8.43000030517578
629.6713009,-10.2299995422363
629.6869259,-11.6800003051758
629.7025509,-12.1800003051758
629.7181759,-10.9899997711182
629.7338009,-7.65999984741211
629.7494259,-2.54999995231628
629.7650509,2.98000001907349
629.7806759,7.19999980926514
629.7963009,8.85000038146973
629.8119259,7.76000022888184
629.8275509,4.6100001335144
629.8431759,0.469999998807907
629.8588009,-3.66000008583069
629.8744259,-7.19999980926514
629.8900509,-10.0
629.9056759,-12.25
629.9213009,-14.1499996185303
629.9369259,-15.75
629.9525509,-16.8999996185303
629.9681759,-17.5
629.9838009,-17.6000003814697
629.9994259,-17.3999996185303
630.0150509,-17.1499996185303
630.0306759,-17.0599994659424
630.0463009,-17.2099990844727
630.0619259,-17.6100006103516
630.0775509,-18.25
630.0931759,-19.0900001525879
630.1088009,-19.9400005340576
630.1244259,-20.6299991607666
630.1400509,-21.1100006103516
630.1556759,-21.4899997711182
630.1713009,-21.8199996948242
630.1869259,-22.0200004577637
630.2025509,-22.0
630.2181759,-21.7299995422363
630.2338009,-21.1299991607666
630.2494259,-19.8500003814697
630.2650509,-17.2900009155273
630.2806759,-12.9099998474121
630.2963009,-6.78000020980835
630.3119259,0.140000000596046
630.3275509,6.28000020980835
630.3431759,10.210000038147
630.3588009,11.289999961853
630.3744259,9.84000015258789
630.3900509,6.90000009536743
630.4056759,3.72000002861023
630.4213009,1.11000001430511
630.4369259,-0.740000009536743
630.4525509,-2.14000010490417
630.4681759,-3.40000009536743
630.4838009,-4.57000017166138
630.4994259,-5.42999982833862
630.5150509,-5.75
630.5306759,-5.53999996185303
630.5463009,-5.01999998092651
630.5619259,-4.46000003814697
630.5775509,-4.07999992370605
630.5931759,-4.01000022888184
630.6088009,-4.26000022888184
630.6244259,-4.75
630.6400509,-5.32000017166138
630.6556759,-5.78000020980835
630.6713009,-6.01000022888184
630.6869259,-6.05999994277954
630.7025509,-6.03999996185303
630.7181759,-6.1100001335144
630.7338009,-6.34000015258789
630.7494259,-6.59000015258789
630.7650509,-6.55000019073486
630.7806759,-5.82000017166138
630.7963009,-3.84999990463257
630.8119259,0.0199999995529652
630.8275509,5.98999977111816
630.8431759,13.1499996185303
630.8588009,19.6100006103516
630.8744259,23.5699996948242
630.8900509,24.2999992370605
630.9056759,22.2600002288818
630.9213009,18.6200008392334
630.9369259,14.5799999237061
630.9525509,11.0100002288818
630.9681759,8.23999977111816
630.9838009,6.1100001335144
630.9994259,4.25
631.0150509,2.45000004768372
631.0306759,0.779999971389771
631.0463009,-0.610000014305115
631.0619259,-1.6599999666214
631.0775509,-2.36999988555908
631.0931759,-2.79999995231628
631.1088009,-3.02999997138977
631.1244259,-3.22000002861023
631.1400509,-3.58999991416931
631.1556759,-4.23999977111816
631.1713009,-5.11999988555908
631.1869259,-6.03000020980835
631.2025509,-6.82999992370605
631.2181759,-7.40999984741211
631.2338009,-7.82000017166138
631.2494259,-8.21000003814697
631.2650509,-8.64999961853027
631.2806759,-9.13000011444092
631.2963009,-9.51000022888184
631.3119259,-9.4399995803833
631.3275509,-8.26000022888184
631.3431759,-5.17000007629395
631.3588009,0.170000001788139
631.3744259,7.09999990463257
631.3900509,13.9799995422363
631.4056759,18.9500007629395
631.4213009,20.8799991607666
631.4369259,19.7299995422363
631.4525509,16.4500007629395
631.4681759,12.3400001525879
631.4838009,8.52000045776367
631.4994259,5.53999996185303
631.5150509,3.34999990463257
631.5306759,1.48000001907349
631.5463009,-0.519999980926514
631.5619259,-2.78999996185303
631.5775509,-5.03000020980835
631.5931759,-6.76000022888184
631.6088009,-7.69000005722046
631.6244259,-7.84999990463257
631.6400509,-7.44999980926514
631.6556759,-6.86999988555908
631.6713009,-6.5
631.6869259,-6.57999992370605
631.7025509,-7.07000017166138
631.7181759,-7.78999996185303
631.7338009,-8.60000038146973
631.7494259,-9.36999988555908
631.7650509,-9.98999977111816
631.7806759,-10.4300003051758
631.7963009,-10.7600002288818
631.8119259,-11.0299997329712
631.8275509,-11.2700004577637
631.8431759,-11.5
631.8588009,-11.4899997711182
631.8744259,-10.5699996948242
631.8900509,-7.76000022888184
631.9056759,-2.48000001907349
631.9213009,4.73000001907349
631.9369259,12.3400001525879
631.9525509,18.4599990844727
631.9681759,21.75
631.9838009,21.8999996185303
631.9994259,19.6100006103516
632.0150509,15.9799995422363
632.0306759,12.0
632.0463009,8.27999973297119
632.0619259,5.09999990463257
632.0775509,2.51999998092651
632.0931759,0.589999973773956
632.1088009,-0.579999983310699
632.1244259,-0.870000004768372
632.1400509,-0.389999985694885
632.1556759,0.379999995231628
632.1713009,0.810000002384186
632.1869259,0.449999988079071
632.2025509,-0.660000026226044
632.2181759,-1.98000001907349
632.2338009,-2.8199999332428
632.2494259,-2.9300000667572
632.2650509,-2.63000011444092
632.2806759,-2.58999991416931
632.2963009,-3.32999992370605
632.3119259,-4.96000003814697
632.3275509,-7.11999988555908
632.3431759,-9.17000007629395
632.3588009,-10.4700002670288
632.3744259,-10.7200002670288
632.3900509,-9.97000026702881
632.4056759,-8.46000003814697
632.4213009,-6.23000001907349
632.4369259,-3.19000005722046
632.4525509,0.649999976158142
632.4681759,4.78999996185303
632.4838009,8.17000007629395
632.4994259,9.72000026702881
632.5150509,8.88000011444092
632.5306759,5.8899998664856
632.5463009,1.49000000953674
632.5619259,-3.58999991416931
632.5775509,-9.02000045776367
632.5931759,-14.6199998855591
632.6088009,-19.9599990844727
632.6244259,-24.3199996948242
632.6400509,-26.8700008392334
632.6556759,-27.1000003814697
632.6713009,-25.0599994659424
632.6869259,-21.1900005340576
632.7025509,-16.0499992370605
632.7181759,-10.2200002670288
632.7338009,-4.36999988555908
632.7494259,0.819999992847443
632.7650509,4.8600001335144
632.7806759,7.51999998092651
632.7963009,9.07999992370605
632.8119259,10.1300001144409
632.8275509,11.1099996566772
632.8431759,11.9899997711182
632.8588009,12.4799995422363
632.8744259,12.3299999237061
632.8900509,11.6099996566772
632.9056759,10.5200004577637
632.9213009,9.38000011444092
632.9369259,8.55000019073486
632.9525509,8.64999961853027
632.9681759,10.5900001525879
632.9838009,15.1599998474121
632.9994259,21.9799995422363
633.0150509,29.2000007629395
633.0306759,34.4599990844727
633.0463009,36.3699989318848
633.0619259,35.0099983215332
633.0775509,31.3899993896484
633.0931759,26.8099994659424
633.1088009,22.3299999237061
633.1244259,18.5400009155273
633.1400509,15.5100002288818
633.1556759,13.039999961853
633.1713009,10.9300003051758
633.1869259,9.17000007629395
633.2025509,7.8899998664856
633.2181759,7.17999982833862
633.2338009,7.0
633.2494259,7.23000001907349
633.2650509,7.67999982833862
633.2806759,8.26000022888184
633.2963009,8.78999996185303
633.3119259,8.97000026702881
633.3275509,8.52999973297119
633.3431759,7.3600001335144
633.3588009,5.57999992370605
633.3744259,3.4300000667572
633.3900509,1.13999998569489
633.4056759,-1.1599999666214
633.4213009,-3.49000000953674
633.4369259,-5.82999992370605
633.4525509,-8.02000045776367
633.4681759,-9.75
633.4838009,-10.4399995803833
633.4994259,-9.31999969482422
633.5150509,-5.88000011444092
633.5306759,-0.519999980926514
633.5463009,5.3600001335144
633.5619259,10.0799999237061
633.5775509,12.3599996566772
633.5931759,11.789999961853
633.6088009,8.73999977111816
633.6244259,4.07999992370605
633.6400509,-1.20000004768372
633.6556759,-6.26999998092651
633.6713009,-10.6300001144409
633.6869259,-14.1700000762939
633.7025509,-17.0900001525879
633.7181759,-19.5599994659424
633.7338009,-21.6900005340576
