Time(s),Value(%)
733.0116171,2.86999988555908
733.0272421,4.51999998092651
733.0428671,6.5
733.0584921,9.01000022888184
733.0741171,12.1800003051758
733.0897421,15.9200000762939
733.1053671,19.8799991607666
733.1209921,23.6700000762939
733.1366171,26.9899997711182
733.1522421,29.75
733.1678671,32.0299987792969
733.1834921,33.8600006103516
733.1991171,35.189998626709
733.2147421,35.9000015258789
733.2303671,35.9500007629395
733.2459921,35.4199981689453
733.2616171,34.439998626709
733.2772421,32.9700012207031
733.2928671,31.2999992370605
733.3084921,29.5599994659424
733.3241171,27.8999996185303
733.3397421,26.3500003814697
733.3553671,24.7600002288818
733.3709921,22.9500007629395
733.3866171,20.9099998474121
733.4022421,18.8099994659424
733.4178671,16.8600006103516
733.4334921,15.1599998474121
733.4491171,13.6800003051758
733.4647421,12.289999961853
733.4803671,10.7299995422363
733.4959921,8.85000038146973
733.5116171,6.57999992370605
733.5272421,3.96000003814697
733.5428671,0.959999978542328
733.5584921,-2.44000005722046
733.5741171,-6.17999982833862
733.5897421,-9.90999984741211
733.6053671,-13.1000003814697
733.6209921,-15.4099998474121
733.6366171,-16.9099998474121
733.6522421,-17.9500007629395
733.6678671,-18.7999992370605
733.6834921,-19.4699993133545
733.6991171,-19.8799991607666
733.7147421,-20.0
733.7303671,-19.8799991607666
733.7459921,-19.5599994659424
733.7616171,-19.0400009155273
733.7772421,-18.2600002288818
733.7928671,-17.2199993133545
733.8084921,-15.9899997711182
733.8241171,-14.710000038147
733.8397421,-13.5
733.8553671,-12.3999996185303
733.8709921,-11.3500003814697
733.8866171,-10.1899995803833
733.9022421,-8.76000022888184
733.9178671,-7.03000020980835
733.9334921,-5.17000007629395
733.9491171,-3.44000005722046
733.9647421,-2.10999989509583
733.9803671,-1.25999999046326
733.9959921,-0.829999983310699
734.0116171,-0.709999978542328
734.0272421,-0.839999973773956
734.0428671,-1.25999999046326
734.0584921,-1.96000003814697
734.0741171,-2.82999992370605
734.0897421,-3.69000005722046
734.1053671,-4.44999980926514
734.1209921,-5.11999988555908
734.1366171,-5.73999977111816
734.1522421,-6.32999992370605
734.1678671,-6.76999998092651
734.1834921,-6.94999980926514
734.1991171,-6.80000019073486
734.2147421,-6.38000011444092
734.2303671,-5.78000020980835
734.2459921,-5.05000019073486
734.2616171,-4.21000003814697
734.2772421,-3.35999989509583
734.2928671,-2.40000009536743
734.3084921,-1.38999998569489
734.3241171,-0.400000005960464
734.3397421,0.490000009536743
734.3553671,1.20000004768372
734.3709921,1.62000000476837
734.3866171,1.69000005722046
734.4022421,1.44000005722046
734.4178671,0.939999997615814
734.4334921,0.310000002384186
734.4491171,-0.310000002384186
734.4647421,-0.850000023841858
734.4803671,-1.20000004768372
734.4959921,-1.30999994277954
734.5116171,-1.1599999666214
734.5272421,-0.759999990463257
734.5428671,-0.0500000007450581
734.5584921,1.04999995231628
734.5741171,2.52999997138977
734.5897421,4.23000001907349
734.6053671,5.98000001907349
734.6209921,7.73000001907349
734.6366171,9.67000007629395
734.6522421,11.9799995422363
734.6678671,14.5799999237061
734.6834921,17.1100006103516
734.6991171,19.2099990844727
734.7147421,20.7399997711182
734.7303671,21.75
734.7459921,22.4599990844727
734.7616171,23.1200008392334
734.7772421,23.8799991607666
734.7928671,24.7600002288818
734.8084921,25.6700000762939
734.8241171,26.4899997711182
734.8397421,27.1299991607666
734.8553671,27.5300006866455
734.8709921,27.5400009155273
734.8866171,26.8999996185303
734.9022421,25.3600006103516
734.9178671,22.9099998474121
734.9334921,19.7299995422363
734.9491171,16.0599994659424
734.9647421,12.1000003814697
734.9803671,8.0
734.9959921,3.86999988555908
735.0116171,-0.239999994635582
735.0272421,-4.42999982833862
735.0428671,-8.85999965667725
735.0584921,-13.6099996566772
735.0741171,-18.5100002288818
735.0897421,-23.1800003051758
735.1053671,-27.3099994659424
735.1209921,-30.7900009155273
735.1366171,-33.7000007629395
735.1522421,-36.1100006103516
735.1678671,-37.9700012207031
735.1834921,-38.8600006103516
735.1991171,-38.1599998474121
735.2147421,-35.4599990844727
735.2303671,-30.9500007629395
735.2459921,-25.3500003814697
735.2616171,-19.6000003814697
735.2772421,-14.5299997329712
735.2928671,-10.1000003814697
735.3084921,-6.0
735.3241171,-1.51999998092651
735.3397421,4.03000020980835
735.3553671,10.9499998092651
735.3709921,19.3299999237061
735.3866171,29.4699993133545
735.4022421,41.6800003051758
735.4178671,55.6300010681152
735.4334921,69.8600006103516
735.4491171,82.0999984741211
735.4647421,90.5899963378906
735.4803671,95.2699966430664
735.4959921,97.2300033569336
735.5116171,97.3099975585938
735.5272421,95.6900024414063
735.5428671,92.3000030517578
735.5584921,87.3899993896484
735.5741171,81.5400009155273
735.5897421,75.5299987792969
735.6053671,70.0199966430664
735.6209921,65.379997253418
735.6366171,61.6300010681152
735.6522421,58.7299995422363
735.6678671,56.8300018310547
735.6834921,56.1399993896484
735.6991171,56.5499992370605
735.7147421,57.2099990844727
735.7303671,56.689998626709
735.7459921,53.7599983215332
735.7616171,48.1699981689453
735.7772421,40.4900016784668
735.7928671,31.4400005340576
735.8084921,21.5
735.8241171,11.0299997329712
735.8397421,0.379999995231628
735.8553671,-10.1199998855591
735.8709921,-20.3500003814697
735.8866171,-30.4799995422363
735.9022421,-40.7599983215332
735.9178671,-51.2700004577637
735.9334921,-61.8899993896484
735.9491171,-72.3300018310547
735.9647421,-82.3199996948242
735.9803671,-91.6900024414063
735.9959921,-100.309997558594
736.0116171,-108.069999694824
736.0272421,-114.980003356934
736.0428671,-121.279998779297
736.0584921,-127.279998779297
736.0741171,-133.160003662109
736.0897421,-138.880004882813
736.1053671,-144.270004272461
736.1209921,-149.169998168945
736.1366171,-153.389999389648
736.1522421,-156.520004272461
736.1678671,-157.740005493164
736.1834921,-156.339996337891
736.1991171,-152.210006713867
736.2147421,-145.75
736.2303671,-137.339996337891
736.2459921,-127.279998779297
736.2616171,-116.040000915527
736.2772421,-104.809997558594
736.2928671,-94.6800003051758
736.3084921,-86.5400009155273
736.3241171,-80.2200012207031
736.3397421,-74.9599990844727
736.3553671,-70.4199981689453
736.3709921,-66.8399963378906
736.3866171,-64.5299987792969
736.4022421,-63.4500007629395
736.4178671,-63.189998626709
736.4334921,-63.2999992370605
736.4491171,-63.4799995422363
736.4647421,-63.7299995422363
736.4803671,-64.0599975585938
736.4959921,-64.3600006103516
736.5116171,-64.3499984741211
736.5272421,-63.7099990844727
736.5428671,-62.3800010681152
736.5584921,-60.7200012207031
736.5741171,-59.4599990844727
736.5897421,-59.2999992370605
736.6053671,-60.5200004577637
736.6209921,-62.9599990844727
736.6366171,-66.2600021362305
736.6522421,-70.0400009155273
736.6678671,-74.0299987792969
736.6834921,-77.9599990844727
736.6991171,-81.6600036621094
736.7147421,-84.9700012207031
736.7303671,-87.7799987792969
736.7459921,-90.0400009155273
736.7616171,-91.8099975585938
736.7772421,-93.1800003051758
736.7928671,-94.2099990844727
736.8084921,-94.9199981689453
736.8241171,-95.3000030517578
736.8397421,-95.379997253418
736.8553671,-95.3000030517578
736.8709921,-95.6600036621094
736.8866171,-97.5999984741211
736.9022421,-102.139999389648
736.9178671,-109.459999084473
736.9334921,-118.930000305176
736.9491171,-129.690002441406
736.9647421,-141.080001831055
736.9803671,-152.440002441406
736.9959921,-162.660003662109
737.0116171,-170.240005493164
737.0272421,-174.0
737.0428671,-174.029998779297
737.0584921,-171.309997558594
737.0741171,-166.880004882813
737.0897421,-161.309997558594
737.1053671,-154.860000610352
737.1209921,-147.75
737.1366171,-140.25
737.1522421,-132.539993286133
737.1678671,-124.680000305176
737.1834921,-116.610000610352
737.1991171,-108.339996337891
737.2147421,-100.080001831055
737.2303671,-92.2200012207031
737.2459921,-85.1600036621094
737.2616171,-78.9800033569336
737.2772421,-73.2300033569336
737.2928671,-67.620002746582
737.3084921,-61.8600006103516
737.3241171,-56.0900001525879
737.3397421,-50.6399993896484
737.3553671,-45.560001373291
737.3709921,-40.560001373291
737.3866171,-35.310001373291
737.4022421,-29.6399993896484
737.4178671,-23.6499996185303
737.4334921,-17.5799999237061
737.4491171,-11.6999998092651
737.4647421,-6.19999980926514
737.4803671,-1.12999999523163
737.4959921,3.45000004768372
737.5116171,7.3600001335144
737.5272421,10.3999996185303
737.5428671,12.6300001144409
737.5584921,14.5500001907349
737.5741171,16.9300003051758
737.5897421,20.3299999237061
737.6053671,24.6399993896484
737.6209921,29.3899993896484
737.6366171,34.2299995422363
737.6522421,39.1500015258789
737.6678671,44.2999992370605
737.6834921,49.7400016784668
737.6991171,55.3499984741211
737.7147421,61.0099983215332
737.7303671,66.629997253418
737.7459921,72.1999969482422
737.7616171,77.7099990844727
737.7772421,83.0599975585938
737.7928671,88.0400009155273
737.8084921,92.4899978637695
737.8241171,96.3600006103516
737.8397421,99.870002746582
737.8553671,103.449996948242
737.8709921,107.519996643066
737.8866171,112.26000213623
737.9022421,117.639999389648
737.9178671,123.440002441406
737.9334921,129.419998168945
737.9491171,135.350006103516
737.9647421,141.009994506836
737.9803671,146.279998779297
737.9959921,151.089996337891
738.0116171,155.419998168945
738.0272421,159.270004272461
738.0428671,162.669998168945
738.0584921,165.669998168945
738.0741171,168.25
738.0897421,170.389999389648
738.1053671,172.119995117188
738.1209921,173.449996948242
738.1366171,174.410003662109
738.1522421,174.839996337891
738.1678671,174.449996948242
738.1834921,172.990005493164
738.1991171,170.539993286133
738.2147421,167.479995727539
738.2303671,164.259994506836
738.2459921,161.210006713867
738.2616171,158.460006713867
738.2772421,154.809997558594
738.2928671,151.539993286133
738.3084921,148.619995117188
738.3241171,146.020004272461
738.3397421,143.600006103516
738.3553671,141.210006713867
738.3709921,138.699996948242
738.3866171,136.059997558594
738.4022421,133.419998168945
738.4178671,131.070007324219
738.4334921,129.360000610352
738.4491171,128.5
738.4647421,128.490005493164
738.4803671,129.080001831055
738.4959921,129.919998168945
738.5116171,130.679992675781
738.5272421,131.149993896484
738.5428671,131.279998779297
738.5584921,131.240005493164
738.5741171,131.419998168945
738.5897421,132.119995117188
738.6053671,133.479995727539
738.6209921,135.529998779297
738.6366171,138.440002441406
738.6522421,142.389999389648
738.6678671,147.229995727539
738.6834921,152.25
738.6991171,156.440002441406
738.7147421,159.059997558594
738.7303671,160.160003662109
738.7459921,160.169998168945
738.7616171,159.300003051758
738.7772421,157.410003662109
738.7928671,154.360000610352
738.8084921,150.270004272461
738.8241171,145.460006713867
738.8397421,140.029998779297
738.8553671,133.690002441406
738.8709921,125.980003356934
738.8866171,116.809997558594
738.9022421,106.540000915527
738.9178671,95.7600021362305
738.9334921,85.0299987792969
738.9491171,74.6900024414063
738.9647421,65.0100021362305
738.9803671,56.2099990844727
738.9959921,48.3600006103516
739.0116171,41.2200012207031
739.0272421,34.4000015258789
739.0428671,27.6700000762939
739.0584921,21.0599994659424
739.0741171,14.7799997329712
739.0897421,9.03999996185303
739.1053671,3.92000007629395
739.1209921,-0.589999973773956
739.1366171,-4.48999977111816
739.1522421,-7.69000005722046
739.1678671,-10.1300001144409
739.1834921,-11.8900003433228
739.1991171,-13.2700004577637
739.2147421,-14.6199998855591
739.2303671,-16.1900005340576
739.2459921,-18.0699996948242
739.2616171,-20.1399993896484
739.2772421,-22.0
739.2928671,-23.4200000762939
739.3084921,-24.1200008392334
739.3241171,-24.0599994659424
739.3397421,-23.2600002288818
739.3553671,-21.5900001525879
739.3709921,-18.9200000762939
739.3866171,-15.3800001144409
739.4022421,-11.539999961853
739.4178671,-8.22999954223633
739.4334921,-5.90999984741211
739.4491171,-4.3600001335144
739.4647421,-3.01999998092651
739.4803671,-1.72000002861023
739.4959921,-0.759999990463257
739.5116171,-0.569999992847443
739.5272421,-1.25999999046326
739.5428671,-2.66000008583069
739.5584921,-4.46000003814697
739.5741171,-6.44000005722046
739.5897421,-8.5
739.6053671,-10.6300001144409
739.6209921,-12.6499996185303
739.6366171,-14.2600002288818
739.6522421,-15.1300001144409
739.6678671,-15.2399997711182
739.6834921,-15.0299997329712
739.6991171,-15.3000001907349
739.7147421,-16.7299995422363
739.7303671,-19.5200004577637
739.7459921,-23.4400005340576
739.7616171,-28.1700000762939
739.7772421,-33.4599990844727
739.7928671,-39.0900001525879
739.8084921,-44.8300018310547
739.8241171,-50.4700012207031
739.8397421,-55.8800010681152
739.8553671,-61.0999984741211
739.8709921,-66.2399978637695
739.8866171,-71.379997253418
739.9022421,-76.5500030517578
739.9178671,-81.8199996948242
739.9334921,-87.2300033569336
739.9491171,-92.7200012207031
739.9647421,-98.0999984741211
739.9803671,-103.150001525879
739.9959921,-107.75
740.0116171,-112.01000213623
740.0272421,-116.069999694824
740.0428671,-119.919998168945
740.0584921,-123.389999389648
740.0741171,-126.300003051758
740.0897421,-128.619995117188
740.1053671,-130.399993896484
740.1209921,-131.649993896484
740.1366171,-132.190002441406
740.1522421,-131.830001831055
740.1678671,-130.509994506836
740.1834921,-128.360000610352
740.1991171,-125.48999786377
740.2147421,-122.040000915527
740.2303671,-118.139999389648
740.2459921,-114.089996337891
740.2616171,-110.209999084473
740.2772421,-106.059997558594
740.2928671,-102.470001220703
740.3084921,-99.379997253418
740.3241171,-96.8099975585938
740.3397421,-94.7900009155273
740.3553671,-93.2799987792969
740.3709921,-92.1399993896484
740.3866171,-91.1500015258789
740.4022421,-90.1999969482422
740.4178671,-89.3000030517578
740.4334921,-88.5599975585938
740.4491171,-88.0599975585938
740.4647421,-87.8199996948242
740.4803671,-87.9000015258789
740.4959921,-88.3399963378906
740.5116171,-89.0599975585938
740.5272421,-89.8499984741211
740.5428671,-90.4400024414063
740.5584921,-90.6999969482422
740.5741171,-90.6900024414063
740.5897421,-90.5599975585938
740.6053671,-90.3099975585938
740.6209921,-89.8000030517578
740.6366171,-88.879997253418
740.6522421,-87.5199966430664
740.6678671,-85.8499984741211
740.6834921,-84.0400009155273
740.6991171,-82.2600021362305
740.7147421,-80.629997253418
740.7303671,-79.1600036621094
740.7459921,-77.879997253418
740.7616171,-76.870002746582
740.7772421,-76.2300033569336
740.7928671,-75.9499969482422
740.8084921,-75.7399978637695
740.8241171,-75.1900024414063
740.8397421,-73.9400024414063
740.8553671,-71.879997253418
740.8709921,-69.1399993896484
740.8866171,-65.8499984741211
740.9022421,-62.1300010681152
740.9178671,-58.060001373291
740.9334921,-53.7799987792969
740.9491171,-49.4300003051758
740.9647421,-44.939998626709
740.9803671,-40.0200004577637
740.9959921,-34.3400001525879
741.0116171,-27.7800006866455
741.0272421,-20.3600006103516
741.0428671,-12.0100002288818
741.0584921,-2.66000008583069
741.0741171,7.48000001907349
741.0897421,17.8199996948242
741.1053671,27.4899997711182
741.1209921,35.9099998474121
741.1366171,43.1599998474121
741.1522421,49.5999984741211
741.1678671,55.2999992370605
741.1834921,60.0200004577637
741.1991171,63.5299987792969
741.2147421,65.9100036621094
741.2303671,67.4599990844727
741.2459921,68.3600006103516
741.2616171,68.4000015258789
741.2772421,67.2799987792969
741.2928671,64.879997253418
741.3084921,61.5699996948242
741.3241171,58.0299987792969
741.3397421,54.8499984741211
741.3553671,52.3600006103516
741.3709921,50.5900001525879
741.3866171,49.4099998474121
741.4022421,48.5499992370605
741.4178671,47.560001373291
741.4334921,45.939998626709
741.4491171,43.3800010681152
741.4647421,39.6300010681152
741.4803671,34.4500007629395
741.4959921,27.7299995422363
741.5116171,19.7600002288818
741.5272421,11.3400001525879
741.5428671,3.45000004768372
741.5584921,-3.45000004768372
741.5741171,-9.77999973297119
741.5897421,-16.1800003051758
741.6053671,-22.7099990844727
741.6209921,-28.7199993133545
741.6366171,-33.5200004577637
741.6522421,-36.8499984741211
741.6678671,-38.9300003051758
741.6834921,-40.1599998474121
741.6991171,-40.7400016784668
741.7147421,-40.7099990844727
741.7303671,-40.0299987792969
741.7459921,-38.6800003051758
741.7616171,-36.5699996948242
741.7772421,-33.6800003051758
741.7928671,-30.0499992370605
741.8084921,-25.7199993133545
741.8241171,-20.5200004577637
741.8397421,-14.1800003051758
741.8553671,-6.65999984741211
741.8709921,1.66999995708466
741.8866171,10.0299997329712
741.9022421,17.6100006103516
741.9178671,23.9699993133545
741.9334921,29.1599998474121
741.9491171,33.560001373291
741.9647421,37.5900001525879
741.9803671,41.5200004577637
741.9959921,45.4099998474121
742.0116171,49.2000007629395
742.0272421,52.8400001525879
742.0428671,56.3699989318848
742.0584921,59.8899993896484
742.0741171,63.4099998474121
742.0897421,66.8300018310547
742.1053671,69.9100036621094
742.1209921,72.5199966430664
742.1366171,74.7600021362305
742.1522421,76.8499984741211
742.1678671,78.8899993896484
742.1834921,80.8199996948242
742.1991171,82.5100021362305
742.2147421,83.870002746582
742.2303671,84.9199981689453
742.2459921,85.870002746582
742.2616171,87.0699996948242
742.2772421,88.7799987792969
742.2928671,91.1399993896484
742.3084921,94.1900024414063
742.3241171,98.0299987792969
742.3397421,102.830001831055
742.3553671,108.419998168945
742.3709921,114.160003662109
742.3866171,119.150001525879
742.4022421,123.129997253418
742.4178671,126.949996948242
742.4334921,131.820007324219
742.4491171,138.050003051758
742.4647421,144.850006103516
742.4803671,151.039993286133
742.4959921,155.800003051758
742.5116171,159.059997558594
742.5272421,161.539993286133
742.5428671,164.460006713867
742.5584921,168.869995117188
742.5741171,175.080001831055
742.5897421,183.039993286133
742.6053671,192.869995117188
742.6209921,204.729995727539
742.6366171,218.119995117188
742.6522421,231.130004882813
742.6678671,240.720001220703
742.6834921,244.479995727539
742.6991171,242.110000610352
742.7147421,235.100006103516
742.7303671,225.050003051758
742.7459921,212.889999389648
742.7616171,199.190002441406
742.7772421,184.509994506836
742.7928671,169.539993286133
742.8084921,154.960006713867
742.8241171,141.389999389648
742.8397421,129.139999389648
742.8553671,118.139999389648
742.8709921,108.01000213623
742.8866171,98.2799987792969
742.9022421,88.6100006103516
742.9178671,78.8000030517578
742.9334921,68.5400009155273
742.9491171,57.2999992370605
742.9647421,44.5999984741211
742.9803671,30.5599994659424
742.9959921,15.8500003814697
743.0116171,1.39999997615814
743.0272421,-12.1099996566772
743.0428671,-24.4599990844727
743.0584921,-35.7599983215332
743.0741171,-46.2900009155273
743.0897421,-56.2599983215332
743.1053671,-65.6699981689453
743.1209921,-74.379997253418
743.1366171,-82.3399963378906
743.1522421,-89.5999984741211
743.1678671,-96.3399963378906
743.1834921,-102.75
743.1991171,-108.980003356934
743.2147421,-115.129997253418
743.2303671,-121.349998474121
743.2459921,-127.559997558594
743.2616171,-133.339996337891
743.2772421,-137.110000610352
743.2928671,-139.529998779297
743.3084921,-140.720001220703
743.3241171,-141.089996337891
743.3397421,-141.139999389648
743.3553671,-141.179992675781
743.3709921,-141.229995727539
743.3866171,-141.070007324219
743.4022421,-140.410003662109
743.4178671,-139.139999389648
743.4334921,-137.320007324219
743.4491171,-135.119995117188
743.4647421,-132.699996948242
743.4803671,-130.25
743.4959921,-128.139999389648
743.5116171,-126.970001220703
743.5272421,-127.279998779297
743.5428671,-129.130004882813
743.5584921,-132.130004882813
743.5741171,-135.630004882813
743.5897421,-139.080001831055
743.6053671,-142.119995117188
743.6209921,-144.639999389648
743.6366171,-146.710006713867
743.6522421,-148.470001220703
743.6678671,-150.110000610352
743.6834921,-151.75
743.6991171,-153.440002441406
