Time(s),Value(%)
733.0116171,35.3199996948242
733.0272421,26.3199996948242
733.0428671,18.4699993133545
733.0584921,12.1999998092651
733.0741171,7.19999980926514
733.0897421,2.61999988555908
733.1053671,-2.39000010490417
733.1209921,-8.26000022888184
733.1366171,-14.7799997329712
733.1522421,-21.3799991607666
733.1678671,-27.4599990844727
733.1834921,-32.7099990844727
733.1991171,-37.0999984741211
733.2147421,-40.7900009155273
733.2303671,-44.1399993896484
733.2459921,-47.3800010681152
733.2616171,-50.3199996948242
733.2772421,-52.3300018310547
733.2928671,-52.8300018310547
733.3084921,-51.7200012207031
733.3241171,-49.2599983215332
733.3397421,-45.7900009155273
733.3553671,-41.689998626709
733.3709921,-37.439998626709
733.3866171,-33.5800018310547
733.4022421,-30.3899993896484
733.4178671,-27.9500007629395
733.4334921,-26.2700004577637
733.4491171,-25.3199996948242
733.4647421,-24.9699993133545
733.4803671,-24.9599990844727
733.4959921,-24.8199996948242
733.5116171,-23.9500007629395
733.5272421,-21.5799999237061
733.5428671,-16.7099990844727
733.5584921,-8.5
733.5741171,2.96000003814697
733.5897421,16.1299991607666
733.6053671,28.4799995422363
733.6209921,37.9199981689453
733.6366171,44.0499992370605
733.6522421,48.2900009155273
733.6678671,52.5400009155273
733.6834921,57.7200012207031
733.6991171,63.6199989318848
733.7147421,69.4499969482422
733.7303671,74.3300018310547
733.7459921,77.1999969482422
733.7616171,77.0100021362305
733.7772421,73.0100021362305
733.7928671,65.0
733.8084921,53.6500015258789
733.8241171,40.3300018310547
733.8397421,26.5799999237061
733.8553671,13.6800003051758
733.8709921,2.74000000953674
733.8866171,-5.28000020980835
733.9022421,-10.2399997711182
733.9178671,-13.0699996948242
733.9334921,-15.0900001525879
733.9491171,-17.25
733.9647421,-19.9599990844727
733.9803671,-23.25
733.9959921,-26.7900009155273
734.0116171,-30.0799999237061
734.0272421,-32.6699981689453
734.0428671,-34.5800018310547
734.0584921,-36.2400016784668
734.0741171,-38.2099990844727
734.0897421,-40.689998626709
734.1053671,-43.2900009155273
734.1209921,-45.2700004577637
734.1366171,-46.0200004577637
734.1522421,-45.3300018310547
734.1678671,-43.3899993896484
734.1834921,-40.7400016784668
734.1991171,-38.0900001525879
734.2147421,-35.9300003051758
734.2303671,-34.4300003051758
734.2459921,-33.3300018310547
734.2616171,-32.1500015258789
734.2772421,-30.4899997711182
734.2928671,-28.1000003814697
734.3084921,-24.7199993133545
734.3241171,-19.9300003051758
734.3397421,-13.0799999237061
734.3553671,-3.46000003814697
734.3709921,9.0
734.3866171,23.3899993896484
734.4022421,38.0499992370605
734.4178671,51.25
734.4334921,61.7200012207031
734.4491171,68.879997253418
734.4647421,72.9100036621094
734.4803671,74.4199981689453
734.4959921,74.0899963378906
734.5116171,72.4599990844727
734.5272421,69.9100036621094
734.5428671,66.6999969482422
734.5584921,63.0299987792969
734.5741171,58.9000015258789
734.5897421,53.9300003051758
734.6053671,47.560001373291
734.6209921,39.5400009155273
734.6366171,30.3099994659424
734.6522421,20.7000007629395
734.6678671,11.5699996948242
734.6834921,3.42000007629395
734.6991171,-3.74000000953674
734.7147421,-10.2200002670288
734.7303671,-16.2600002288818
734.7459921,-22.0300006866455
734.7616171,-27.6000003814697
734.7772421,-32.7900009155273
734.7928671,-37.1800003051758
734.8084921,-40.3499984741211
734.8241171,-42.2400016784668
734.8397421,-43.2099990844727
734.8553671,-43.7799987792969
734.8709921,-44.2400016784668
734.8866171,-44.2999992370605
734.9022421,-43.2400016784668
734.9178671,-40.5200004577637
734.9334921,-36.5999984741211
734.9491171,-32.9599990844727
734.9647421,-31.1399993896484
734.9803671,-31.7000007629395
734.9959921,-33.8499984741211
735.0116171,-36.0
735.0272421,-36.8499984741211
735.0428671,-36.0299987792969
735.0584921,-33.9199981689453
735.0741171,-31.0699996948242
735.0897421,-27.9699993133545
735.1053671,-24.9099998474121
735.1209921,-21.8199996948242
735.1366171,-18.2399997711182
735.1522421,-13.4399995803833
735.1678671,-6.78999996185303
735.1834921,1.88999998569489
735.1991171,12.25
735.2147421,23.3600006103516
735.2303671,34.0200004577637
735.2459921,43.1500015258789
735.2616171,50.1699981689453
735.2772421,55.2400016784668
735.2928671,59.060001373291
735.3084921,62.3699989318848
735.3241171,65.4599990844727
735.3397421,68.0800018310547
735.3553671,69.7200012207031
735.3709921,69.8199996948242
735.3866171,67.6500015258789
735.4022421,62.3400001525879
735.4178671,53.3499984741211
735.4334921,41.2000007629395
735.4491171,27.4799995422363
735.4647421,14.1400003433228
735.4803671,2.63000011444092
735.4959921,-6.40999984741211
735.5116171,-13.0299997329712
735.5272421,-17.6599998474121
735.5428671,-20.9799995422363
735.5584921,-23.7000007629395
735.5741171,-26.3600006103516
735.5897421,-29.3199996948242
735.6053671,-32.7299995422363
735.6209921,-36.3499984741211
735.6366171,-39.689998626709
735.6522421,-42.4000015258789
735.6678671,-44.439998626709
735.6834921,-45.8699989318848
735.6991171,-46.5099983215332
735.7147421,-45.8899993896484
735.7303671,-43.689998626709
735.7459921,-40.0999984741211
735.7616171,-35.9500007629395
735.7772421,-32.4000015258789
735.7928671,-30.2999992370605
735.8084921,-29.6700000762939
735.8241171,-29.7700004577637
735.8397421,-29.6200008392334
735.8553671,-28.4400005340576
735.8709921,-25.9699993133545
735.8866171,-22.5599994659424
735.9022421,-19.0699996948242
735.9178671,-16.3600006103516
735.9334921,-14.8500003814697
735.9491171,-14.2200002670288
735.9647421,-13.1599998474121
735.9803671,-9.72000026702881
735.9959921,-2.47000002861023
736.0116171,8.36999988555908
736.0272421,20.8899993896484
736.0428671,32.560001373291
736.0584921,41.5200004577637
736.0741171,47.4099998474121
736.0897421,51.1100006103516
736.1053671,53.8899993896484
736.1209921,56.560001373291
736.1366171,59.1800003051758
736.1522421,61.3800010681152
736.1678671,62.7599983215332
736.1834921,63.0099983215332
736.1991171,61.7099990844727
736.2147421,58.25
736.2303671,52.2299995422363
736.2459921,43.9799995422363
736.2616171,34.560001373291
736.2772421,25.1100006103516
736.2928671,16.2000007629395
736.3084921,7.92000007629395
736.3241171,0.349999994039536
736.3397421,-6.48000001907349
736.3553671,-12.5900001525879
736.3709921,-17.8500003814697
736.3866171,-22.0799999237061
736.4022421,-25.3799991607666
736.4178671,-28.2999992370605
736.4334921,-31.5300006866455
736.4491171,-35.2900009155273
736.4647421,-39.0800018310547
736.4803671,-42.189998626709
736.4959921,-44.2099990844727
736.5116171,-45.0499992370605
736.5272421,-44.560001373291
736.5428671,-42.5200004577637
736.5584921,-39.0400009155273
736.5741171,-34.8800010681152
736.5897421,-31.1800003051758
736.6053671,-28.9200000762939
736.6209921,-28.5400009155273
736.6366171,-29.75
736.6522421,-31.5100002288818
736.6678671,-32.2700004577637
736.6834921,-30.7999992370605
736.6991171,-27.0200004577637
736.7147421,-21.9699993133545
736.7303671,-16.9799995422363
736.7459921,-12.6899995803833
736.7616171,-8.59000015258789
736.7772421,-3.36999988555908
736.7928671,4.17999982833862
736.8084921,14.3100004196167
736.8241171,25.9300003051758
736.8397421,37.189998626709
736.8553671,46.6199989318848
736.8709921,53.9099998474121
736.8866171,59.6699981689453
736.9022421,64.6600036621094
736.9178671,69.129997253418
736.9334921,72.620002746582
736.9491171,74.2900009155273
736.9647421,73.4000015258789
736.9803671,69.8199996948242
736.9959921,63.9199981689453
737.0116171,56.1100006103516
737.0272421,46.6100006103516
737.0428671,35.7599983215332
737.0584921,24.3099994659424
737.0741171,13.5200004577637
737.0897421,4.6100001335144
737.1053671,-1.9099999666214
737.1209921,-6.42999982833862
737.1366171,-9.6899995803833
737.1522421,-12.4200000762939
737.1678671,-15.3199996948242
737.1834921,-18.9899997711182
737.1991171,-23.6800003051758
737.2147421,-29.0200004577637
737.2303671,-34.0499992370605
737.2459921,-37.7000007629395
737.2616171,-39.5999984741211
737.2772421,-40.3600006103516
737.2928671,-40.9700012207031
737.3084921,-42.1100006103516
737.3241171,-43.7000007629395
737.3397421,-45.1100006103516
737.3553671,-45.7099990844727
737.3709921,-45.1599998474121
737.3866171,-43.4700012207031
737.4022421,-41.0
737.4178671,-38.2400016784668
737.4334921,-35.5900001525879
737.4491171,-33.310001373291
737.4647421,-31.4599990844727
737.4803671,-29.7099990844727
737.4959921,-27.5699996948242
737.5116171,-24.7399997711182
737.5272421,-21.1499996185303
737.5428671,-16.3799991607666
737.5584921,-9.48999977111816
737.5741171,0.379999995231628
737.5897421,12.960000038147
737.6053671,26.8299999237061
737.6209921,40.2400016784668
737.6366171,51.7400016784668
737.6522421,60.25
737.6678671,65.2799987792969
737.6834921,67.0400009155273
737.6991171,66.5199966430664
737.7147421,65.25
737.7303671,64.7399978637695
737.7459921,65.7600021362305
737.7616171,67.6800003051758
737.7772421,68.5599975585938
737.7928671,66.2300033569336
737.8084921,59.5900001525879
737.8241171,49.1399993896484
737.8397421,36.4300003051758
737.8553671,23.1499996185303
737.8709921,10.5100002288818
737.8866171,-0.790000021457672
737.9022421,-10.6000003814697
737.9178671,-19.0200004577637
737.9334921,-26.25
737.9491171,-32.5
737.9647421,-37.9199981689453
737.9803671,-42.4099998474121
737.9959921,-45.5800018310547
738.0116171,-47.189998626709
738.0272421,-47.439998626709
738.0428671,-46.8199996948242
738.0584921,-45.9099998474121
738.0741171,-45.1800003051758
738.0897421,-44.9000015258789
738.1053671,-44.9500007629395
738.1209921,-44.810001373291
738.1366171,-44.0499992370605
738.1522421,-42.7700004577637
738.1678671,-41.5800018310547
738.1834921,-40.8600006103516
738.1991171,-40.2999992370605
738.2147421,-39.3699989318848
738.2303671,-38.0099983215332
738.2459921,-36.7000007629395
738.2616171,-35.9799995422363
738.2772421,-36.0099983215332
738.2928671,-36.560001373291
738.3084921,-36.9900016784668
738.3241171,-36.0
738.3397421,-31.7000007629395
738.3553671,-22.5699996948242
738.3709921,-8.64999961853027
738.3866171,8.22999954223633
738.4022421,25.5400009155273
738.4178671,41.1300010681152
738.4334921,53.7799987792969
738.4491171,63.1800003051758
738.4647421,69.6900024414063
738.4803671,74.0199966430664
738.4959921,76.8199996948242
738.5116171,78.4700012207031
738.5272421,79.0699996948242
738.5428671,78.3899993896484
738.5584921,75.9899978637695
738.5741171,71.1900024414063
738.5897421,63.3800010681152
738.6053671,52.5099983215332
738.6209921,39.560001373291
738.6366171,26.2299995422363
738.6522421,14.1700000762939
738.6678671,4.42000007629395
738.6834921,-2.90000009536743
738.6991171,-8.51000022888184
738.7147421,-13.5699996948242
738.7303671,-18.9899997711182
738.7459921,-24.9500007629395
738.7616171,-30.8799991607666
738.7772421,-35.9199981689453
738.7928671,-39.5299987792969
738.8084921,-41.8199996948242
738.8241171,-43.3699989318848
738.8397421,-44.7900009155273
738.8553671,-46.439998626709
738.8709921,-48.2900009155273
738.8866171,-49.939998626709
738.9022421,-50.7299995422363
738.9178671,-49.9599990844727
738.9334921,-47.2799987792969
738.9491171,-43.1199989318848
738.9647421,-38.6399993896484
738.9803671,-35.1199989318848
738.9959921,-33.2400016784668
739.0116171,-32.8199996948242
739.0272421,-33.2099990844727
739.0428671,-33.7099990844727
739.0584921,-33.689998626709
739.0741171,-32.6100006103516
739.0897421,-30.0499992370605
739.1053671,-25.6299991607666
739.1209921,-18.7000007629395
739.1366171,-8.59000015258789
739.1522421,4.6100001335144
739.1678671,19.6900005340576
739.1834921,34.8300018310547
739.1991171,48.310001373291
739.2147421,59.0499992370605
739.2303671,66.75
739.2459921,71.7300033569336
739.2616171,74.6900024414063
739.2772421,76.4499969482422
739.2928671,77.5299987792969
739.3084921,77.6500015258789
739.3241171,75.8899993896484
739.3397421,71.370002746582
739.3553671,64.0
739.3709921,54.560001373291
739.3866171,44.25
739.4022421,34.0200004577637
739.4178671,24.2000007629395
739.4334921,14.8500003814697
739.4491171,6.11999988555908
739.4647421,-1.94000005722046
739.4803671,-9.60999965667725
739.4959921,-17.25
739.5116171,-24.8099994659424
739.5272421,-31.6299991607666
739.5428671,-36.9199981689453
739.5584921,-40.2999992370605
739.5741171,-42.0
739.5897421,-42.6100006103516
739.6053671,-42.8699989318848
739.6209921,-43.4700012207031
739.6366171,-44.8699989318848
739.6522421,-47.1399993896484
739.6678671,-50.0299987792969
739.6834921,-52.9199981689453
739.6991171,-54.9900016784668
739.7147421,-55.4099998474121
739.7303671,-53.7000007629395
739.7459921,-49.9799995422363
739.7616171,-45.2000007629395
739.7772421,-40.5400009155273
739.7928671,-36.7200012207031
739.8084921,-33.7700004577637
739.8241171,-31.4099998474121
739.8397421,-29.3500003814697
739.8553671,-27.2299995422363
739.8709921,-24.3299999237061
739.8866171,-19.4300003051758
739.9022421,-11.1999998092651
739.9178671,0.860000014305115
739.9334921,15.8199996948242
739.9491171,31.7299995422363
739.9647421,46.7099990844727
739.9803671,59.6399993896484
739.9959921,70.0
740.0116171,77.6399993896484
740.0272421,82.6999969482422
740.0428671,85.8899993896484
740.0584921,88.1699981689453
740.0741171,90.120002746582
740.0897421,91.5800018310547
740.1053671,91.7300033569336
740.1209921,89.1900024414063
740.1366171,82.4100036621094
740.1522421,70.5500030517578
740.1678671,54.2200012207031
740.1834921,35.4300003051758
740.1991171,16.8899993896484
740.2147421,1.03999996185303
740.2303671,-10.710000038147
740.2459921,-18.1700000762939
740.2616171,-22.1800003051758
740.2772421,-24.1700000762939
740.2928671,-25.6100006103516
740.3084921,-27.6000003814697
740.3241171,-30.5699996948242
740.3397421,-34.3300018310547
740.3553671,-38.2799987792969
740.3709921,-41.810001373291
740.3866171,-44.6100006103516
740.4022421,-46.4900016784668
740.4178671,-47.1699981689453
740.4334921,-46.2799987792969
740.4491171,-43.9099998474121
740.4647421,-40.8800010681152
740.4803671,-38.5
740.4959921,-37.8499984741211
740.5116171,-39.0200004577637
740.5272421,-41.0099983215332
740.5428671,-42.3400001525879
740.5584921,-42.1100006103516
740.5741171,-40.4599990844727
740.5897421,-38.4199981689453
740.6053671,-37.0699996948242
740.6209921,-36.8400001525879
740.6366171,-37.3199996948242
740.6522421,-37.3699989318848
740.6678671,-35.3300018310547
740.6834921,-29.4899997711182
740.6991171,-18.7000007629395
740.7147421,-2.88000011444092
740.7303671,16.5599994659424
740.7459921,37.0
740.7616171,55.4099998474121
740.7772421,69.4499969482422
740.7928671,78.2300033569336
740.8084921,82.4400024414063
740.8241171,83.7399978637695
740.8397421,83.7600021362305
740.8553671,83.4000015258789
740.8709921,82.7900009155273
740.8866171,81.5800018310547
740.9022421,79.0699996948242
740.9178671,74.3300018310547
740.9334921,66.5800018310547
740.9491171,55.7200012207031
740.9647421,42.5800018310547
740.9803671,28.5200004577637
740.9959921,14.8100004196167
741.0116171,2.3199999332428
741.0272421,-8.42000007629395
741.0428671,-17.2199993133545
741.0584921,-24.3099994659424
741.0741171,-30.3099994659424
741.0897421,-35.9500007629395
741.1053671,-41.4500007629395
741.1209921,-46.310001373291
741.1366171,-49.6100006103516
741.1522421,-50.7000007629395
741.1678671,-49.7900009155273
741.1834921,-47.8300018310547
741.1991171,-45.7599983215332
741.2147421,-44.0200004577637
741.2303671,-42.6399993896484
741.2459921,-41.7799987792969
741.2616171,-41.8499984741211
741.2772421,-43.0999984741211
741.2928671,-45.1699981689453
741.3084921,-47.1399993896484
741.3241171,-48.060001373291
741.3397421,-47.5900001525879
741.3553671,-46.0699996948242
741.3709921,-43.9599990844727
741.3866171,-41.4900016784668
741.4022421,-38.7099990844727
741.4178671,-35.7299995422363
741.4334921,-32.4599990844727
741.4491171,-28.1599998474121
741.4647421,-21.4899997711182
741.4803671,-11.0799999237061
741.4959921,3.47000002861023
741.5116171,21.0799999237061
741.5272421,39.2700004577637
741.5428671,55.3600006103516
741.5584921,67.5400009155273
741.5741171,75.4199981689453
741.5897421,79.6399993896484
741.6053671,81.4100036621094
741.6209921,81.879997253418
741.6366171,81.5899963378906
741.6522421,80.379997253418
741.6678671,77.6900024414063
741.6834921,73.0199966430664
741.6991171,65.8300018310547
741.7147421,55.6699981689453
741.7303671,42.7299995422363
741.7459921,28.3400001525879
741.7616171,14.5699996948242
741.7772421,3.22000002861023
741.7928671,-5.05999994277954
741.8084921,-10.8500003814697
741.8241171,-15.3000001907349
741.8397421,-19.3199996948242
741.8553671,-23.1700000762939
741.8709921,-26.6499996185303
741.8866171,-29.6299991607666
741.9022421,-32.310001373291
741.9178671,-35.0900001525879
741.9334921,-38.1699981689453
741.9491171,-41.3499984741211
741.9647421,-44.0999984741211
741.9803671,-46.0999984741211
741.9959921,-47.439998626709
742.0116171,-48.3400001525879
742.0272421,-48.7700004577637
742.0428671,-48.4799995422363
742.0584921,-47.4000015258789
742.0741171,-45.7599983215332
742.0897421,-43.8699989318848
742.1053671,-42.0999984741211
742.1209921,-40.7299995422363
742.1366171,-39.6500015258789
742.1522421,-38.1800003051758
742.1678671,-35.6199989318848
742.1834921,-31.8899993896484
742.1991171,-27.4400005340576
742.2147421,-22.3600006103516
742.2303671,-15.8599996566772
742.2459921,-6.82999992370605
742.2616171,5.23000001907349
742.2772421,19.8799991607666
742.2928671,35.810001373291
742.3084921,51.1500015258789
742.3241171,64.0
742.3397421,73.1800003051758
742.3553671,78.8899993896484
742.3709921,82.3000030517578
742.3866171,84.6600036621094
742.4022421,86.6900024414063
742.4178671,88.2900009155273
742.4334921,88.5
742.4491171,85.9700012207031
742.4647421,79.8000030517578
742.4803671,70.0699996948242
742.4959921,57.7599983215332
742.5116171,44.2200012207031
742.5272421,30.5799999237061
742.5428671,17.5599994659424
742.5584921,5.65999984741211
742.5741171,-4.69000005722046
742.5897421,-13.3199996948242
742.6053671,-20.3899993896484
742.6209921,-26.3400001525879
742.6366171,-31.5799999237061
742.6522421,-36.2599983215332
742.6678671,-40.4900016784668
742.6834921,-44.6100006103516
742.6991171,-49.1699981689453
742.7147421,-54.3400001525879
742.7303671,-59.4799995422363
742.7459921,-63.4000015258789
742.7616171,-65.25
742.7772421,-65.0199966430664
742.7928671,-63.4300003051758
742.8084921,-61.2599983215332
742.8241171,-58.9300003051758
742.8397421,-56.3600006103516
742.8553671,-52.9700012207031
742.8709921,-48.2400016784668
742.8866171,-42.560001373291
742.9022421,-37.2700004577637
742.9178671,-33.4700012207031
742.9334921,-31.1599998474121
742.9491171,-29.3400001525879
742.9647421,-27.0300006866455
742.9803671,-23.9300003051758
742.9959921,-20.0100002288818
743.0116171,-14.7200002670288
743.0272421,-6.96999979019165
743.0428671,3.95000004768372
743.0584921,17.6100006103516
743.0741171,32.6599998474121
743.0897421,47.7400016784668
743.1053671,61.8300018310547
743.1209921,73.879997253418
743.1366171,82.6800003051758
743.1522421,87.4800033569336
743.1678671,88.8000030517578
743.1834921,88.0999984741211
743.1991171,86.4300003051758
743.2147421,83.5400009155273
743.2303671,78.129997253418
743.2459921,69.0899963378906
743.2616171,56.4000015258789
743.2772421,41.5400009155273
743.2928671,26.8799991607666
743.3084921,14.4700002670288
743.3241171,4.94000005722046
743.3397421,-2.32999992370605
743.3553671,-8.48999977111816
743.3709921,-14.4499998092651
743.3866171,-20.5100002288818
743.4022421,-26.1700000762939
743.4178671,-30.6200008392334
743.4334921,-33.5999984741211
743.4491171,-35.7099990844727
743.4647421,-37.9300003051758
743.4803671,-40.8899993896484
743.4959921,-44.689998626709
743.5116171,-49.060001373291
743.5272421,-53.4000015258789
743.5428671,-56.7999992370605
743.5584921,-58.4700012207031
743.5741171,-58.1699981689453
743.5897421,-56.2900009155273
743.6053671,-53.6100006103516
743.6209921,-51.0200004577637
743.6366171,-49.1699981689453
743.6522421,-47.7099990844727
743.6678671,-45.4599990844727
743.6834921,-41.4300003051758
743.6991171,-35.7900009155273
743.7147421,-29.8299999237061
