Time(s),Value(%)
1850.0089315,144.619995117188
1850.0245565,141.970001220703
1850.0401815,139.850006103516
1850.0558065,137.899993896484
1850.0714315,135.509994506836
1850.0870565,132.199996948242
1850.1026815,127.860000610352
1850.1183065,122.730003356934
1850.1339315,117.01000213623
1850.1495565,110.800003051758
1850.1651815,104.169998168945
1850.1808065,97.2900009155273
1850.1964315,90.3499984741211
1850.2120565,83.4599990844727
1850.2276815,76.5599975585938
1850.2433065,69.5199966430664
1850.2589315,62.2700004577637
1850.2745565,54.810001373291
1850.2901815,47.1300010681152
1850.3058065,39.2200012207031
1850.3214315,31.1900005340576
1850.3370565,23.1399993896484
1850.3526815,15.5299997329712
1850.3683065,8.75
1850.3839315,3.22000002861023
1850.3995565,-0.709999978542328
1850.4151815,-3.00999999046326
1850.4308065,-3.95000004768372
1850.4464315,-4.07000017166138
1850.4620565,-3.91000008583069
1850.4776815,-3.79999995231628
1850.4933065,-3.50999999046326
1850.5089315,-2.21000003814697
1850.5245565,0.930000007152557
1850.5401815,6.11999988555908
1850.5558065,12.8599996566772
1850.5714315,20.3199996948242
1850.5870565,27.7999992370605
1850.6026815,34.75
1850.6183065,40.3600006103516
1850.6339315,43.4700012207031
1850.6495565,43.0200004577637
1850.6651815,38.7999992370605
1850.6808065,31.6000003814697
1850.6964315,22.6900005340576
1850.7120565,13.2600002288818
1850.7276815,4.1100001335144
1850.7433065,-4.3600001335144
1850.7589315,-12.1599998474121
1850.7745565,-19.3899993896484
1850.7901815,-26.1800003051758
1850.8058065,-32.5999984741211
1850.8214315,-38.7200012207031
1850.8370565,-44.75
1850.8526815,-51.1800003051758
1850.8683065,-58.4300003051758
1850.8839315,-66.5500030517578
1850.8995565,-75.0899963378906
1850.9151815,-83.3899993896484
1850.9308065,-90.9800033569336
1850.9464315,-97.8600006103516
1850.9620565,-104.190002441406
1850.9776815,-109.839996337891
1850.9933065,-114.440002441406
1851.0089315,-117.709999084473
1851.0245565,-119.769996643066
1851.0401815,-120.98999786377
1851.0558065,-121.870002746582
1851.0714315,-122.870002746582
1851.0870565,-124.199996948242
1851.1026815,-125.889999389648
1851.1183065,-127.940002441406
1851.1339315,-130.550003051758
1851.1495565,-133.949996948242
1851.1651815,-138.089996337891
1851.1808065,-142.369995117188
1851.1964315,-145.839996337891
1851.2120565,-147.639999389648
1851.2276815,-147.399993896484
1851.2433065,-145.210006713867
1851.2589315,-141.320007324219
1851.2745565,-136.0
1851.2901815,-129.630004882813
1851.3058065,-122.720001220703
1851.3214315,-115.690002441406
1851.3370565,-108.0
1851.3526815,-100.01000213623
1851.3683065,-91.2399978637695
1851.3839315,-81.5800018310547
1851.3995565,-71.5500030517578
1851.4151815,-62.1500015258789
1851.4308065,-54.2400016784668
1851.4464315,-48.2000007629395
1851.4620565,-43.939998626709
1851.4776815,-41.4099998474121
1851.4933065,-40.7400016784668
1851.5089315,-42.1399993896484
1851.5245565,-45.4300003051758
1851.5401815,-49.689998626709
1851.5558065,-53.689998626709
1851.5714315,-56.4900016784668
1851.5870565,-57.8499984741211
1851.6026815,-58.1199989318848
1851.6183065,-57.9099998474121
1851.6339315,-57.8300018310547
1851.6495565,-58.189998626709
1851.6651815,-58.9900016784668
1851.6808065,-59.9799995422363
1851.6964315,-60.8400001525879
1851.7120565,-61.3600006103516
1851.7276815,-61.439998626709
1851.7433065,-60.9599990844727
1851.7589315,-59.6399993896484
1851.7745565,-57.2400016784668
1851.7901815,-53.7200012207031
1851.8058065,-49.1500015258789
1851.8214315,-43.4799995422363
1851.8370565,-36.6500015258789
1851.8526815,-28.7700004577637
1851.8683065,-20.1200008392334
1851.8839315,-10.8699998855591
1851.8995565,-0.829999983310699
1851.9151815,10.3999996185303
1851.9308065,22.9400005340576
1851.9464315,36.1100006103516
1851.9620565,48.9000015258789
1851.9776815,60.7400016784668
1851.9933065,71.7200012207031
1852.0089315,82.1600036621094
1852.0245565,91.9899978637695
1852.0401815,100.559997558594
1852.0558065,107.069999694824
1852.0714315,111.190002441406
1852.0870565,113.129997253418
1852.1026815,113.309997558594
1852.1183065,112.139999389648
1852.1339315,110.050003051758
1852.1495565,107.449996948242
1852.1651815,104.809997558594
1852.1808065,102.73999786377
1852.1964315,102.080001831055
1852.2120565,103.51000213623
1852.2276815,107.120002746582
1852.2433065,112.669998168945
1852.2589315,120.069999694824
1852.2745565,129.369995117188
1852.2901815,140.169998168945
1852.3058065,151.259994506836
1852.3214315,160.960006713867
1852.3370565,165.839996337891
1852.3526815,168.399993896484
1852.3683065,169.550003051758
1852.3839315,169.779998779297
1852.3995565,169.190002441406
1852.4151815,168.229995727539
1852.4308065,167.729995727539
1852.4464315,168.190002441406
1852.4620565,169.259994506836
1852.4776815,169.899993896484
1852.4933065,169.639999389648
1852.5089315,169.300003051758
1852.5245565,170.169998168945
1852.5401815,172.479995727539
1852.5558065,175.190002441406
1852.5714315,176.960006713867
1852.5870565,177.009994506836
1852.6026815,175.529998779297
1852.6183065,173.789993286133
1852.6339315,173.820007324219
1852.6495565,177.270004272461
1852.6651815,184.339996337891
1852.6808065,193.729995727539
1852.6964315,203.5
1852.7120565,212.050003051758
1852.7276815,218.520004272461
1852.7433065,222.539993286133
1852.7589315,223.75
1852.7745565,221.929992675781
1852.7901815,217.470001220703
1852.8058065,211.740005493164
1852.8214315,206.860000610352
1852.8370565,204.630004882813
1852.8526815,205.339996337891
1852.8683065,207.160003662109
1852.8839315,206.850006103516
1852.8995565,202.009994506836
1852.9151815,192.880004882813
1852.9308065,181.5
1852.9464315,169.449996948242
1852.9620565,156.570007324219
1852.9776815,141.339996337891
1852.9933065,122.449996948242
1853.0089315,99.8199996948242
1853.0245565,74.2600021362305
1853.0401815,46.25
1853.0558065,14.6300001144409
1853.0714315,-23.0799999237061
1853.0870565,-68.3600006103516
1853.1026815,-119.319999694824
1853.1183065,-171.369995117188
1853.1339315,-219.889999389648
1853.1495565,-262.329986572266
1853.1651815,-298.829986572266
1853.1808065,-327.679992675781
1853.1964315,-327.679992675781
1853.2120565,-327.679992675781
1853.2276815,-327.679992675781
1853.2433065,-327.679992675781
1853.2589315,-327.679992675781
1853.2745565,-327.679992675781
1853.2901815,-327.679992675781
1853.3058065,-327.679992675781
1853.3214315,-327.679992675781
1853.3370565,-327.679992675781
1853.3526815,-327.679992675781
1853.3683065,-327.679992675781
1853.3839315,-327.679992675781
1853.3995565,-327.679992675781
1853.4151815,-327.679992675781
1853.4308065,-327.679992675781
1853.4464315,-327.679992675781
1853.4620565,-327.679992675781
1853.4776815,-327.679992675781
1853.4933065,-327.679992675781
1853.5089315,-327.679992675781
1853.5245565,-327.679992675781
1853.5401815,-327.679992675781
1853.5558065,-327.679992675781
1853.5714315,-327.679992675781
1853.5870565,-327.679992675781
1853.6026815,-327.679992675781
1853.6183065,-327.679992675781
1853.6339315,-327.679992675781
1853.6495565,-327.679992675781
1853.6651815,-327.679992675781
1853.6808065,-327.679992675781
1853.6964315,-327.679992675781
1853.7120565,-313.920013427734
1853.7276815,-284.130004882813
1853.7433065,-254.0
1853.7589315,-223.580001831055
1853.7745565,-192.419998168945
1853.7901815,-160.289993286133
1853.8058065,-127.559997558594
1853.8214315,-95.0500030517578
1853.8370565,-63.5699996948242
1853.8526815,-33.5999984741211
1853.8683065,-5.1399998664856
1853.8839315,23.6200008392334
1853.8995565,60.4900016784668
1853.9151815,120.190002441406
1853.9308065,216.039993286133
1853.9464315,327.670013427734
1853.9620565,327.670013427734
1853.9776815,327.670013427734
1853.9933065,327.670013427734
1854.0089315,327.670013427734
1854.0245565,327.670013427734
1854.0401815,327.670013427734
1854.0558065,327.670013427734
1854.0714315,327.670013427734
1854.0870565,327.670013427734
1854.1026815,327.670013427734
1854.1183065,327.670013427734
1854.1339315,327.670013427734
1854.1495565,327.670013427734
1854.1651815,327.670013427734
1854.1808065,327.670013427734
1854.1964315,327.670013427734
1854.2120565,327.670013427734
1854.2276815,327.670013427734
1854.2433065,327.670013427734
1854.2589315,327.670013427734
1854.2745565,327.670013427734
1854.2901815,327.670013427734
1854.3058065,327.670013427734
1854.3214315,327.670013427734
1854.3370565,327.670013427734
1854.3526815,327.670013427734
1854.3683065,327.670013427734
1854.3839315,327.670013427734
1854.3995565,327.670013427734
1854.4151815,327.670013427734
1854.4308065,327.670013427734
1854.4464315,327.670013427734
1854.4620565,307.959991455078
1854.4776815,259.690002441406
1854.4933065,206.240005493164
1854.5089315,151.729995727539
1854.5245565,100.459999084473
1854.5401815,54.9099998474121
1854.5558065,15.1099996566772
1854.5714315,-20.4400005340576
1854.5870565,-53.2299995422363
1854.6026815,-83.5
1854.6183065,-110.629997253418
1854.6339315,-134.149993896484
1854.6495565,-154.289993286133
1854.6651815,-171.850006103516
1854.6808065,-187.710006713867
1854.6964315,-202.589996337891
1854.7120565,-216.940002441406
1854.7276815,-230.979995727539
1854.7433065,-244.740005493164
1854.7589315,-258.070007324219
1854.7745565,-270.839996337891
1854.7901815,-283.070007324219
1854.8058065,-294.950012207031
1854.8214315,-306.649993896484
1854.8370565,-318.239990234375
1854.8526815,-327.679992675781
1854.8683065,-327.679992675781
1854.8839315,-327.679992675781
1854.8995565,-327.679992675781
1854.9151815,-327.679992675781
1854.9308065,-327.679992675781
1854.9464315,-327.679992675781
1854.9620565,-327.679992675781
1854.9776815,-327.679992675781
1854.9933065,-327.679992675781
1855.0089315,-327.679992675781
1855.0245565,-327.679992675781
1855.0401815,-327.679992675781
1855.0558065,-327.679992675781
1855.0714315,-327.679992675781
1855.0870565,-327.679992675781
1855.1026815,-327.679992675781
1855.1183065,-327.679992675781
1855.1339315,-327.679992675781
1855.1495565,-327.679992675781
1855.1651815,-327.679992675781
1855.1808065,-327.679992675781
1855.1964315,-327.679992675781
1855.2120565,-327.679992675781
1855.2276815,-327.679992675781
1855.2433065,-327.679992675781
1855.2589315,-327.679992675781
1855.2745565,-327.679992675781
1855.2901815,-327.679992675781
1855.3058065,-327.679992675781
1855.3214315,-327.679992675781
1855.3370565,-327.679992675781
1855.3526815,-327.679992675781
1855.3683065,-327.679992675781
1855.3839315,-327.679992675781
1855.3995565,-327.679992675781
1855.4151815,-327.679992675781
1855.4308065,-327.679992675781
1855.4464315,-319.390014648438
1855.4620565,-305.239990234375
1855.4776815,-292.890014648438
1855.4933065,-282.839996337891
1855.5089315,-275.200012207031
1855.5245565,-269.579986572266
1855.5401815,-265.190002441406
1855.5558065,-261.079986572266
1855.5714315,-256.630004882813
1855.5870565,-251.940002441406
1855.6026815,-247.929992675781
1855.6183065,-245.649993896484
1855.6339315,-245.559997558594
1855.6495565,-247.649993896484
1855.6651815,-251.949996948242
1855.6808065,-258.5
1855.6964315,-266.720001220703
1855.7120565,-274.790008544922
1855.7276815,-280.049987792969
1855.7433065,-280.450012207031
1855.7589315,-275.869995117188
1855.7745565,-267.609985351563
1855.7901815,-256.779998779297
1855.8058065,-243.789993286133
1855.8214315,-228.800003051758
1855.8370565,-212.259994506836
1855.8526815,-194.869995117188
1855.8683065,-177.190002441406
1855.8839315,-159.419998168945
1855.8995565,-141.429992675781
1855.9151815,-123.069999694824
1855.9308065,-104.389999389648
1855.9464315,-85.5
1855.9620565,-66.5699996948242
1855.9776815,-47.7700004577637
1855.9933065,-29.1399993896484
1856.0089315,-10.5900001525879
1856.0245565,8.06999969482422
1856.0401815,26.8700008392334
1856.0558065,45.5400009155273
1856.0714315,63.5999984741211
1856.0870565,80.629997253418
1856.1026815,96.4199981689453
1856.1183065,111.080001831055
1856.1339315,124.830001831055
1856.1495565,137.75
1856.1651815,149.610000610352
1856.1808065,160.089996337891
1856.1964315,169.080001831055
1856.2120565,176.679992675781
1856.2276815,183.039993286133
1856.2433065,188.320007324219
1856.2589315,192.740005493164
1856.2745565,196.789993286133
1856.2901815,201.100006103516
1856.3058065,206.080001831055
1856.3214315,211.610000610352
1856.3370565,217.279998779297
1856.3526815,222.850006103516
1856.3683065,228.339996337891
1856.3839315,233.910003662109
1856.3995565,239.570007324219
1856.4151815,245.190002441406
1856.4308065,250.479995727539
1856.4464315,255.089996337891
1856.4620565,258.760009765625
1856.4776815,261.459991455078
1856.4933065,263.220001220703
1856.5089315,263.970001220703
1856.5245565,263.630004882813
1856.5401815,262.339996337891
1856.5558065,260.619995117188
1856.5714315,259.359985351563
1856.5870565,259.339996337891
1856.6026815,260.929992675781
1856.6183065,264.010009765625
1856.6339315,268.260009765625
1856.6495565,273.339996337891
1856.6651815,278.809997558594
1856.6808065,284.25
1856.6964315,289.299987792969
1856.7120565,293.970001220703
1856.7276815,298.589996337891
1856.7433065,303.589996337891
1856.7589315,309.109985351563
1856.7745565,314.899993896484
1856.7901815,320.540008544922
1856.8058065,325.630004882813
1856.8214315,327.670013427734
1856.8370565,327.670013427734
1856.8526815,327.670013427734
1856.8683065,327.670013427734
1856.8839315,327.670013427734
1856.8995565,327.670013427734
1856.9151815,322.809997558594
1856.9308065,317.420013427734
1856.9464315,312.010009765625
1856.9620565,306.690002441406
1856.9776815,301.390014648438
1856.9933065,295.869995117188
1857.0089315,289.769989013672
1857.0245565,282.790008544922
1857.0401815,274.899993896484
1857.0558065,266.230010986328
1857.0714315,256.899993896484
1857.0870565,246.949996948242
1857.1026815,236.550003051758
1857.1183065,226.139999389648
1857.1339315,216.330001831055
1857.1495565,207.539993286133
1857.1651815,199.669998168945
1857.1808065,192.330001831055
1857.1964315,185.270004272461
1857.2120565,178.5
1857.2276815,172.139999389648
1857.2433065,166.210006713867
1857.2589315,160.679992675781
1857.2745565,155.809997558594
1857.2901815,152.25
1857.3058065,150.710006713867
1857.3214315,151.300003051758
1857.3370565,153.559997558594
1857.3526815,156.880004882813
1857.3683065,160.75
1857.3839315,164.690002441406
1857.3995565,168.050003051758
1857.4151815,169.979995727539
1857.4308065,169.850006103516
1857.4464315,167.619995117188
1857.4620565,163.720001220703
1857.4776815,158.589996337891
1857.4933065,152.410003662109
1857.5089315,145.320007324219
1857.5245565,137.5
1857.5401815,129.229995727539
1857.5558065,120.769996643066
1857.5714315,112.23999786377
1857.5870565,103.519996643066
1857.6026815,94.4300003051758
1857.6183065,84.8199996948242
1857.6339315,74.8399963378906
1857.6495565,64.8199996948242
1857.6651815,55.0699996948242
1857.6808065,45.7999992370605
1857.6964315,37.0
1857.7120565,28.4699993133545
1857.7276815,19.8999996185303
1857.7433065,11.0500001907349
1857.7589315,1.86000001430511
1857.7745565,-7.55000019073486
1857.7901815,-17.0599994659424
1857.8058065,-26.5499992370605
1857.8214315,-35.8899993896484
1857.8370565,-44.7700004577637
1857.8526815,-52.6300010681152
1857.8683065,-58.7099990844727
1857.8839315,-62.3300018310547
1857.8995565,-63.189998626709
1857.9151815,-61.6300010681152
1857.9308065,-58.5299987792969
1857.9464315,-54.9199981689453
1857.9620565,-51.6100006103516
1857.9776815,-48.9599990844727
1857.9933065,-46.75
1858.0089315,-44.2700004577637
1858.0245565,-40.8499984741211
1858.0401815,-36.2700004577637
1858.0558065,-30.8700008392334
1858.0714315,-25.1800003051758
1858.0870565,-19.7000007629395
1858.1026815,-14.8400001525879
1858.1183065,-11.2700004577637
1858.1339315,-10.1000003814697
1858.1495565,-12.3299999237061
1858.1651815,-18.0900001525879
1858.1808065,-26.5300006866455
1858.1964315,-36.3199996948242
1858.2120565,-46.2700004577637
1858.2276815,-55.6300010681152
1858.2433065,-64.1999969482422
1858.2589315,-72.120002746582
1858.2745565,-79.7799987792969
1858.2901815,-87.6600036621094
1858.3058065,-96.1100006103516
1858.3214315,-105.180000305176
1858.3370565,-113.220001220703
1858.3526815,-121.569999694824
1858.3683065,-130.229995727539
1858.3839315,-139.059997558594
1858.3995565,-147.570007324219
1858.4151815,-155.050003051758
1858.4308065,-161.020004272461
1858.4464315,-165.570007324219
1858.4620565,-169.110000610352
1858.4776815,-171.869995117188
1858.4933065,-173.830001831055
1858.5089315,-174.899993896484
1858.5245565,-175.199996948242
1858.5401815,-174.820007324219
1858.5558065,-173.410003662109
1858.5714315,-169.949996948242
1858.5870565,-163.410003662109
1858.6026815,-153.660003662109
1858.6183065,-141.369995117188
1858.6339315,-127.430000305176
1858.6495565,-112.550003051758
1858.6651815,-97.4400024414063
1858.6808065,-83.1800003051758
1858.6964315,-71.1999969482422
1858.7120565,-62.5900001525879
1858.7276815,-57.439998626709
1858.7433065,-55.060001373291
1858.7589315,-54.7000007629395
1858.7745565,-55.8499984741211
1858.7901815,-58.1300010681152
1858.8058065,-61.0800018310547
1858.8214315,-64.2600021362305
1858.8370565,-67.4700012207031
1858.8526815,-70.8199996948242
1858.8683065,-74.5800018310547
1858.8839315,-78.870002746582
1858.8995565,-83.629997253418
1858.9151815,-88.7200012207031
1858.9308065,-94.0
1858.9464315,-99.2600021362305
1858.9620565,-104.23999786377
1858.9776815,-108.610000610352
1858.9933065,-112.25
1859.0089315,-115.379997253418
1859.0245565,-118.370002746582
1859.0401815,-121.339996337891
1859.0558065,-124.110000610352
1859.0714315,-126.440002441406
1859.0870565,-128.169998168945
1859.1026815,-129.289993286133
1859.1183065,-129.770004272461
1859.1339315,-129.419998168945
1859.1495565,-128.020004272461
1859.1651815,-125.5
1859.1808065,-121.76000213623
1859.1964315,-116.470001220703
1859.2120565,-109.290000915527
1859.2276815,-100.360000610352
1859.2433065,-90.379997253418
1859.2589315,-80.2200012207031
1859.2745565,-70.3899993896484
1859.2901815,-60.75
1859.3058065,-51.1300010681152
1859.3214315,-41.9199981689453
1859.3370565,-33.689998626709
1859.3526815,-27.4899997711182
1859.3683065,-23.1900005340576
1859.3839315,-20.2299995422363
1859.3995565,-18.1299991607666
1859.4151815,-16.9200000762939
1859.4308065,-16.9200000762939
1859.4464315,-18.25
1859.4620565,-20.6700000762939
1859.4776815,-23.8099994659424
1859.4933065,-27.2700004577637
1859.5089315,-30.75
1859.5245565,-34.0200004577637
1859.5401815,-36.9700012207031
1859.5558065,-39.6800003051758
1859.5714315,-42.439998626709
1859.5870565,-45.4900016784668
1859.6026815,-48.7400016784668
1859.6183065,-51.8600006103516
1859.6339315,-54.4700012207031
1859.6495565,-56.4199981689453
1859.6651815,-57.7999992370605
1859.6808065,-58.8699989318848
1859.6964315,-60.0099983215332
1859.7120565,-61.4799995422363
1859.7276815,-63.2999992370605
1859.7433065,-65.2099990844727
1859.7589315,-66.7799987792969
1859.7745565,-67.6399993896484
1859.7901815,-67.6399993896484
1859.8058065,-66.7099990844727
1859.8214315,-64.6100006103516
1859.8370565,-60.8699989318848
1859.8526815,-55.0
1859.8683065,-46.9300003051758
1859.8839315,-37.2400016784668
1859.8995565,-26.8199996948242
1859.9151815,-16.25
1859.9308065,-5.67999982833862
1859.9464315,4.84000015258789
1859.9620565,14.9499998092651
1859.9776815,23.8400001525879
1859.9933065,30.6800003051758
1860.0089315,35.1599998474121
1860.0245565,37.4700012207031
1860.0401815,38.0200004577637
1860.0558065,37.2099990844727
1860.0714315,35.4900016784668
1860.0870565,33.3199996948242
1860.1026815,31.0900001525879
1860.1183065,28.9300003051758
1860.1339315,26.6800003051758
1860.1495565,24.0699996948242
1860.1651815,20.9799995422363
1860.1808065,17.5499992370605
1860.1964315,14.0500001907349
1860.2120565,10.7600002288818
1860.2276815,7.80999994277954
1860.2433065,5.15999984741211
1860.2589315,2.54999995231628
1860.2745565,-0.230000004172325
1860.2901815,-3.30999994277954
1860.3058065,-6.73999977111816
1860.3214315,-10.6099996566772
1860.3370565,-14.8800001144409
1860.3526815,-19.4799995422363
1860.3683065,-23.9099998474121
1860.3839315,-27.3899993896484
