Time(s),Value(%)
1862.0083798,-31.3999996185303
1862.0240048,-25.5699996948242
1862.0396298,-19.3199996948242
1862.0552548,-12.6199998855591
1862.0708798,-5.59000015258789
1862.0865048,1.36000001430511
1862.1021298,7.76999998092651
1862.1177548,13.4499998092651
1862.1333798,18.8500003814697
1862.1490048,24.5699996948242
1862.1646298,30.7800006866455
1862.1802548,37.0499992370605
1862.1958798,42.810001373291
1862.2115048,47.6699981689453
1862.2271298,51.6599998474121
1862.2427548,55.2099990844727
1862.2583798,59.0
1862.2740048,63.5999984741211
1862.2896298,69.1399993896484
1862.3052548,75.4400024414063
1862.3208798,82.2600021362305
1862.3365048,89.4300003051758
1862.3521298,96.6399993896484
1862.3677548,103.099998474121
1862.3833798,107.580001831055
1862.3990048,109.120002746582
1862.4146298,107.819999694824
1862.4302548,104.650001525879
1862.4458798,100.690002441406
1862.4615048,96.870002746582
1862.4771298,94.0199966430664
1862.4927548,92.7600021362305
1862.5083798,93.1100006103516
1862.5240048,94.370002746582
1862.5396298,95.4700012207031
1862.5552548,95.4100036621094
1862.5708798,93.7399978637695
1862.5865048,91.5100021362305
1862.6021298,87.2600021362305
1862.6177548,80.9199981689453
1862.6333798,72.75
1862.6490048,63.4099998474121
1862.6646298,53.5299987792969
1862.6802548,42.7999992370605
1862.6958798,29.6499996185303
1862.7115048,12.3000001907349
1862.7271298,-9.89000034332275
1862.7427548,-36.8300018310547
1862.7583798,-68.620002746582
1862.7740048,-105.459999084473
1862.7896298,-146.289993286133
1862.8052548,-187.919998168945
1862.8208798,-226.050003051758
1862.8365048,-258.489990234375
1862.8521298,-287.279998779297
1862.8677548,-316.179992675781
1862.8833798,-327.679992675781
1862.8990048,-327.679992675781
1862.9146298,-327.679992675781
1862.9302548,-327.679992675781
1862.9458798,-327.679992675781
1862.9615048,-327.679992675781
1862.9771298,-327.679992675781
1862.9927548,-327.679992675781
1863.0083798,-327.679992675781
1863.0240048,-327.679992675781
1863.0396298,-327.679992675781
1863.0552548,-327.679992675781
1863.0708798,-327.679992675781
1863.0865048,-327.679992675781
1863.1021298,-327.679992675781
1863.1177548,-327.679992675781
1863.1333798,-327.679992675781
1863.1490048,-327.679992675781
1863.1646298,-327.679992675781
1863.1802548,-327.679992675781
1863.1958798,-327.679992675781
1863.2115048,-327.679992675781
1863.2271298,-285.059997558594
1863.2427548,-239.059997558594
1863.2583798,-191.410003662109
1863.2740048,-139.710006713867
1863.2896298,-83.5299987792969
1863.3052548,-24.0900001525879
1863.3208798,37.2000007629395
1863.3365048,99.3499984741211
1863.3521298,161.009994506836
1863.3677548,219.479995727539
1863.3833798,270.910003662109
1863.3990048,312.989990234375
1863.4146298,327.670013427734
1863.4302548,327.670013427734
1863.4458798,327.670013427734
1863.4615048,327.670013427734
1863.4771298,327.670013427734
1863.4927548,327.670013427734
1863.5083798,327.670013427734
1863.5240048,327.670013427734
1863.5396298,327.670013427734
1863.5552548,327.670013427734
1863.5708798,327.670013427734
1863.5865048,327.670013427734
1863.6021298,327.670013427734
1863.6177548,327.670013427734
1863.6333798,327.670013427734
1863.6490048,327.670013427734
1863.6646298,327.670013427734
1863.6802548,327.670013427734
1863.6958798,327.670013427734
1863.7115048,327.670013427734
1863.7271298,327.670013427734
1863.7427548,327.670013427734
1863.7583798,327.670013427734
1863.7740048,327.670013427734
1863.7896298,327.670013427734
1863.8052548,327.670013427734
1863.8208798,327.670013427734
1863.8365048,327.670013427734
1863.8521298,327.670013427734
1863.8677548,327.670013427734
1863.8833798,327.670013427734
1863.8990048,327.670013427734
1863.9146298,327.670013427734
1863.9302548,327.670013427734
1863.9458798,327.670013427734
1863.9615048,327.670013427734
1863.9771298,327.670013427734
1863.9927548,327.670013427734
1864.0083798,327.670013427734
1864.0240048,327.670013427734
1864.0396298,327.670013427734
1864.0552548,327.670013427734
1864.0708798,327.670013427734
1864.0865048,327.670013427734
1864.1021298,327.670013427734
1864.1177548,327.670013427734
1864.1333798,327.670013427734
1864.1490048,327.670013427734
1864.1646298,327.670013427734
1864.1802548,327.670013427734
1864.1958798,327.670013427734
1864.2115048,327.670013427734
1864.2271298,327.670013427734
1864.2427548,327.670013427734
1864.2583798,314.209991455078
1864.2740048,201.5
1864.2896298,66.8199996948242
1864.3052548,-76.9100036621094
1864.3208798,-217.649993896484
1864.3365048,-327.679992675781
1864.3521298,-327.679992675781
1864.3677548,-327.679992675781
1864.3833798,-327.679992675781
1864.3990048,-327.679992675781
1864.4146298,-327.679992675781
1864.4302548,-327.679992675781
1864.4458798,-327.679992675781
1864.4615048,-327.679992675781
1864.4771298,-327.679992675781
1864.4927548,-327.679992675781
1864.5083798,-327.679992675781
1864.5240048,-327.679992675781
1864.5396298,-327.679992675781
1864.5552548,-327.679992675781
1864.5708798,-327.679992675781
1864.5865048,-327.679992675781
1864.6021298,-327.679992675781
1864.6177548,-327.679992675781
1864.6333798,-327.679992675781
1864.6490048,-327.679992675781
1864.6646298,-327.679992675781
1864.6802548,-327.679992675781
1864.6958798,-327.679992675781
1864.7115048,-327.679992675781
1864.7271298,-327.679992675781
1864.7427548,-327.679992675781
1864.7583798,-327.679992675781
1864.7740048,-327.679992675781
1864.7896298,-327.679992675781
1864.8052548,-327.679992675781
1864.8208798,-327.679992675781
1864.8365048,-327.679992675781
1864.8521298,-327.679992675781
1864.8677548,-327.679992675781
1864.8833798,-327.679992675781
1864.8990048,-327.679992675781
1864.9146298,-327.679992675781
1864.9302548,-327.679992675781
1864.9458798,-327.679992675781
1864.9615048,-327.679992675781
1864.9771298,-327.679992675781
1864.9927548,-327.679992675781
1865.0083798,-327.679992675781
1865.0240048,-327.679992675781
1865.0396298,-327.679992675781
1865.0552548,-327.679992675781
1865.0708798,-327.679992675781
1865.0865048,-327.679992675781
1865.1021298,-327.679992675781
1865.1177548,-327.679992675781
1865.1333798,-327.679992675781
1865.1490048,-327.679992675781
1865.1646298,-327.679992675781
1865.1802548,-327.679992675781
1865.1958798,-327.679992675781
1865.2115048,-327.679992675781
1865.2271298,-297.970001220703
1865.2427548,-228.389999389648
1865.2583798,-140.729995727539
1865.2740048,-32.6599998474121
1865.2896298,89.25
1865.3052548,211.649993896484
1865.3208798,322.160003662109
1865.3365048,327.670013427734
1865.3521298,327.670013427734
1865.3677548,327.670013427734
1865.3833798,327.670013427734
1865.3990048,327.670013427734
1865.4146298,327.670013427734
1865.4302548,327.670013427734
1865.4458798,327.670013427734
1865.4615048,327.670013427734
1865.4771298,327.670013427734
1865.4927548,327.670013427734
1865.5083798,327.670013427734
1865.5240048,327.670013427734
1865.5396298,327.670013427734
1865.5552548,327.670013427734
1865.5708798,327.670013427734
1865.5865048,327.670013427734
1865.6021298,327.670013427734
1865.6177548,327.670013427734
1865.6333798,327.670013427734
1865.6490048,327.670013427734
1865.6646298,327.670013427734
1865.6802548,327.670013427734
1865.6958798,327.670013427734
1865.7115048,327.670013427734
1865.7271298,327.670013427734
1865.7427548,327.670013427734
1865.7583798,327.670013427734
1865.7740048,327.670013427734
1865.7896298,327.670013427734
1865.8052548,327.670013427734
1865.8208798,327.670013427734
1865.8365048,327.670013427734
1865.8521298,288.540008544922
1865.8677548,249.610000610352
1865.8833798,215.350006103516
1865.8990048,186.509994506836
1865.9146298,162.399993896484
1865.9302548,143.100006103516
1865.9458798,130.949996948242
1865.9615048,128.809997558594
1865.9771298,137.339996337891
1865.9927548,154.600006103516
1866.0083798,177.740005493164
1866.0240048,204.220001220703
1866.0396298,231.800003051758
1866.0552548,257.709991455078
1866.0708798,278.540008544922
1866.0865048,291.459991455078
1866.1021298,295.709991455078
1866.1177548,292.290008544922
1866.1333798,282.769989013672
1866.1490048,268.619995117188
1866.1646298,251.440002441406
1866.1802548,232.970001220703
1866.1958798,214.740005493164
1866.2115048,197.759994506836
1866.2271298,182.330001831055
1866.2427548,168.300003051758
1866.2583798,155.070007324219
1866.2740048,141.289993286133
1866.2896298,124.699996948242
1866.3052548,103.400001525879
1866.3208798,77.2900009155273
1866.3365048,48.4000015258789
1866.3521298,19.1299991607666
1866.3677548,-11.0100002288818
1866.3833798,-46.7799987792969
1866.3990048,-92.9700012207031
1866.4146298,-149.119995117188
1866.4302548,-209.169998168945
1866.4458798,-265.700012207031
1866.4615048,-313.899993896484
1866.4771298,-327.679992675781
1866.4927548,-327.679992675781
1866.5083798,-327.679992675781
1866.5240048,-327.679992675781
1866.5396298,-327.679992675781
1866.5552548,-327.679992675781
1866.5708798,-327.679992675781
1866.5865048,-310.549987792969
1866.6021298,-282.549987792969
1866.6177548,-255.389999389648
1866.6333798,-227.580001831055
1866.6490048,-197.800003051758
1866.6646298,-166.589996337891
1866.6802548,-136.220001220703
1866.6958798,-109.319999694824
1866.7115048,-87.2900009155273
1866.7271298,-69.7799987792969
1866.7427548,-55.1100006103516
1866.7583798,-40.7799987792969
1866.7740048,-22.3600006103516
1866.7896298,6.73999977111816
1866.8052548,51.9500007629395
1866.8208798,112.819999694824
1866.8365048,181.399993896484
1866.8521298,245.119995117188
1866.8677548,293.160003662109
1866.8833798,321.320007324219
1866.8990048,327.670013427734
1866.9146298,323.980010986328
1866.9302548,301.600006103516
1866.9458798,264.690002441406
1866.9615048,217.649993896484
1866.9771298,169.539993286133
1866.9927548,130.330001831055
1867.0083798,105.589996337891
1867.0240048,94.3899993896484
1867.0396298,90.8899993896484
1867.0552548,86.0999984741211
1867.0708798,70.0999984741211
1867.0865048,36.2900009155273
1867.1021298,-16.2999992370605
1867.1177548,-87.9000015258789
1867.1333798,-183.190002441406
1867.1490048,-307.709991455078
1867.1646298,-327.679992675781
1867.1802548,-327.679992675781
1867.1958798,-327.679992675781
1867.2115048,-327.679992675781
1867.2271298,-327.679992675781
1867.2427548,-327.679992675781
1867.2583798,-327.679992675781
1867.2740048,-327.679992675781
1867.2896298,-327.679992675781
1867.3052548,-327.679992675781
1867.3208798,-327.679992675781
1867.3365048,-327.679992675781
1867.3521298,-327.679992675781
1867.3677548,-327.679992675781
1867.3833798,-327.679992675781
1867.3990048,-327.679992675781
1867.4146298,-327.679992675781
1867.4302548,-327.679992675781
1867.4458798,-327.679992675781
1867.4615048,-327.679992675781
1867.4771298,-327.679992675781
1867.4927548,-327.679992675781
1867.5083798,-309.25
1867.5240048,-221.460006713867
1867.5396298,-127.889999389648
1867.5552548,-32.8800010681152
1867.5708798,60.8699989318848
1867.5865048,151.910003662109
1867.6021298,239.460006713867
1867.6177548,323.119995117188
1867.6333798,327.670013427734
1867.6490048,327.670013427734
1867.6646298,327.670013427734
1867.6802548,327.670013427734
1867.6958798,327.670013427734
1867.7115048,327.670013427734
1867.7271298,327.670013427734
1867.7427548,327.670013427734
1867.7583798,327.670013427734
1867.7740048,327.670013427734
1867.7896298,327.670013427734
1867.8052548,327.670013427734
1867.8208798,327.670013427734
1867.8365048,327.670013427734
1867.8521298,327.670013427734
1867.8677548,327.670013427734
1867.8833798,327.670013427734
1867.8990048,327.670013427734
1867.9146298,327.670013427734
1867.9302548,327.670013427734
1867.9458798,327.670013427734
1867.9615048,327.670013427734
1867.9771298,327.670013427734
1867.9927548,327.670013427734
1868.0083798,327.670013427734
1868.0240048,327.670013427734
1868.0396298,327.670013427734
1868.0552548,327.670013427734
1868.0708798,327.670013427734
1868.0865048,327.670013427734
1868.1021298,327.670013427734
1868.1177548,327.670013427734
1868.1333798,327.670013427734
1868.1490048,327.670013427734
1868.1646298,327.670013427734
1868.1802548,327.670013427734
1868.1958798,327.670013427734
1868.2115048,327.670013427734
1868.2271298,327.670013427734
1868.2427548,327.670013427734
1868.2583798,327.670013427734
1868.2740048,327.670013427734
1868.2896298,327.670013427734
1868.3052548,327.670013427734
1868.3208798,327.670013427734
1868.3365048,327.670013427734
1868.3521298,327.670013427734
1868.3677548,327.670013427734
1868.3833798,327.670013427734
1868.3990048,327.670013427734
1868.4146298,327.670013427734
1868.4302548,327.670013427734
1868.4458798,327.670013427734
1868.4615048,327.670013427734
1868.4771298,327.670013427734
1868.4927548,327.670013427734
1868.5083798,327.670013427734
1868.5240048,327.670013427734
1868.5396298,327.670013427734
1868.5552548,327.670013427734
1868.5708798,327.670013427734
1868.5865048,327.670013427734
1868.6021298,327.670013427734
1868.6177548,327.670013427734
1868.6333798,327.670013427734
1868.6490048,327.670013427734
1868.6646298,327.670013427734
1868.6802548,327.670013427734
1868.6958798,327.670013427734
1868.7115048,327.670013427734
1868.7271298,327.670013427734
1868.7427548,327.670013427734
1868.7583798,327.670013427734
1868.7740048,327.670013427734
1868.7896298,327.670013427734
1868.8052548,327.670013427734
1868.8208798,327.670013427734
1868.8365048,327.670013427734
1868.8521298,327.670013427734
1868.8677548,327.670013427734
1868.8833798,327.670013427734
1868.8990048,327.670013427734
1868.9146298,327.670013427734
1868.9302548,327.670013427734
1868.9458798,327.670013427734
1868.9615048,327.670013427734
1868.9771298,327.670013427734
1868.9927548,327.670013427734
1869.0083798,324.809997558594
1869.0240048,262.109985351563
1869.0396298,193.809997558594
1869.0552548,115.370002746582
1869.0708798,21.4599990844727
1869.0865048,-89.9700012207031
1869.1021298,-214.520004272461
1869.1177548,-327.679992675781
1869.1333798,-327.679992675781
1869.1490048,-327.679992675781
1869.1646298,-327.679992675781
1869.1802548,-327.679992675781
1869.1958798,-327.679992675781
1869.2115048,-327.679992675781
1869.2271298,-327.679992675781
1869.2427548,-327.679992675781
1869.2583798,-327.679992675781
1869.2740048,-327.679992675781
1869.2896298,-327.679992675781
1869.3052548,-327.679992675781
1869.3208798,-327.679992675781
1869.3365048,-327.679992675781
1869.3521298,-327.679992675781
1869.3677548,-327.679992675781
1869.3833798,-327.679992675781
1869.3990048,-327.679992675781
1869.4146298,-327.679992675781
1869.4302548,-327.679992675781
1869.4458798,-327.679992675781
1869.4615048,-327.679992675781
1869.4771298,-327.679992675781
1869.4927548,-327.679992675781
1869.5083798,-327.679992675781
1869.5240048,-327.679992675781
1869.5396298,-327.679992675781
1869.5552548,-327.679992675781
1869.5708798,-327.679992675781
1869.5865048,-327.679992675781
1869.6021298,-327.679992675781
1869.6177548,-327.679992675781
1869.6333798,-327.679992675781
1869.6490048,-327.679992675781
1869.6646298,-327.679992675781
1869.6802548,-300.329986572266
1869.6958798,-126.610000610352
1869.7115048,28.75
1869.7271298,157.880004882813
1869.7427548,246.600006103516
1869.7583798,266.649993896484
1869.7740048,191.639999389648
1869.7896298,20.0300006866455
1869.8052548,-223.529998779297
1869.8208798,-327.679992675781
1869.8365048,-327.679992675781
1869.8521298,-327.679992675781
1869.8677548,-327.679992675781
1869.8833798,-327.679992675781
1869.8990048,-327.679992675781
1869.9146298,-327.679992675781
1869.9302548,-327.679992675781
1869.9458798,-327.679992675781
1869.9615048,-327.679992675781
1869.9771298,-327.679992675781
1869.9927548,-327.679992675781
1870.0083798,-327.679992675781
1870.0240048,-327.679992675781
1870.0396298,-327.679992675781
1870.0552548,-327.679992675781
1870.0708798,-327.679992675781
1870.0865048,-327.679992675781
1870.1021298,-327.679992675781
1870.1177548,-327.679992675781
1870.1333798,-327.679992675781
1870.1490048,-327.679992675781
1870.1646298,-327.679992675781
1870.1802548,-327.679992675781
1870.1958798,-327.679992675781
1870.2115048,-327.679992675781
1870.2271298,-327.679992675781
1870.2427548,-327.679992675781
1870.2583798,-327.679992675781
1870.2740048,-327.679992675781
1870.2896298,-327.679992675781
1870.3052548,-327.679992675781
1870.3208798,-327.679992675781
1870.3365048,-327.679992675781
1870.3521298,-327.679992675781
1870.3677548,-327.679992675781
1870.3833798,-327.679992675781
1870.3990048,-327.679992675781
1870.4146298,-221.399993896484
1870.4302548,170.240005493164
1870.4458798,327.670013427734
1870.4615048,327.670013427734
1870.4771298,327.670013427734
1870.4927548,327.670013427734
1870.5083798,327.670013427734
1870.5240048,327.670013427734
1870.5396298,327.670013427734
1870.5552548,327.670013427734
1870.5708798,327.670013427734
1870.5865048,327.670013427734
1870.6021298,327.670013427734
1870.6177548,327.670013427734
1870.6333798,327.670013427734
1870.6490048,327.670013427734
1870.6646298,327.670013427734
1870.6802548,327.670013427734
1870.6958798,327.670013427734
1870.7115048,327.670013427734
1870.7271298,327.670013427734
1870.7427548,327.670013427734
1870.7583798,327.670013427734
1870.7740048,327.670013427734
1870.7896298,327.670013427734
1870.8052548,327.670013427734
1870.8208798,327.670013427734
1870.8365048,327.670013427734
1870.8521298,327.670013427734
1870.8677548,327.670013427734
1870.8833798,327.670013427734
1870.8990048,327.670013427734
1870.9146298,327.670013427734
1870.9302548,327.670013427734
1870.9458798,327.670013427734
1870.9615048,327.670013427734
1870.9771298,327.670013427734
1870.9927548,327.670013427734
1871.0083798,327.670013427734
1871.0240048,327.670013427734
1871.0396298,327.670013427734
1871.0552548,327.670013427734
1871.0708798,100.690002441406
1871.0865048,-181.360000610352
1871.1021298,-327.679992675781
1871.1177548,-327.679992675781
1871.1333798,-327.679992675781
1871.1490048,-327.679992675781
1871.1646298,-327.679992675781
1871.1802548,-327.679992675781
1871.1958798,-327.679992675781
1871.2115048,-327.679992675781
1871.2271298,-327.679992675781
1871.2427548,-327.679992675781
1871.2583798,-327.679992675781
1871.2740048,-327.679992675781
1871.2896298,-327.679992675781
1871.3052548,-327.679992675781
1871.3208798,-327.679992675781
1871.3365048,-327.679992675781
1871.3521298,-327.679992675781
1871.3677548,-327.679992675781
1871.3833798,-327.679992675781
1871.3990048,-327.679992675781
1871.4146298,-327.679992675781
1871.4302548,-327.679992675781
1871.4458798,-327.679992675781
1871.4615048,-327.679992675781
1871.4771298,-327.679992675781
1871.4927548,-327.679992675781
1871.5083798,-327.679992675781
1871.5240048,-327.679992675781
1871.5396298,-327.679992675781
1871.5552548,-327.679992675781
1871.5708798,-327.679992675781
1871.5865048,-327.679992675781
1871.6021298,-327.679992675781
1871.6177548,-327.679992675781
1871.6333798,-327.679992675781
1871.6490048,-327.679992675781
1871.6646298,-327.679992675781
1871.6802548,-327.679992675781
1871.6958798,-327.679992675781
1871.7115048,-327.679992675781
1871.7271298,-327.679992675781
1871.7427548,-327.679992675781
1871.7583798,152.029998779297
1871.7740048,327.670013427734
1871.7896298,327.670013427734
1871.8052548,327.670013427734
1871.8208798,327.670013427734
1871.8365048,327.670013427734
1871.8521298,327.670013427734
1871.8677548,327.670013427734
1871.8833798,327.670013427734
1871.8990048,327.670013427734
1871.9146298,327.670013427734
1871.9302548,327.670013427734
1871.9458798,327.670013427734
1871.9615048,327.670013427734
1871.9771298,327.670013427734
1871.9927548,327.670013427734
1872.0083798,327.670013427734
1872.0240048,327.670013427734
1872.0396298,327.670013427734
1872.0552548,327.670013427734
1872.0708798,327.670013427734
1872.0865048,327.670013427734
1872.1021298,162.309997558594
1872.1177548,35.1399993896484
1872.1333798,-46.3499984741211
1872.1490048,-93.0899963378906
1872.1646298,-94.5299987792969
1872.1802548,-30.8700008392334
1872.1958798,103.690002441406
1872.2115048,293.029998779297
1872.2271298,327.670013427734
1872.2427548,327.670013427734
1872.2583798,327.670013427734
1872.2740048,327.670013427734
