Time(s),Value(%)
1198.0093332,-61.2099990844727
1198.0249582,-71.4599990844727
1198.0405832,-81.0199966430664
1198.0562082,-89.3899993896484
1198.0718332,-96.4000015258789
1198.0874582,-102.279998779297
1198.1030832,-107.550003051758
1198.1187082,-112.470001220703
1198.1343332,-116.629997253418
1198.1499582,-119.23999786377
1198.1655832,-119.75
1198.1812082,-118.069999694824
1198.1968332,-114.550003051758
1198.2124582,-109.849998474121
1198.2280832,-104.779998779297
1198.2437082,-100.099998474121
1198.2593332,-96.1800003051758
1198.2749582,-92.629997253418
1198.2905832,-88.620002746582
1198.3062082,-83.1100006103516
1198.3218332,-74.5400009155273
1198.3374582,-59.7900009155273
1198.3530832,-34.9199981689453
1198.3687082,1.38999998569489
1198.3843332,45.3400001525879
1198.3999582,89.5999984741211
1198.4155832,127.120002746582
1198.4312082,153.929992675781
1198.4468332,169.740005493164
1198.4624582,176.779998779297
1198.4780832,178.229995727539
1198.4937082,176.850006103516
1198.5093332,174.029998779297
1198.5249582,169.539993286133
1198.5405832,162.259994506836
1198.5562082,151.130004882813
1198.5718332,135.619995117188
1198.5874582,115.75
1198.6030832,92.1600036621094
1198.6187082,66.3000030517578
1198.6343332,40.4300003051758
1198.6499582,16.6700000762939
1198.6655832,-3.65000009536743
1198.6812082,-20.2099990844727
1198.6968332,-33.3899993896484
1198.7124582,-43.9900016784668
1198.7280832,-53.0299987792969
1198.7437082,-61.4500007629395
1198.7593332,-69.9199981689453
1198.7749582,-78.5
1198.7905832,-86.8000030517578
1198.8062082,-94.3499984741211
1198.8218332,-100.730003356934
1198.8374582,-105.709999084473
1198.8530832,-109.309997558594
1198.8687082,-111.699996948242
1198.8843332,-113.089996337891
1198.8999582,-113.589996337891
1198.9155832,-113.26000213623
1198.9312082,-112.139999389648
1198.9468332,-110.279998779297
1198.9624582,-107.639999389648
1198.9780832,-104.080001831055
1198.9937082,-99.370002746582
1199.0093332,-93.3199996948242
1199.0249582,-86.1800003051758
1199.0405832,-78.4800033569336
1199.0562082,-70.6600036621094
1199.0718332,-62.75
1199.0874582,-54.2599983215332
1199.1030832,-43.2099990844727
1199.1187082,-25.7199993133545
1199.1343332,1.64999997615814
1199.1499582,38.439998626709
1199.1655832,79.6600036621094
1199.1812082,118.690002441406
1199.1968332,150.279998779297
1199.2124582,172.070007324219
1199.2280832,184.539993286133
1199.2437082,190.029998779297
1199.2593332,191.380004882813
1199.2749582,190.589996337891
1199.2905832,188.110000610352
1199.3062082,183.270004272461
1199.3218332,175.020004272461
1199.3374582,162.399993896484
1199.3530832,145.199996948242
1199.3687082,124.230003356934
1199.3843332,101.110000610352
1199.3999582,77.4100036621094
1199.4155832,54.2200012207031
1199.4312082,32.2299995422363
1199.4468332,11.960000038147
1199.4624582,-6.1399998664856
1199.4780832,-21.8999996185303
1199.4937082,-35.2299995422363
1199.5093332,-46.2000007629395
1199.5249582,-55.2099990844727
1199.5405832,-62.9700012207031
1199.5562082,-70.2900009155273
1199.5718332,-77.9199981689453
1199.5874582,-86.129997253418
1199.6030832,-94.5299987792969
1199.6187082,-102.330001831055
1199.6343332,-108.690002441406
1199.6499582,-113.120002746582
1199.6655832,-115.819999694824
1199.6812082,-117.699996948242
1199.6968332,-119.900001525879
1199.7124582,-123.0
1199.7280832,-126.730003356934
1199.7437082,-130.229995727539
1199.7593332,-132.860000610352
1199.7749582,-134.830001831055
1199.7905832,-136.710006713867
1199.8062082,-138.550003051758
1199.8218332,-139.789993286133
1199.8374582,-139.720001220703
1199.8530832,-137.710006713867
1199.8687082,-132.669998168945
1199.8843332,-121.870002746582
1199.8999582,-101.169998168945
1199.9155832,-68.1100006103516
1199.9312082,-24.8500003814697
1199.9468332,22.1299991607666
1199.9624582,65.5299987792969
1199.9780832,100.360000610352
1199.9937082,125.110000610352
1200.0093332,141.210006713867
1200.0249582,151.600006103516
1200.0405832,158.860000610352
1200.0562082,163.860000610352
1200.0718332,165.869995117188
1200.0874582,163.419998168945
1200.1030832,155.220001220703
1200.1187082,140.679992675781
1200.1343332,120.269996643066
1200.1499582,95.8499984741211
1200.1655832,70.5899963378906
1200.1812082,47.8499984741211
1200.1968332,29.9200000762939
1200.2124582,17.4200000762939
1200.2280832,9.39999961853027
1200.2437082,4.17000007629395
1200.2593332,0.129999995231628
1200.2749582,-3.78999996185303
1200.2905832,-8.09000015258789
1200.3062082,-12.8400001525879
1200.3218332,-18.0900001525879
1200.3374582,-24.2199993133545
1200.3530832,-31.6100006103516
1200.3687082,-40.1100006103516
1200.3843332,-48.810001373291
1200.3999582,-56.4099998474121
1200.4155832,-61.9300003051758
1200.4312082,-65.1800003051758
1200.4468332,-66.4700012207031
1200.4624582,-66.1100006103516
1200.4780832,-64.1500015258789
1200.4937082,-60.4700012207031
1200.5093332,-55.2799987792969
1200.5249582,-49.7299995422363
1200.5405832,-45.6199989318848
1200.5562082,-44.2000007629395
1200.5718332,-45.3800010681152
1200.5874582,-47.6300010681152
1200.6030832,-48.5299987792969
1200.6187082,-44.7400016784668
1200.6343332,-31.8799991607666
1200.6499582,-6.42999982833862
1200.6655832,30.8500003814697
1200.6812082,74.1699981689453
1200.6968332,115.550003051758
1200.7124582,148.710006713867
1200.7280832,171.130004882813
1200.7437082,183.820007324219
1200.7593332,189.729995727539
1200.7749582,192.190002441406
1200.7905832,193.330001831055
1200.8062082,193.300003051758
1200.8218332,190.789993286133
1200.8374582,184.320007324219
1200.8530832,173.160003662109
1200.8687082,157.369995117188
1200.8843332,137.509994506836
1200.8999582,114.330001831055
1200.9155832,88.9100036621094
1200.9312082,62.7000007629395
1200.9468332,37.3300018310547
1200.9624582,14.1899995803833
1200.9780832,-5.86999988555908
1200.9937082,-22.8299999237061
1201.0093332,-37.4099998474121
1201.0249582,-50.7599983215332
1201.0405832,-63.8699989318848
1201.0562082,-76.9899978637695
1201.0718332,-89.8600006103516
1201.0874582,-101.959999084473
1201.1030832,-112.900001525879
1201.1187082,-122.620002746582
1201.1343332,-131.399993896484
1201.1499582,-139.369995117188
1201.1655832,-146.119995117188
1201.1812082,-150.979995727539
1201.1968332,-153.619995117188
1201.2124582,-154.119995117188
1201.2280832,-152.710006713867
1201.2437082,-149.5
1201.2593332,-144.380004882813
1201.2749582,-137.309997558594
1201.2905832,-128.449996948242
1201.3062082,-118.339996337891
1201.3218332,-108.110000610352
1201.3374582,-99.0800018310547
1201.3530832,-91.8600006103516
1201.3687082,-85.2799987792969
1201.3843332,-75.9400024414063
1201.3999582,-59.560001373291
1201.4155832,-34.060001373291
1201.4312082,-1.38999998569489
1201.4468332,33.25
1201.4624582,64.120002746582
1201.4780832,87.379997253418
1201.4937082,102.290000915527
1201.5093332,110.730003356934
1201.5249582,115.75
1201.5405832,119.73999786377
1201.5562082,123.349998474121
1201.5718332,125.76000213623
1201.5874582,125.629997253418
1201.6030832,121.889999389648
1201.6187082,114.040000915527
1201.6343332,102.069999694824
1201.6499582,86.5100021362305
1201.6655832,68.5800018310547
1201.6812082,49.9199981689453
1201.6968332,32.1100006103516
1201.7124582,16.2399997711182
1201.7280832,2.6800000667572
1201.7437082,-8.81999969482422
1201.7593332,-18.8500003814697
1201.7749582,-27.9699993133545
1201.7905832,-36.5099983215332
1201.8062082,-44.3300018310547
1201.8218332,-51.0499992370605
1201.8374582,-56.3899993896484
1201.8530832,-60.4700012207031
1201.8687082,-63.8699989318848
1201.8843332,-67.370002746582
1201.8999582,-71.3099975585938
1201.9155832,-75.2399978637695
1201.9312082,-78.2699966430664
1201.9468332,-79.8000030517578
1201.9624582,-79.8499984741211
1201.9780832,-78.8399963378906
1201.9937082,-77.2200012207031
1202.0093332,-75.2699966430664
1202.0249582,-73.1800003051758
1202.0405832,-71.0100021362305
1202.0562082,-68.6500015258789
1202.0718332,-65.9400024414063
1202.0874582,-62.5699996948242
1202.1030832,-57.7799987792969
1202.1187082,-49.8899993896484
1202.1343332,-36.0099983215332
1202.1499582,-13.5799999237061
1202.1655832,17.1100006103516
1202.1812082,52.1500015258789
1202.1968332,85.7600021362305
1202.2124582,112.970001220703
1202.2280832,131.399993896484
1202.2437082,141.440002441406
1202.2593332,145.149993896484
1202.2749582,144.770004272461
1202.2905832,141.979995727539
1202.3062082,138.050003051758
1202.3218332,133.889999389648
1202.3374582,129.679992675781
1202.3530832,124.589996337891
1202.3687082,117.26000213623
1202.3843332,106.389999389648
1202.3999582,91.2900009155273
1202.4155832,72.3600006103516
1202.4312082,51.2900009155273
1202.4468332,30.3799991607666
1202.4624582,11.6300001144409
1202.4780832,-3.76999998092651
1202.4937082,-15.6599998474121
1202.5093332,-24.5499992370605
1202.5249582,-31.4500007629395
1202.5405832,-37.4599990844727
1202.5562082,-43.3499984741211
1202.5718332,-49.439998626709
1202.5874582,-55.6699981689453
1202.6030832,-61.7400016784668
1202.6187082,-67.1900024414063
1202.6343332,-71.7399978637695
1202.6499582,-75.4499969482422
1202.6655832,-78.5699996948242
1202.6812082,-81.120002746582
1202.6968332,-82.879997253418
1202.7124582,-83.5800018310547
1202.7280832,-83.1399993896484
1202.7437082,-81.7300033569336
1202.7593332,-79.5299987792969
1202.7749582,-76.5
1202.7905832,-72.6500015258789
1202.8062082,-68.5
1202.8218332,-64.8899993896484
1202.8374582,-62.310001373291
1202.8530832,-60.5699996948242
1202.8687082,-58.9700012207031
1202.8843332,-56.3300018310547
1202.8999582,-50.5299987792969
1202.9155832,-38.310001373291
1202.9312082,-17.0499992370605
1202.9468332,12.6000003814697
1202.9624582,46.2799987792969
1202.9780832,78.0599975585938
1202.9937082,103.209999084473
1203.0093332,119.650001525879
1203.0249582,128.029998779297
1203.0405832,130.710006713867
1203.0562082,130.550003051758
1203.0718332,129.449996948242
1203.0874582,127.680000305176
1203.1030832,124.410003662109
1203.1187082,118.629997253418
1203.1343332,109.660003662109
1203.1499582,97.129997253418
1203.1655832,81.1100006103516
1203.1812082,62.3499984741211
1203.1968332,42.4500007629395
1203.2124582,23.3999996185303
1203.2280832,6.8600001335144
1203.2437082,-6.3600001335144
1203.2593332,-16.3400001525879
1203.2749582,-23.8999996185303
1203.2905832,-30.2600002288818
1203.3062082,-36.4700012207031
1203.3218332,-43.0699996948242
1203.3374582,-50.0499992370605
1203.3530832,-57.1399993896484
1203.3687082,-63.9300003051758
1203.3843332,-69.9400024414063
1203.3999582,-74.7699966430664
1203.4155832,-78.3399963378906
1203.4312082,-80.8099975585938
1203.4468332,-82.3499984741211
1203.4624582,-83.0
1203.4780832,-82.7300033569336
1203.4937082,-81.5299987792969
1203.5093332,-79.4800033569336
1203.5249582,-76.8000030517578
1203.5405832,-73.8899993896484
1203.5562082,-71.2799987792969
1203.5718332,-69.1699981689453
1203.5874582,-67.129997253418
1203.6030832,-64.2699966430664
1203.6187082,-59.6500015258789
1203.6343332,-52.1399993896484
1203.6499582,-39.7000007629395
1203.6655832,-19.9699993133545
1203.6812082,7.34999990463257
1203.6968332,39.0900001525879
1203.7124582,69.8600006103516
1203.7280832,94.7099990844727
1203.7437082,111.0
1203.7593332,118.940002441406
1203.7749582,120.809997558594
1203.7905832,119.410003662109
1203.8062082,116.849998474121
1203.8218332,113.870002746582
1203.8374582,109.900001525879
1203.8530832,103.769996643066
1203.8687082,94.4899978637695
1203.8843332,81.6999969482422
1203.8999582,65.879997253418
1203.9155832,48.0400009155273
1203.9312082,29.5300006866455
1203.9468332,11.9099998474121
1203.9624582,-3.42000007629395
1203.9780832,-15.7200002670288
1203.9937082,-25.0499992370605
1204.0093332,-32.1599998474121
1204.0249582,-38.0499992370605
1204.0405832,-43.5999984741211
1204.0562082,-49.3199996948242
1204.0718332,-55.2799987792969
1204.0874582,-61.1100006103516
1204.1030832,-66.2900009155273
1204.1187082,-70.5
1204.1343332,-73.6699981689453
1204.1499582,-75.9599990844727
1204.1655832,-77.6999969482422
1204.1812082,-79.1900024414063
1204.1968332,-80.3600006103516
1204.2124582,-80.8099975585938
1204.2280832,-80.1800003051758
1204.2437082,-78.4300003051758
1204.2593332,-75.870002746582
1204.2749582,-72.8899993896484
1204.2905832,-69.9400024414063
1204.3062082,-67.4800033569336
1204.3218332,-65.6800003051758
1204.3374582,-64.0100021362305
1204.3530832,-61.3600006103516
1204.3687082,-56.2700004577637
1204.3843332,-46.9099998474121
1204.3999582,-30.7299995422363
1204.4155832,-5.57000017166138
1204.4312082,27.7600002288818
1204.4468332,64.4599990844727
1204.4624582,98.0699996948242
1204.4780832,123.75
1204.4937082,139.770004272461
1204.5093332,147.300003051758
1204.5249582,149.080001831055
1204.5405832,148.0
1204.5562082,146.059997558594
1204.5718332,143.800003051758
1204.5874582,140.399993896484
1204.6030832,134.440002441406
1204.6187082,124.769996643066
1204.6343332,110.949996948242
1204.6499582,93.2699966430664
1204.6655832,72.6100006103516
1204.6812082,50.4700012207031
1204.6968332,28.8999996185303
1204.7124582,9.86999988555908
1204.7280832,-5.59000015258789
1204.7437082,-17.6499996185303
1204.7593332,-27.1900005340576
1204.7749582,-35.2900009155273
1204.7905832,-42.8199996948242
1204.8062082,-50.3499984741211
1204.8218332,-57.9799995422363
1204.8374582,-65.3199996948242
1204.8530832,-71.7600021362305
1204.8687082,-76.7799987792969
1204.8843332,-80.1999969482422
1204.8999582,-82.2799987792969
1204.9155832,-83.8000030517578
1204.9312082,-85.6100006103516
1204.9468332,-88.0699996948242
1204.9624582,-90.879997253418
1204.9780832,-93.4800033569336
1204.9937082,-95.3199996948242
1205.0093332,-96.0899963378906
1205.0249582,-95.6999969482422
1205.0405832,-94.4100036621094
1205.0562082,-92.7600021362305
1205.0718332,-91.1500015258789
1205.0874582,-89.4800033569336
1205.1030832,-87.129997253418
1205.1187082,-83.1500015258789
1205.1343332,-75.6500015258789
1205.1499582,-60.8800010681152
1205.1655832,-34.3600006103516
1205.1812082,4.69000005722046
1205.1968332,50.8199996948242
1205.2124582,95.1100006103516
1205.2280832,130.25
1205.2437082,153.419998168945
1205.2593332,166.169998168945
1205.2749582,172.440002441406
1205.2905832,176.309997558594
1205.3062082,180.259994506836
1205.3218332,184.300003051758
1205.3374582,186.259994506836
1205.3530832,183.490005493164
1205.3687082,174.130004882813
1205.3843332,157.669998168945
1205.3999582,134.850006103516
1205.4155832,107.309997558594
1205.4312082,77.4400024414063
1205.4468332,47.9099998474121
1205.4624582,21.0499992370605
1205.4780832,-1.80999994277954
1205.4937082,-20.5499992370605
1205.5093332,-36.0099983215332
1205.5249582,-49.4799995422363
1205.5405832,-61.7900009155273
1205.5562082,-72.9199981689453
1205.5718332,-82.4100036621094
1205.5874582,-90.0800018310547
1205.6030832,-96.370002746582
1205.6187082,-101.949996948242
1205.6343332,-107.410003662109
1205.6499582,-112.930000305176
1205.6655832,-118.199996948242
1205.6812082,-122.769996643066
1205.6968332,-126.25
1205.7124582,-128.410003662109
1205.7280832,-129.160003662109
1205.7437082,-128.5
1205.7593332,-126.610000610352
1205.7749582,-123.959999084473
1205.7905832,-121.269996643066
1205.8062082,-119.01000213623
1205.8218332,-117.050003051758
1205.8374582,-114.580001831055
1205.8530832,-110.279998779297
1205.8687082,-102.610000610352
1205.8843332,-89.4400024414063
1205.8999582,-68.1399993896484
1205.9155832,-36.8199996948242
1205.9312082,3.75999999046326
1205.9468332,49.2700004577637
1205.9624582,92.9899978637695
1205.9780832,128.919998168945
1205.9937082,154.389999389648
1206.0093332,170.240005493164
1206.0249582,179.289993286133
1206.0405832,184.259994506836
1206.0562082,186.179992675781
1206.0718332,184.880004882813
1206.0874582,180.830001831055
1206.1030832,175.119995117188
1206.1187082,167.910003662109
1206.1343332,157.809997558594
1206.1499582,142.889999389648
1206.1655832,122.01000213623
1206.1812082,95.7399978637695
1206.1968332,66.3000030517578
1206.2124582,36.8199996948242
1206.2280832,10.3000001907349
1206.2437082,-11.5
1206.2593332,-28.5900001525879
1206.2749582,-42.1500015258789
1206.2905832,-53.689998626709
1206.3062082,-64.2200012207031
1206.3218332,-74.1500015258789
1206.3374582,-83.5199966430664
1206.3530832,-92.1600036621094
1206.3687082,-99.7200012207031
1206.3843332,-105.830001831055
1206.3999582,-110.360000610352
1206.4155832,-113.449996948242
1206.4312082,-115.519996643066
1206.4468332,-117.059997558594
1206.4624582,-118.23999786377
1206.4780832,-118.669998168945
1206.4937082,-117.800003051758
1206.5093332,-115.360000610352
1206.5249582,-111.519996643066
1206.5405832,-106.720001220703
1206.5562082,-101.440002441406
1206.5718332,-96.0999984741211
1206.5874582,-90.9499969482422
1206.6030832,-85.8300018310547
1206.6187082,-79.8899993896484
1206.6343332,-71.4199981689453
1206.6499582,-57.7200012207031
1206.6655832,-35.8499984741211
1206.6812082,-4.46999979019165
1206.6968332,35.0099983215332
1206.7124582,78.25
1206.7280832,119.080001831055
1206.7437082,152.059997558594
1206.7593332,174.809997558594
1206.7749582,188.320007324219
1206.7905832,195.470001220703
1206.8062082,199.169998168945
1206.8218332,201.169998168945
1206.8374582,201.850006103516
1206.8530832,200.350006103516
1206.8687082,194.779998779297
1206.8843332,183.210006713867
1206.8999582,164.820007324219
1206.9155832,140.369995117188
1206.9312082,111.790000915527
1206.9468332,81.5199966430664
1206.9624582,51.9000015258789
1206.9780832,24.9300003051758
1206.9937082,1.83000004291534
1207.0093332,-17.2000007629395
1207.0249582,-32.8899993896484
1207.0405832,-46.4000015258789
1207.0562082,-58.7999992370605
1207.0718332,-70.7799987792969
1207.0874582,-82.5999984741211
1207.1030832,-94.0599975585938
1207.1187082,-104.589996337891
1207.1343332,-113.680000305176
1207.1499582,-121.080001831055
1207.1655832,-126.720001220703
1207.1812082,-130.789993286133
1207.1968332,-133.699996948242
1207.2124582,-135.710006713867
1207.2280832,-136.600006103516
1207.2437082,-135.910003662109
1207.2593332,-133.419998168945
1207.2749582,-129.300003051758
1207.2905832,-124.0
1207.3062082,-118.080001831055
1207.3218332,-112.059997558594
1207.3374582,-106.339996337891
1207.3530832,-100.879997253418
1207.3687082,-94.9899978637695
1207.3843332,-87.3300018310547
1207.3999582,-75.6900024414063
1207.4155832,-57.0900001525879
1207.4312082,-28.9599990844727
1207.4468332,9.01000022888184
1207.4624582,53.3899993896484
1207.4780832,97.7099990844727
1207.4937082,135.440002441406
1207.5093332,163.0
1207.5249582,180.490005493164
1207.5405832,190.509994506836
1207.5562082,196.199996948242
1207.5718332,199.779998779297
1207.5874582,202.070007324219
1207.6030832,202.479995727539
1207.6187082,199.279998779297
1207.6343332,190.490005493164
1207.6499582,174.979995727539
1207.6655832,152.929992675781
1207.6812082,125.699996948242
1207.6968332,95.4599990844727
1207.7124582,64.6500015258789
1207.7280832,35.7200012207031
1207.7437082,10.460000038147
1207.7593332,-10.5100002288818
1207.7749582,-27.7099990844727
1207.7905832,-42.2200012207031
1207.8062082,-55.1800003051758
1207.8218332,-67.4700012207031
1207.8374582,-79.6600036621094
1207.8530832,-91.7399978637695
1207.8687082,-103.110000610352
1207.8843332,-112.919998168945
1207.8999582,-120.660003662109
1207.9155832,-126.269996643066
1207.9312082,-130.220001220703
1207.9468332,-133.190002441406
1207.9624582,-135.559997558594
1207.9780832,-136.979995727539
1207.9937082,-136.710006713867
1208.0093332,-134.229995727539
1208.0249582,-129.600006103516
1208.0405832,-123.360000610352
1208.0562082,-116.220001220703
1208.0718332,-108.870002746582
1208.0874582,-101.930000305176
1208.1030832,-95.6100006103516
1208.1187082,-89.5899963378906
1208.1343332,-83.0899963378906
1208.1499582,-74.8300018310547
1208.1655832,-62.6500015258789
1208.1812082,-43.2299995422363
1208.1968332,-13.5600004196167
1208.2124582,25.9699993133545
1208.2280832,70.4199981689453
1208.2437082,112.610000610352
1208.2593332,146.589996337891
1208.2749582,169.699996948242
1208.2905832,182.800003051758
1208.3062082,188.979995727539
1208.3218332,191.589996337891
1208.3374582,192.880004882813
