Time(s),Value(%)
1198.0093332,37.5800018310547
1198.0249582,35.6300010681152
1198.0405832,33.2900009155273
1198.0562082,31.0900001525879
1198.0718332,29.0400009155273
1198.0874582,26.7299995422363
1198.1030832,23.5699996948242
1198.1187082,19.1200008392334
1198.1343332,13.4799995422363
1198.1499582,7.30000019073486
1198.1655832,1.55999994277954
1198.1812082,-2.80999994277954
1198.1968332,-5.34000015258789
1198.2124582,-6.19000005722046
1198.2280832,-6.15000009536743
1198.2437082,-6.23999977111816
1198.2593332,-7.1399998664856
1198.2749582,-9.0
1198.2905832,-11.5100002288818
1198.3062082,-14.0900001525879
1198.3218332,-16.2099990844727
1198.3374582,-17.5799999237061
1198.3530832,-18.2700004577637
1198.3687082,-18.5300006866455
1198.3843332,-18.6800003051758
1198.3999582,-18.9799995422363
1198.4155832,-19.5100002288818
1198.4312082,-20.0699996948242
1198.4468332,-20.2700004577637
1198.4624582,-19.8500003814697
1198.4780832,-18.8099994659424
1198.4937082,-17.3600006103516
1198.5093332,-15.7399997711182
1198.5249582,-14.1800003051758
1198.5405832,-12.9399995803833
1198.5562082,-12.1599998474121
1198.5718332,-11.8299999237061
1198.5874582,-11.7399997711182
1198.6030832,-11.5900001525879
1198.6187082,-11.0299997329712
1198.6343332,-9.68000030517578
1198.6499582,-6.94000005722046
1198.6655832,-2.19000005722046
1198.6812082,4.84000015258789
1198.6968332,13.6099996566772
1198.7124582,22.6900005340576
1198.7280832,30.3600006103516
1198.7437082,35.3600006103516
1198.7593332,37.4500007629395
1198.7749582,37.3699989318848
1198.7905832,36.2099990844727
1198.8062082,34.8199996948242
1198.8218332,33.560001373291
1198.8374582,32.3800010681152
1198.8530832,30.9699993133545
1198.8687082,28.8799991607666
1198.8843332,25.5699996948242
1198.8999582,20.6599998474121
1198.9155832,14.2799997329712
1198.9312082,7.09999990463257
1198.9468332,0.219999998807907
1198.9624582,-5.38000011444092
1198.9780832,-9.28999996185303
1198.9937082,-11.7399997711182
1199.0093332,-13.3900003433228
1199.0249582,-14.75
1199.0405832,-15.8599996566772
1199.0562082,-16.4400005340576
1199.0718332,-16.2600002288818
1199.0874582,-15.5
1199.1030832,-14.5900001525879
1199.1187082,-13.9200000762939
1199.1343332,-13.6300001144409
1199.1499582,-13.6599998474121
1199.1655832,-13.7799997329712
1199.1812082,-13.710000038147
1199.1968332,-13.2799997329712
1199.2124582,-12.5600004196167
1199.2280832,-11.8000001907349
1199.2437082,-11.2299995422363
1199.2593332,-10.8800001144409
1199.2749582,-10.5699996948242
1199.2905832,-10.039999961853
1199.3062082,-9.13000011444092
1199.3218332,-8.0
1199.3374582,-6.96000003814697
1199.3530832,-6.28999996185303
1199.3687082,-5.92999982833862
1199.3843332,-5.46999979019165
1199.3999582,-4.25
1199.4155832,-1.46000003814697
1199.4312082,3.53999996185303
1199.4468332,10.789999961853
1199.4624582,19.3299999237061
1199.4780832,27.4200000762939
1199.4937082,33.2999992370605
1199.5093332,36.1500015258789
1199.5249582,36.3400001525879
1199.5405832,34.9300003051758
1199.5562082,32.9799995422363
1199.5718332,31.0699996948242
1199.5874582,29.2700004577637
1199.6030832,27.2900009155273
1199.6187082,24.6299991607666
1199.6343332,20.7700004577637
1199.6499582,15.5299997329712
1199.6655832,9.35000038146973
1199.6812082,3.22000002861023
1199.6968332,-1.86000001430511
1199.7124582,-5.46999979019165
1199.7280832,-7.78000020980835
1199.7437082,-9.30000019073486
1199.7593332,-10.4200000762939
1199.7749582,-11.289999961853
1199.7905832,-11.9399995803833
1199.8062082,-12.4300003051758
1199.8218332,-12.9099998474121
1199.8374582,-13.5100002288818
1199.8530832,-14.2299995422363
1199.8687082,-14.9899997711182
1199.8843332,-15.6400003433228
1199.8999582,-16.0100002288818
1199.9155832,-16.0200004577637
1199.9312082,-15.75
1199.9468332,-15.3400001525879
1199.9624582,-14.8800001144409
1199.9780832,-14.460000038147
1199.9937082,-14.1099996566772
1200.0093332,-13.8500003814697
1200.0249582,-13.6300001144409
1200.0405832,-13.4099998474121
1200.0562082,-13.2600002288818
1200.0718332,-13.1800003051758
1200.0874582,-12.9899997711182
1200.1030832,-12.3800001144409
1200.1187082,-11.1999998092651
1200.1343332,-9.51000022888184
1200.1499582,-7.42000007629395
1200.1655832,-4.69000005722046
1200.1812082,-0.670000016689301
1200.1968332,5.19999980926514
1200.2124582,12.8000001907349
1200.2280832,21.0100002288818
1200.2437082,28.3099994659424
1200.2593332,33.4099998474121
1200.2749582,35.7900009155273
1200.2905832,35.7700004577637
1200.3062082,34.1699981689453
1200.3218332,31.8700008392334
1200.3374582,29.4599990844727
1200.3530832,27.0799999237061
1200.3687082,24.5
1200.3843332,21.3799991607666
1200.3999582,17.5699996948242
1200.4155832,13.1000003814697
1200.4312082,8.10000038146973
1200.4468332,2.75
1200.4624582,-2.69000005722046
1200.4780832,-7.76999998092651
1200.4937082,-11.8999996185303
1200.5093332,-14.6700000762939
1200.5249582,-16.0699996948242
1200.5405832,-16.5300006866455
1200.5562082,-16.5799999237061
1200.5718332,-16.6499996185303
1200.5874582,-16.9099998474121
1200.6030832,-17.2600002288818
1200.6187082,-17.5799999237061
1200.6343332,-17.8199996948242
1200.6499582,-18.0900001525879
1200.6655832,-18.5200004577637
1200.6812082,-19.1800003051758
1200.6968332,-20.0400009155273
1200.7124582,-20.9400005340576
1200.7280832,-21.6100006103516
1200.7437082,-21.7900009155273
1200.7593332,-21.3400001525879
1200.7749582,-20.3199996948242
1200.7905832,-18.8899993896484
1200.8062082,-17.3099994659424
1200.8218332,-15.7600002288818
1200.8374582,-14.2299995422363
1200.8530832,-12.6099996566772
1200.8687082,-10.8199996948242
1200.8843332,-8.97000026702881
1200.8999582,-7.17000007629395
1200.9155832,-5.30000019073486
1200.9312082,-2.75999999046326
1200.9468332,1.32000005245209
1200.9624582,7.55999994277954
1200.9780832,15.5200004577637
1200.9937082,23.7700004577637
1201.0093332,30.4899997711182
1201.0249582,34.3600006103516
1201.0405832,35.1300010681152
1201.0562082,33.5999984741211
1201.0718332,31.0300006866455
1201.0874582,28.4699993133545
1201.1030832,26.3899993896484
1201.1187082,24.6800003051758
1201.1343332,22.8999996185303
1201.1499582,20.6599998474121
1201.1655832,17.75
1201.1812082,14.1199998855591
1201.1968332,9.8100004196167
1201.2124582,4.92999982833862
1201.2280832,-0.259999990463257
1201.2437082,-5.36999988555908
1201.2593332,-9.90999984741211
1201.2749582,-13.460000038147
1201.2905832,-15.8500003814697
1201.3062082,-17.1900005340576
1201.3218332,-17.7299995422363
1201.3374582,-17.7700004577637
1201.3530832,-17.6800003051758
1201.3687082,-17.7900009155273
1201.3843332,-18.3199996948242
1201.3999582,-19.2800006866455
1201.4155832,-20.4500007629395
1201.4312082,-21.4300003051758
1201.4468332,-21.75
1201.4624582,-21.1599998474121
1201.4780832,-19.7000007629395
1201.4937082,-17.75
1201.5093332,-15.7399997711182
1201.5249582,-13.8999996185303
1201.5405832,-12.2600002288818
1201.5562082,-10.710000038147
1201.5718332,-9.25
1201.5874582,-8.03999996185303
1201.6030832,-7.28999996185303
1201.6187082,-7.03999996185303
1201.6343332,-7.01000022888184
1201.6499582,-6.73999977111816
1201.6655832,-5.73999977111816
1201.6812082,-3.38000011444092
1201.6968332,0.990000009536743
1201.7124582,7.61999988555908
1201.7280832,15.7600002288818
1201.7437082,23.8099994659424
1201.7593332,30.0300006866455
1201.7749582,33.4300003051758
1201.7905832,34.0900001525879
1201.8062082,32.939998626709
1201.8218332,31.1399993896484
1201.8374582,29.4699993133545
1201.8530832,28.0499992370605
1201.8687082,26.5300006866455
1201.8843332,24.4200000762939
1201.8999582,21.3600006103516
1201.9155832,17.2700004577637
1201.9312082,12.2799997329712
1201.9468332,6.67999982833862
1201.9624582,1.03999996185303
1201.9780832,-4.0
1201.9937082,-8.02999973297119
1202.0093332,-10.9499998092651
1202.0249582,-12.9300003051758
1202.0405832,-14.2200002670288
1202.0562082,-15.039999961853
1202.0718332,-15.5799999237061
1202.0874582,-16.0300006866455
1202.1030832,-16.5
1202.1187082,-17.0100002288818
1202.1343332,-17.4799995422363
1202.1499582,-17.8099994659424
1202.1655832,-17.9400005340576
1202.1812082,-17.8799991607666
1202.1968332,-17.6700000762939
1202.2124582,-17.3400001525879
1202.2280832,-16.9099998474121
1202.2437082,-16.3199996948242
1202.2593332,-15.4399995803833
1202.2749582,-14.2200002670288
1202.2905832,-12.6700000762939
1202.3062082,-10.9399995803833
1202.3218332,-9.19999980926514
1202.3374582,-7.59999990463257
1202.3530832,-6.28000020980835
1202.3687082,-5.28999996185303
1202.3843332,-4.6100001335144
1202.3999582,-4.07999992370605
1202.4155832,-3.40000009536743
1202.4312082,-2.00999999046326
1202.4468332,0.850000023841858
1202.4624582,5.82999992370605
1202.4780832,12.8400001525879
1202.4937082,20.8199996948242
1202.5093332,28.0799999237061
1202.5249582,33.1500015258789
1202.5405832,35.4300003051758
1202.5562082,35.2999992370605
1202.5718332,33.7200012207031
1202.5874582,31.6299991607666
1202.6030832,29.6000003814697
1202.6187082,27.7099990844727
1202.6343332,25.75
1202.6499582,23.3799991607666
1202.6655832,20.2800006866455
1202.6812082,16.2999992370605
1202.6968332,11.4200000762939
1202.7124582,5.8600001335144
1202.7280832,0.109999999403954
1202.7437082,-5.05999994277954
1202.7593332,-8.98999977111816
1202.7749582,-11.3599996566772
1202.7905832,-12.3599996566772
1202.8062082,-12.5600004196167
1202.8218332,-12.6000003814697
1202.8374582,-12.8999996185303
1202.8530832,-13.5600004196167
1202.8687082,-14.4399995803833
1202.8843332,-15.3100004196167
1202.8999582,-15.9099998474121
1202.9155832,-16.0499992370605
1202.9312082,-15.6400003433228
1202.9468332,-14.7600002288818
1202.9624582,-13.6700000762939
1202.9780832,-12.6999998092651
1202.9937082,-12.1099996566772
1203.0093332,-11.960000038147
1203.0249582,-12.0799999237061
1203.0405832,-12.1400003433228
1203.0562082,-11.8900003433228
1203.0718332,-11.1999998092651
1203.0874582,-10.1700000762939
1203.1030832,-9.02000045776367
1203.1187082,-8.0
1203.1343332,-7.23999977111816
1203.1499582,-6.6399998664856
1203.1655832,-5.78000020980835
1203.1812082,-3.89000010490417
1203.1968332,-0.159999996423721
1203.2124582,5.73999977111816
1203.2280832,13.2399997711182
1203.2437082,20.9400005340576
1203.2593332,27.2700004577637
1203.2749582,31.1900005340576
1203.2905832,32.560001373291
1203.3062082,31.9400005340576
1203.3218332,30.1900005340576
1203.3374582,28.0400009155273
1203.3530832,25.9099998474121
1203.3687082,23.8199996948242
1203.3843332,21.5599994659424
1203.3999582,18.7600002288818
1203.4155832,15.039999961853
1203.4312082,10.1999998092651
1203.4468332,4.5
1203.4624582,-1.25999999046326
1203.4780832,-6.1100001335144
1203.4937082,-9.43000030517578
1203.5093332,-11.3199996948242
1203.5249582,-12.3299999237061
1203.5405832,-13.0
1203.5562082,-13.6300001144409
1203.5718332,-14.2700004577637
1203.5874582,-14.9200000762939
1203.6030832,-15.4899997711182
1203.6187082,-15.8500003814697
1203.6343332,-15.9200000762939
1203.6499582,-15.6899995803833
1203.6655832,-15.2799997329712
1203.6812082,-14.8400001525879
1203.6968332,-14.460000038147
1203.7124582,-14.1000003814697
1203.7280832,-13.6499996185303
1203.7437082,-13.0500001907349
1203.7593332,-12.3100004196167
1203.7749582,-11.5299997329712
1203.7905832,-10.8100004196167
1203.8062082,-10.2299995422363
1203.8218332,-9.8100004196167
1203.8374582,-9.5
1203.8530832,-9.23999977111816
1203.8687082,-8.94999980926514
1203.8843332,-8.5
1203.8999582,-7.73999977111816
1203.9155832,-6.48000001907349
1203.9312082,-4.21000003814697
1203.9468332,-0.150000005960464
1203.9624582,6.19999980926514
1203.9780832,14.3699998855591
1203.9937082,22.8500003814697
1204.0093332,29.8299999237061
1204.0249582,34.1300010681152
1204.0405832,35.6199989318848
1204.0562082,35.0400009155273
1204.0718332,33.4300003051758
1204.0874582,31.6000003814697
1204.1030832,29.8999996185303
1204.1187082,28.2199993133545
1204.1343332,26.1499996185303
1204.1499582,23.2299995422363
1204.1655832,19.1499996185303
1204.1812082,13.9399995803833
1204.1968332,7.96000003814697
1204.2124582,1.73000001907349
1204.2280832,-4.09999990463257
1204.2437082,-8.98999977111816
1204.2593332,-12.6400003433228
1204.2749582,-15.0600004196167
1204.2905832,-16.5699996948242
1204.3062082,-17.5100002288818
1204.3218332,-18.1599998474121
1204.3374582,-18.7099990844727
1204.3530832,-19.1900005340576
1204.3687082,-19.5900001525879
1204.3843332,-19.7900009155273
1204.3999582,-19.7600002288818
1204.4155832,-19.4899997711182
1204.4312082,-18.9899997711182
1204.4468332,-18.2800006866455
1204.4624582,-17.4500007629395
1204.4780832,-16.6200008392334
1204.4937082,-15.9200000762939
1204.5093332,-15.4099998474121
1204.5249582,-15.1599998474121
1204.5405832,-15.1300001144409
1204.5562082,-15.1400003433228
1204.5718332,-14.8999996185303
1204.5874582,-14.210000038147
1204.6030832,-13.1000003814697
1204.6187082,-11.6899995803833
1204.6343332,-10.1099996566772
1204.6499582,-8.44999980926514
1204.6655832,-6.67000007629395
1204.6812082,-4.44000005722046
1204.6968332,-1.1599999666214
1204.7124582,3.79999995231628
1204.7280832,10.5900001525879
1204.7437082,18.4699993133545
1204.7593332,26.0400009155273
1204.7749582,31.8199996948242
1204.7905832,34.9099998474121
1204.8062082,35.3400001525879
1204.8218332,33.8300018310547
1204.8374582,31.3700008392334
1204.8530832,28.7700004577637
1204.8687082,26.4099998474121
1204.8843332,24.2399997711182
1204.8999582,21.8500003814697
1204.9155832,18.7000007629395
1204.9312082,14.3999996185303
1204.9468332,8.9399995803833
1204.9624582,2.83999991416931
1204.9780832,-2.96000003814697
1204.9937082,-7.6100001335144
1205.0093332,-10.710000038147
1205.0249582,-12.5
1205.0405832,-13.5699996948242
1205.0562082,-14.4399995803833
1205.0718332,-15.3299999237061
1205.0874582,-16.2299995422363
1205.1030832,-16.9599990844727
1205.1187082,-17.3500003814697
1205.1343332,-17.2700004577637
1205.1499582,-16.75
1205.1655832,-15.9700002670288
1205.1812082,-15.210000038147
1205.1968332,-14.7399997711182
1205.2124582,-14.6899995803833
1205.2280832,-15.0100002288818
1205.2437082,-15.3800001144409
1205.2593332,-15.3900003433228
1205.2749582,-14.7200002670288
1205.2905832,-13.3599996566772
1205.3062082,-11.5900001525879
1205.3218332,-9.84000015258789
1205.3374582,-8.47999954223633
1205.3530832,-7.61999988555908
1205.3687082,-7.03999996185303
1205.3843332,-6.42000007629395
1205.3999582,-5.51999998092651
1205.4155832,-4.17999982833862
1205.4312082,-2.01999998092651
1205.4468332,1.63999998569489
1205.4624582,7.34000015258789
1205.4780832,14.8299999237061
1205.4937082,22.9200000762939
1205.5093332,29.9300003051758
1205.5249582,34.5099983215332
1205.5405832,36.2700004577637
1205.5562082,35.7200012207031
1205.5718332,33.8199996948242
1205.5874582,31.4599990844727
1205.6030832,29.1599998474121
1205.6187082,26.9500007629395
1205.6343332,24.5499992370605
1205.6499582,21.5100002288818
1205.6655832,17.4699993133545
1205.6812082,12.3000001907349
1205.6968332,6.19000005722046
1205.7124582,-0.259999990463257
1205.7280832,-6.15999984741211
1205.7437082,-10.5900001525879
1205.7593332,-13.0799999237061
1205.7749582,-13.8699998855591
1205.7905832,-13.710000038147
1205.8062082,-13.460000038147
1205.8218332,-13.6899995803833
1205.8374582,-14.460000038147
1205.8530832,-15.5299997329712
1205.8687082,-16.5400009155273
1205.8843332,-17.2900009155273
1205.8999582,-17.7000007629395
1205.9155832,-17.8299999237061
1205.9312082,-17.7399997711182
1205.9468332,-17.5200004577637
1205.9624582,-17.1900005340576
1205.9780832,-16.7099990844727
1205.9937082,-16.0
1206.0093332,-15.0
1206.0249582,-13.7399997711182
1206.0405832,-12.3999996185303
1206.0562082,-11.2700004577637
1206.0718332,-10.539999961853
1206.0874582,-10.1999998092651
1206.1030832,-10.0
1206.1187082,-9.63000011444092
1206.1343332,-8.81999969482422
1206.1499582,-7.42999982833862
1206.1655832,-5.36999988555908
1206.1812082,-2.44000005722046
1206.1968332,1.87000000476837
1206.2124582,8.0
1206.2280832,15.6400003433228
1206.2437082,23.5699996948242
1206.2593332,30.2099990844727
1206.2749582,34.3800010681152
1206.2905832,35.8699989318848
1206.3062082,35.25
1206.3218332,33.439998626709
1206.3374582,31.2600002288818
1206.3530832,29.1599998474121
1206.3687082,27.1700000762939
1206.3843332,24.9699993133545
1206.3999582,22.1800003051758
1206.4155832,18.5599994659424
1206.4312082,14.0500001907349
1206.4468332,8.77000045776367
1206.4624582,3.01999998092651
1206.4780832,-2.63000011444092
1206.4937082,-7.57000017166138
1206.5093332,-11.3100004196167
1206.5249582,-13.8199996948242
1206.5405832,-15.460000038147
1206.5562082,-16.6200008392334
1206.5718332,-17.5599994659424
1206.5874582,-18.3999996185303
1206.6030832,-19.25
1206.6187082,-20.2000007629395
1206.6343332,-21.2099990844727
1206.6499582,-22.1599998474121
1206.6655832,-22.9400005340576
1206.6812082,-23.5200004577637
1206.6968332,-23.8799991607666
1206.7124582,-23.8700008392334
1206.7280832,-23.2600002288818
1206.7437082,-21.9599990844727
1206.7593332,-20.0699996948242
1206.7749582,-17.8600006103516
1206.7905832,-15.6099996566772
1206.8062082,-13.5100002288818
1206.8218332,-11.6400003433228
1206.8374582,-9.97000026702881
1206.8530832,-8.40999984741211
1206.8687082,-6.8899998664856
1206.8843332,-5.42999982833862
1206.8999582,-4.05000019073486
1206.9155832,-2.64000010490417
1206.9312082,-0.899999976158142
1206.9468332,1.69000005722046
1206.9624582,5.82999992370605
1206.9780832,11.8800001144409
1206.9937082,19.4300003051758
1207.0093332,27.2299995422363
1207.0249582,33.7200012207031
1207.0405832,37.7900009155273
1207.0562082,39.2299995422363
1207.0718332,38.6199989318848
1207.0874582,36.8699989318848
1207.1030832,34.75
1207.1187082,32.6800003051758
1207.1343332,30.7199993133545
1207.1499582,28.6399993896484
1207.1655832,26.0799999237061
1207.1812082,22.5900001525879
1207.1968332,18.0100002288818
1207.2124582,12.5100002288818
1207.2280832,6.65999984741211
1207.2437082,1.27999997138977
1207.2593332,-2.91000008583069
1207.2749582,-5.6100001335144
1207.2905832,-7.05000019073486
1207.3062082,-7.78999996185303
1207.3218332,-8.35999965667725
1207.3374582,-9.05000019073486
1207.3530832,-9.9399995803833
1207.3687082,-11.0100002288818
1207.3843332,-12.210000038147
1207.3999582,-13.3900003433228
1207.4155832,-14.3500003814697
1207.4312082,-14.9399995803833
1207.4468332,-15.1300001144409
1207.4624582,-15.0900001525879
1207.4780832,-14.9899997711182
1207.4937082,-14.8999996185303
1207.5093332,-14.6700000762939
1207.5249582,-14.0799999237061
1207.5405832,-13.0799999237061
1207.5562082,-11.8199996948242
1207.5718332,-10.5900001525879
1207.5874582,-9.6899995803833
1207.6030832,-9.27000045776367
1207.6187082,-9.27999973297119
1207.6343332,-9.5
1207.6499582,-9.72000026702881
1207.6655832,-9.82999992370605
1207.6812082,-9.72000026702881
1207.6968332,-9.18000030517578
1207.7124582,-7.75
1207.7280832,-4.73000001907349
1207.7437082,0.409999996423721
1207.7593332,7.53999996185303
1207.7749582,15.4700002670288
1207.7905832,22.4899997711182
1207.8062082,27.0699996948242
1207.8218332,28.4899997711182
1207.8374582,27.1299991607666
1207.8530832,24.1499996185303
1207.8687082,20.8799991607666
1207.8843332,18.2399997711182
1207.8999582,16.4599990844727
1207.9155832,15.2200002670288
1207.9312082,13.8699998855591
1207.9468332,11.75
1207.9624582,8.44999980926514
1207.9780832,4.07999992370605
1207.9937082,-0.790000021457672
1208.0093332,-5.42999982833862
1208.0249582,-9.18000030517578
1208.0405832,-11.6999998092651
1208.0562082,-13.0500001907349
1208.0718332,-13.5299997329712
1208.0874582,-13.5299997329712
1208.1030832,-13.3599996566772
1208.1187082,-13.2200002670288
1208.1343332,-13.1999998092651
1208.1499582,-13.3500003814697
1208.1655832,-13.6099996566772
1208.1812082,-13.8699998855591
1208.1968332,-14.0500001907349
1208.2124582,-14.0699996948242
1208.2280832,-13.8500003814697
1208.2437082,-13.3000001907349
1208.2593332,-12.4399995803833
1208.2749582,-11.4300003051758
1208.2905832,-10.5500001907349
1208.3062082,-9.94999980926514
1208.3218332,-9.60000038146973
1208.3374582,-9.30000019073486
1208.3530832,-8.96000003814697
1208.3687082,-8.60999965667725
1208.3843332,-8.27999973297119
