Time(s),Value(%)
764.0093332,11.4700002670288
764.0249582,51.810001373291
764.0405832,93.2900009155273
764.0562082,133.419998168945
764.0718332,169.229995727539
764.0874582,197.949996948242
764.1030832,218.339996337891
764.1187082,230.809997558594
764.1343332,236.490005493164
764.1499582,236.25
764.1655832,230.539993286133
764.1812082,219.460006713867
764.1968332,203.070007324219
764.2124582,181.970001220703
764.2280832,157.449996948242
764.2437082,130.889999389648
764.2593332,103.449996948242
764.2749582,76.2399978637695
764.2905832,50.4700012207031
764.3062082,27.2700004577637
764.3218332,7.25
764.3374582,-9.89999961853027
764.3530832,-25.2700004577637
764.3687082,-40.0499992370605
764.3843332,-54.9099998474121
764.3999582,-69.7099990844727
764.4155832,-83.7200012207031
764.4312082,-96.1999969482422
764.4468332,-106.800003051758
764.4624582,-115.550003051758
764.4780832,-122.559997558594
764.4937082,-127.919998168945
764.5093332,-131.649993896484
764.5249582,-134.009994506836
764.5405832,-135.589996337891
764.5562082,-136.960006713867
764.5718332,-138.130004882813
764.5874582,-138.679992675781
764.6030832,-138.330001831055
764.6187082,-137.050003051758
764.6343332,-134.850006103516
764.6499582,-131.380004882813
764.6655832,-125.370002746582
764.6812082,-114.569999694824
764.6968332,-96.6100006103516
764.7124582,-70.4499969482422
764.7280832,-37.1599998474121
764.7437082,0.209999993443489
764.7593332,37.7099990844727
764.7749582,72.0699996948242
764.7905832,101.720001220703
764.8062082,126.309997558594
764.8218332,145.649993896484
764.8374582,159.360000610352
764.8530832,167.190002441406
764.8687082,169.100006103516
764.8843332,165.330001831055
764.8999582,156.309997558594
764.9155832,142.610000610352
764.9312082,124.769996643066
764.9468332,103.629997253418
764.9624582,80.6399993896484
764.9780832,57.5299987792969
764.9937082,35.7700004577637
765.0093332,16.2399997711182
765.0249582,-0.860000014305115
765.0405832,-16.0699996948242
765.0562082,-30.1800003051758
765.0718332,-43.6800003051758
765.0874582,-56.6399993896484
765.1030832,-68.8300018310547
765.1187082,-79.9499969482422
765.1343332,-89.7699966430664
765.1499582,-98.120002746582
765.1655832,-104.930000305176
765.1812082,-110.440002441406
765.1968332,-114.879997253418
765.2124582,-118.139999389648
765.2280832,-119.849998474121
765.2437082,-119.779998779297
765.2593332,-118.019996643066
765.2749582,-115.029998779297
765.2905832,-111.519996643066
765.3062082,-107.940002441406
765.3218332,-104.139999389648
765.3374582,-99.75
765.3530832,-94.4499969482422
765.3687082,-87.9700012207031
765.3843332,-79.5800018310547
765.3999582,-67.8199996948242
765.4155832,-50.5200004577637
765.4312082,-25.4599990844727
765.4468332,7.96000003814697
765.4624582,47.5900001525879
765.4780832,89.2699966430664
765.4937082,128.699996948242
765.5093332,162.789993286133
765.5249582,190.309997558594
765.5405832,211.619995117188
765.5562082,227.490005493164
765.5718332,237.880004882813
765.5874582,242.169998168945
765.6030832,239.860000610352
765.6187082,230.940002441406
765.6343332,215.75
765.6499582,194.899993896484
765.6655832,169.139999389648
765.6812082,139.470001220703
765.6968332,107.540000915527
765.7124582,75.879997253418
765.7280832,47.0999984741211
765.7437082,22.7900009155273
765.7593332,3.19000005722046
765.7749582,-12.5799999237061
765.7905832,-26.0499992370605
765.8062082,-38.7099990844727
765.8218332,-51.4500007629395
765.8374582,-64.2900009155273
765.8530832,-76.620002746582
765.8687082,-87.6800003051758
765.8843332,-97.1100006103516
765.8999582,-104.959999084473
765.9155832,-111.580001831055
765.9312082,-117.5
765.9468332,-123.0
765.9624582,-127.800003051758
765.9780832,-131.270004272461
765.9937082,-133.039993286133
766.0093332,-133.199996948242
766.0249582,-132.190002441406
766.0405832,-130.710006713867
766.0562082,-129.199996948242
766.0718332,-127.480003356934
766.0874582,-124.849998474121
766.1030832,-120.459999084473
766.1187082,-113.279998779297
766.1343332,-101.790000915527
766.1499582,-84.1500015258789
766.1655832,-58.6800003051758
766.1812082,-24.6700000762939
766.1968332,16.5100002288818
766.2124582,61.0400009155273
766.2280832,103.98999786377
766.2437082,141.149993896484
766.2593332,170.179992675781
766.2749582,190.899993896484
766.2905832,204.75
766.3062082,213.339996337891
766.3218332,217.220001220703
766.3374582,215.990005493164
766.3530832,208.899993896484
766.3687082,195.520004272461
766.3843332,176.110000610352
766.3999582,151.600006103516
766.4155832,123.459999084473
766.4312082,93.7399978637695
766.4468332,64.7799987792969
766.4624582,38.3300018310547
766.4780832,14.9300003051758
766.4937082,-5.73000001907349
766.5093332,-24.1900005340576
766.5249582,-40.7700004577637
766.5405832,-55.8699989318848
766.5562082,-70.0500030517578
766.5718332,-83.6500015258789
766.5874582,-96.4300003051758
766.6030832,-107.720001220703
766.6187082,-117.129997253418
766.6343332,-124.699996948242
766.6499582,-130.740005493164
766.6655832,-135.460006713867
766.6812082,-139.020004272461
766.6968332,-141.850006103516
766.7124582,-144.369995117188
766.7280832,-146.529998779297
766.7437082,-147.720001220703
766.7593332,-147.309997558594
766.7749582,-145.169998168945
766.7905832,-141.800003051758
766.8062082,-138.089996337891
766.8218332,-134.570007324219
766.8374582,-130.940002441406
766.8530832,-126.300003051758
766.8687082,-119.519996643066
766.8843332,-109.199996948242
766.8999582,-93.5400009155273
766.9155832,-71.0800018310547
766.9312082,-42.4000015258789
766.9468332,-9.75
766.9624582,25.25
766.9780832,62.0400009155273
766.9937082,99.4499969482422
767.0093332,135.160003662109
767.0249582,166.470001220703
767.0405832,191.300003051758
767.0562082,208.970001220703
767.0718332,220.199996948242
767.0874582,226.059997558594
767.1030832,226.899993896484
767.1187082,222.350006103516
767.1343332,211.839996337891
767.1499582,195.110000610352
767.1655832,172.570007324219
767.1812082,145.470001220703
767.1968332,115.779998779297
767.2124582,85.6900024414063
767.2280832,57.0999984741211
767.2437082,31.3799991607666
767.2593332,9.23999977111816
767.2749582,-9.40999984741211
767.2905832,-25.3099994659424
767.3062082,-39.5400009155273
767.3218332,-53.0900001525879
767.3374582,-66.3099975585938
767.3530832,-78.7099990844727
767.3687082,-89.5500030517578
767.3843332,-98.4599990844727
767.3999582,-105.51000213623
767.4155832,-111.019996643066
767.4312082,-115.389999389648
767.4468332,-119.01000213623
767.4624582,-122.309997558594
767.4780832,-125.51000213623
767.4937082,-128.330001831055
767.5093332,-130.100006103516
767.5249582,-130.229995727539
767.5405832,-128.449996948242
767.5562082,-125.089996337891
767.5718332,-121.029998779297
767.5874582,-117.01000213623
767.6030832,-113.01000213623
767.6187082,-108.190002441406
767.6343332,-101.040000915527
767.6499582,-89.5599975585938
767.6655832,-71.7799987792969
767.6812082,-46.6800003051758
767.6968332,-14.6899995803833
767.7124582,22.6900005340576
767.7280832,63.0099983215332
767.7437082,102.910003662109
767.7593332,138.880004882813
767.7749582,168.350006103516
767.7905832,190.199996948242
767.8062082,204.690002441406
767.8218332,213.080001831055
767.8374582,216.389999389648
767.8530832,214.410003662109
767.8687082,206.139999389648
767.8843332,190.990005493164
767.8999582,169.610000610352
767.9155832,143.889999389648
767.9312082,116.440002441406
767.9468332,89.7099990844727
767.9624582,65.370002746582
767.9780832,44.0299987792969
767.9937082,25.5699996948242
768.0093332,9.38000011444092
768.0249582,-5.28000020980835
768.0405832,-19.0200004577637
768.0562082,-32.2700004577637
768.0718332,-45.4000015258789
768.0874582,-58.4900016784668
768.1030832,-71.0100021362305
768.1187082,-82.1999969482422
768.1343332,-91.629997253418
768.1499582,-99.2699966430664
768.1655832,-105.309997558594
768.1812082,-110.0
768.1968332,-113.639999389648
768.2124582,-116.730003356934
768.2280832,-119.540000915527
768.2437082,-121.839996337891
768.2593332,-123.080001831055
768.2749582,-122.819999694824
768.2905832,-121.029998779297
768.3062082,-118.150001525879
768.3218332,-114.980003356934
768.3374582,-112.0
768.3530832,-108.699996948242
768.3687082,-103.529998779297
768.3843332,-94.3300018310547
768.3999582,-78.9000015258789
768.4155832,-55.8899993896484
768.4312082,-25.4099998474121
768.4468332,11.039999961853
768.4624582,51.4700012207031
768.4780832,93.4700012207031
768.4937082,133.899993896484
768.5093332,169.529998779297
768.5249582,198.059997558594
768.5405832,218.479995727539
768.5562082,231.149993896484
768.5718332,237.270004272461
768.5874582,237.880004882813
768.6030832,233.0
768.6187082,221.940002441406
768.6343332,204.25
768.6499582,180.220001220703
768.6655832,151.169998168945
768.6812082,119.199996948242
768.6968332,86.75
768.7124582,55.9700012207031
768.7280832,28.2999992370605
768.7437082,4.38000011444092
768.7593332,-15.9300003051758
768.7749582,-33.3800010681152
768.7905832,-48.9000015258789
768.8062082,-63.3300018310547
768.8218332,-77.379997253418
768.8374582,-91.3300018310547
768.8530832,-104.779998779297
768.8687082,-116.98999786377
768.8843332,-127.379997253418
768.8999582,-135.830001831055
768.9155832,-142.440002441406
768.9312082,-147.460006713867
768.9468332,-151.199996948242
768.9624582,-154.119995117188
768.9780832,-156.440002441406
768.9937082,-157.919998168945
769.0093332,-158.169998168945
769.0249582,-156.979995727539
769.0405832,-154.389999389648
769.0562082,-150.729995727539
769.0718332,-146.559997558594
769.0874582,-142.070007324219
769.1030832,-136.190002441406
769.1187082,-126.690002441406
769.1343332,-111.0
769.1499582,-87.3300018310547
769.1655832,-55.5699996948242
769.1812082,-17.5
769.1968332,24.1399993896484
769.2124582,66.7399978637695
769.2280832,107.75
769.2437082,144.25
769.2593332,173.630004882813
769.2749582,194.529998779297
769.2905832,207.009994506836
769.3062082,212.210006713867
769.3218332,211.690002441406
769.3374582,206.440002441406
769.3530832,196.360000610352
769.3687082,180.830001831055
769.3843332,159.699996948242
769.3999582,133.869995117188
769.4155832,105.220001220703
769.4312082,76.1600036621094
769.4468332,48.8600006103516
769.4624582,24.5599994659424
769.4780832,3.55999994277954
769.4937082,-14.4300003051758
769.5093332,-30.0200004577637
769.5249582,-43.9199981689453
769.5405832,-56.7299995422363
769.5562082,-68.9000015258789
769.5718332,-80.7799987792969
769.5874582,-92.4300003051758
769.6030832,-103.370002746582
769.6187082,-112.790000915527
769.6343332,-120.089996337891
769.6499582,-125.230003356934
769.6655832,-128.600006103516
769.6812082,-130.710006713867
769.6968332,-131.720001220703
769.7124582,-131.279998779297
769.7280832,-128.949996948242
769.7437082,-125.019996643066
769.7593332,-120.639999389648
769.7749582,-116.940002441406
769.7905832,-114.349998474121
769.8062082,-112.440002441406
769.8218332,-110.449996948242
769.8374582,-107.779998779297
769.8530832,-103.529998779297
769.8687082,-95.870002746582
769.8843332,-82.2699966430664
769.8999582,-60.4900016784668
769.9155832,-29.75
769.9312082,8.72000026702881
769.9468332,52.0099983215332
769.9624582,96.8099975585938
769.9780832,140.559997558594
769.9937082,181.119995117188
770.0093332,215.800003051758
770.0249582,242.130004882813
770.0405832,258.989990234375
770.0562082,266.950012207031
770.0718332,267.559997558594
770.0874582,262.579986572266
770.1030832,253.0
770.1187082,238.600006103516
770.1343332,218.539993286133
770.1499582,192.470001220703
770.1655832,161.210006713867
770.1812082,126.910003662109
770.1968332,92.4899978637695
770.2124582,60.8600006103516
770.2280832,33.8300018310547
770.2437082,11.3299999237061
770.2593332,-8.06999969482422
770.2749582,-25.9799995422363
770.2905832,-43.2099990844727
770.3062082,-59.8899993896484
770.3218332,-75.6600036621094
770.3374582,-90.2099990844727
770.3530832,-103.629997253418
770.3687082,-116.069999694824
770.3843332,-127.269996643066
770.3999582,-136.789993286133
770.4155832,-144.440002441406
770.4312082,-150.279998779297
770.4468332,-154.470001220703
770.4624582,-157.139999389648
770.4780832,-158.580001831055
770.4937082,-159.25
770.5093332,-159.350006103516
770.5249582,-158.600006103516
770.5405832,-156.550003051758
770.5562082,-153.0
770.5718332,-148.130004882813
770.5874582,-142.330001831055
770.6030832,-135.880004882813
770.6187082,-128.089996337891
770.6343332,-116.680000305176
770.6499582,-98.6600036621094
770.6655832,-71.870002746582
770.6812082,-36.2200012207031
770.6968332,6.15999984741211
770.7124582,51.6599998474121
770.7280832,96.3199996948242
770.7437082,137.210006713867
770.7593332,172.360000610352
770.7749582,200.240005493164
770.7905832,219.910003662109
770.8062082,231.440002441406
770.8218332,235.679992675781
770.8374582,233.699996948242
770.8530832,226.309997558594
770.8687082,213.710006713867
770.8843332,195.520004272461
770.8999582,171.5
770.9155832,142.350006103516
770.9312082,109.970001220703
770.9468332,76.9000015258789
770.9624582,45.6800003051758
770.9780832,18.0599994659424
770.9937082,-5.32000017166138
771.0093332,-24.8199996948242
771.0249582,-41.310001373291
771.0405832,-55.810001373291
771.0562082,-69.1600036621094
771.0718332,-81.8300018310547
771.0874582,-93.9899978637695
771.1030832,-105.720001220703
771.1187082,-116.870002746582
771.1343332,-126.889999389648
771.1499582,-135.160003662109
771.1655832,-141.270004272461
771.1812082,-145.160003662109
771.1968332,-147.070007324219
771.2124582,-147.339996337891
771.2280832,-146.360000610352
771.2437082,-144.639999389648
771.2593332,-142.520004272461
771.2749582,-139.860000610352
771.2905832,-136.259994506836
771.3062082,-131.490005493164
771.3218332,-125.529998779297
771.3374582,-118.180000305176
771.3530832,-108.51000213623
771.3687082,-94.4300003051758
771.3843332,-73.2399978637695
771.3999582,-43.0699996948242
771.4155832,-4.34999990463257
771.4312082,39.9599990844727
771.4468332,85.3899993896484
771.4624582,127.389999389648
771.4780832,162.699996948242
771.4937082,190.279998779297
771.5093332,210.559997558594
771.5249582,224.080001831055
771.5405832,231.080001831055
771.5562082,231.789993286133
771.5718332,226.630004882813
771.5874582,215.940002441406
771.6030832,199.839996337891
771.6187082,178.490005493164
771.6343332,152.509994506836
771.6499582,123.370002746582
771.6655832,93.2699966430664
771.6812082,64.4599990844727
771.6968332,38.6300010681152
771.7124582,16.5200004577637
771.7280832,-2.14000010490417
771.7437082,-18.4300003051758
771.7593332,-33.5099983215332
771.7749582,-47.939998626709
771.7905832,-61.6100006103516
771.8062082,-74.120002746582
771.8218332,-85.2399978637695
771.8374582,-95.0599975585938
771.8530832,-103.959999084473
771.8687082,-112.169998168945
771.8843332,-119.51000213623
771.8999582,-125.650001525879
771.9155832,-130.309997558594
771.9312082,-133.330001831055
771.9468332,-134.630004882813
771.9624582,-134.289993286133
771.9780832,-132.759994506836
771.9937082,-130.860000610352
772.0093332,-129.279998779297
772.0249582,-127.860000610352
772.0405832,-125.730003356934
772.0562082,-122.050003051758
772.0718332,-116.410003662109
772.0874582,-108.459999084473
772.1030832,-97.1100006103516
772.1187082,-80.25
772.1343332,-55.6699981689453
772.1499582,-22.3999996185303
772.1655832,18.3299999237061
772.1812082,63.3699989318848
772.1968332,108.540000915527
772.2124582,149.970001220703
772.2280832,185.160003662109
772.2437082,213.470001220703
772.2593332,235.080001831055
772.2749582,249.800003051758
772.2905832,257.119995117188
772.3062082,256.869995117188
772.3218332,249.419998168945
772.3374582,235.479995727539
772.3530832,215.729995727539
772.3687082,190.619995117188
772.3843332,160.830001831055
772.3999582,127.75
772.4155832,93.5999984741211
772.4312082,60.7599983215332
772.4468332,31.0400009155273
772.4624582,5.32000017166138
772.4780832,-16.5
772.4937082,-35.4300003051758
772.5093332,-52.560001373291
772.5249582,-68.4700012207031
772.5405832,-83.2300033569336
772.5562082,-96.6800003051758
772.5718332,-108.660003662109
772.5874582,-119.180000305176
772.6030832,-128.5
772.6187082,-136.880004882813
772.6343332,-144.229995727539
772.6499582,-150.199996948242
772.6655832,-154.509994506836
772.6812082,-157.139999389648
772.6968332,-158.210006713867
772.7124582,-157.850006103516
772.7280832,-156.360000610352
772.7437082,-154.350006103516
772.7593332,-152.360000610352
772.7749582,-150.259994506836
772.7905832,-147.389999389648
772.8062082,-142.990005493164
772.8218332,-136.130004882813
772.8374582,-125.199996948242
772.8530832,-107.720001220703
772.8687082,-81.4400024414063
772.8843332,-45.9099998474121
772.8999582,-3.02999997138977
772.9155832,43.4900016784668
772.9312082,89.3399963378906
772.9468332,130.669998168945
772.9624582,164.889999389648
772.9780832,191.110000610352
772.9937082,210.110000610352
773.0093332,223.169998168945
773.0249582,230.649993896484
773.0405832,232.020004272461
773.0562082,226.679992675781
773.0718332,214.559997558594
773.0874582,196.020004272461
773.1030832,171.649993896484
773.1187082,142.429992675781
773.1343332,110.110000610352
773.1499582,77.0500030517578
773.1655832,45.6500015258789
773.1812082,17.7000007629395
773.1968332,-5.92999982833862
773.2124582,-25.4200000762939
773.2280832,-41.6399993896484
773.2437082,-55.4599990844727
773.2593332,-67.3600006103516
773.2749582,-77.6900024414063
773.2905832,-87.0
773.3062082,-95.8899993896484
773.3218332,-104.559997558594
773.3374582,-112.73999786377
773.3530832,-120.029998779297
773.3687082,-126.360000610352
773.3843332,-131.789993286133
773.3999582,-136.080001831055
773.4155832,-138.820007324219
773.4312082,-139.779998779297
773.4468332,-139.029998779297
773.4624582,-136.860000610352
773.4780832,-133.729995727539
773.4937082,-130.199996948242
773.5093332,-126.830001831055
773.5249582,-123.790000915527
773.5405832,-120.519996643066
773.5562082,-115.930000305176
773.5718332,-108.540000915527
773.5874582,-96.4800033569336
773.6030832,-77.2799987792969
773.6187082,-48.4700012207031
773.6343332,-9.5600004196167
773.6499582,36.5800018310547
773.6655832,84.6500015258789
773.6812082,129.080001831055
773.6968332,165.949996948242
773.7124582,193.740005493164
773.7280832,212.529998779297
773.7437082,222.710006713867
773.7593332,225.139999389648
773.7749582,222.399993896484
773.7905832,217.580001831055
773.8062082,211.820007324219
773.8218332,203.809997558594
773.8374582,191.229995727539
773.8530832,172.5
773.8687082,147.589996337891
773.8843332,117.959999084473
773.8999582,86.1699981689453
773.9155832,55.2700004577637
773.9312082,27.75
773.9468332,4.73000001907349
773.9624582,-13.9700002670288
773.9780832,-29.4699993133545
773.9937082,-43.1100006103516
774.0093332,-55.9900016784668
774.0249582,-68.6600036621094
774.0405832,-81.0999984741211
774.0562082,-92.75
774.0718332,-102.860000610352
774.0874582,-111.019996643066
774.1030832,-117.330001831055
774.1187082,-122.279998779297
774.1343332,-126.459999084473
774.1499582,-130.130004882813
774.1655832,-133.020004272461
774.1812082,-134.600006103516
774.1968332,-134.639999389648
774.2124582,-133.320007324219
774.2280832,-131.039993286133
774.2437082,-128.179992675781
774.2593332,-125.019996643066
774.2749582,-121.730003356934
774.2905832,-117.879997253418
774.3062082,-111.790000915527
774.3218332,-100.75
774.3374582,-81.9300003051758
774.3530832,-53.6199989318848
774.3687082,-15.8400001525879
774.3843332,29.5300006866455
774.3999582,78.6900024414063
774.4155832,126.120002746582
774.4312082,166.649993896484
774.4468332,197.330001831055
774.4624582,217.910003662109
774.4780832,229.960006713867
774.4937082,235.539993286133
774.5093332,236.220001220703
774.5249582,232.759994506836
774.5405832,224.949996948242
774.5562082,211.770004272461
774.5718332,192.100006103516
774.5874582,165.800003051758
774.6030832,134.210006713867
774.6187082,99.7900009155273
774.6343332,65.1900024414063
774.6499582,32.6699981689453
774.6655832,3.9300000667572
774.6812082,-20.2399997711182
774.6968332,-40.060001373291
774.7124582,-56.4799995422363
774.7280832,-70.6500015258789
774.7437082,-83.4899978637695
