Time(s),Value(%)
0.0374601,38.8600006103516
0.0530851,32.4099998474121
0.0687101,26.1700000762939
0.0843351,19.9400005340576
0.0999601,13.5900001525879
0.1155851,7.09999990463257
0.1312101,0.509999990463257
0.1468351,-6.19000005722046
0.1624601,-13.0500001907349
0.1780851,-20.0200004577637
0.1937101,-26.9200000762939
0.2093351,-33.5200004577637
0.2249601,-39.7000007629395
0.2405851,-45.5999984741211
0.2562101,-51.3899993896484
0.2718351,-57.0299987792969
0.2874601,-62.2599983215332
0.3030851,-66.8399963378906
0.3187101,-70.7099990844727
0.3343351,-73.9599990844727
0.3499601,-76.7600021362305
0.3655851,-79.2099990844727
0.3812101,-81.3499984741211
0.3968351,-83.0899963378906
0.4124601,-84.0100021362305
0.4280851,-83.3000030517578
0.4437101,-80.2200012207031
0.4593351,-74.6999969482422
0.4749601,-67.4300003051758
0.4905851,-59.25
0.5062101,-50.5900001525879
0.5218351,-41.2900009155273
0.5374601,-31.2700004577637
0.5530851,-21.25
0.5687101,-12.3400001525879
0.5843351,-5.09999990463257
0.5999601,0.769999980926514
0.6155851,5.96000003814697
0.6312101,10.6999998092651
0.6468351,14.5100002288818
0.6624601,16.6499996185303
0.6780851,16.8099994659424
0.6937101,15.289999961853
0.7093351,12.539999961853
0.7249601,8.97999954223633
0.7405851,4.94999980926514
0.7562101,0.75
0.7718351,-3.38000011444092
0.7874601,-7.34999990463257
0.8030851,-11.25
0.8187101,-15.210000038147
0.8343351,-19.3199996948242
0.8499601,-23.6200008392334
0.8655851,-28.1399993896484
0.8812101,-32.9300003051758
0.8968351,-37.9199981689453
0.9124601,-42.8499984741211
0.9280851,-47.5299987792969
0.9437101,-51.8199996948242
0.9593351,-55.7999992370605
0.9749601,-59.5499992370605
0.9905851,-63.0
1.0062101,-65.9499969482422
1.0218351,-68.25
1.0374601,-69.9000015258789
1.0530851,-71.0899963378906
1.0687101,-72.0500030517578
1.0843351,-73.0599975585938
1.0999601,-74.2900009155273
1.1155851,-75.6699981689453
1.1312101,-76.75
1.1468351,-76.7399978637695
1.1624601,-74.9599990844727
1.1780851,-71.2699966430664
1.1937101,-66.0599975585938
1.2093351,-59.8400001525879
1.2249601,-52.7200012207031
1.2405851,-44.4199981689453
1.2562101,-34.8600006103516
1.2718351,-24.7399997711182
1.2874601,-15.2700004577637
1.3030851,-7.40000009536743
1.3187101,-1.37000000476837
1.3343351,3.25999999046326
1.3499601,7.09000015258789
1.3655851,10.5500001907349
1.3812101,13.7399997711182
1.3968351,16.6299991607666
1.4124601,19.2299995422363
1.4280851,21.6900005340576
1.4437101,24.1900005340576
1.4593351,26.7700004577637
1.4749601,29.1200008392334
1.4905851,30.5599994659424
1.5062101,30.4599990844727
1.5218351,28.6599998474121
1.5374601,25.5400009155273
1.5530851,21.7099990844727
1.5687101,17.7099990844727
1.5843351,13.8800001144409
1.5999601,10.3599996566772
1.6155851,7.11999988555908
1.6312101,3.95000004768372
1.6468351,0.509999990463257
1.6624601,-3.47000002861023
1.6780851,-8.05000019073486
1.6937101,-13.0900001525879
1.7093351,-18.4400005340576
1.7249601,-23.9799995422363
1.7405851,-29.5799999237061
1.7562101,-34.8899993896484
1.7718351,-39.4900016784668
1.7874601,-43.1199989318848
1.8030851,-46.0
1.8187101,-48.560001373291
1.8343351,-51.0299987792969
1.8499601,-53.3199996948242
1.8655851,-55.2000007629395
1.8812101,-56.5299987792969
1.8968351,-57.25
1.9124601,-57.0099983215332
1.9280851,-55.060001373291
1.9437101,-50.6699981689453
1.9593351,-43.7299995422363
1.9749601,-34.7700004577637
1.9905851,-24.4500007629395
2.0062101,-13.3299999237061
2.0218351,-1.92999994754791
2.0374601,9.0
2.0530851,18.4799995422363
2.0687101,25.7700004577637
2.0843351,30.7700004577637
2.0999601,33.8899993896484
2.1155851,35.5499992370605
2.1312101,35.9700012207031
2.1468351,35.3699989318848
2.1624601,34.0999984741211
2.1780851,32.5099983215332
2.1937101,30.7800006866455
2.2093351,28.7800006866455
2.2249601,26.2600002288818
2.2405851,23.0900001525879
2.2562101,19.3299999237061
2.2718351,15.1000003814697
2.2874601,10.5200004577637
2.3030851,5.76999998092651
2.3187101,1.16999995708466
2.3343351,-2.90000009536743
2.3499601,-6.26999998092651
2.3655851,-9.07999992370605
2.3812101,-11.6499996185303
2.3968351,-14.1099996566772
2.4124601,-16.3299999237061
2.4280851,-18.1100006103516
2.4437101,-19.3700008392334
2.4593351,-20.2000007629395
2.4749601,-20.7999992370605
2.4905851,-21.3999996185303
2.5062101,-22.1599998474121
2.5218351,-23.1299991607666
2.5374601,-24.2999992370605
2.5530851,-25.7000007629395
2.5687101,-27.3700008392334
2.5843351,-29.2600002288818
2.5999601,-31.0499992370605
2.6155851,-32.1599998474121
2.6312101,-31.8199996948242
2.6468351,-29.2999992370605
2.6624601,-24.25
2.6780851,-16.8400001525879
2.6937101,-7.51000022888184
2.7093351,3.40000009536743
2.7249601,15.6999998092651
2.7405851,28.8999996185303
2.7562101,42.0299987792969
2.7718351,53.810001373291
2.7874601,63.2799987792969
2.8030851,70.3300018310547
2.8187101,75.4100036621094
2.8343351,78.8300018310547
2.8499601,80.6399993896484
2.8655851,80.9300003051758
2.8812101,80.0599975585938
2.8968351,78.5299987792969
2.9124601,76.6600036621094
2.9280851,74.4100036621094
2.9437101,71.5299987792969
2.9593351,67.8899993896484
2.9749601,63.5499992370605
2.9905851,58.689998626709
3.0062101,53.5
3.0218351,48.1699981689453
3.0374601,42.9700012207031
3.0530851,38.1500015258789
3.0687101,33.7599983215332
3.0843351,29.5900001525879
3.0999601,25.3799991607666
3.1155851,21.0599994659424
3.1312101,16.8799991607666
3.1468351,13.0900001525879
3.1624601,9.82999992370605
3.1780851,7.05999994277954
3.1937101,4.57000017166138
3.2093351,2.14000010490417
3.2249601,-0.400000005960464
3.2405851,-3.10999989509583
3.2562101,-5.98999977111816
3.2718351,-9.10999965667725
3.2874601,-12.539999961853
3.3030851,-16.2299995422363
3.3187101,-19.8199996948242
3.3343351,-22.7000007629395
3.3499601,-24.0799999237061
3.3655851,-23.2800006866455
3.3812101,-19.9799995422363
3.3968351,-14.4300003051758
3.4124601,-7.3600001335144
3.4280851,0.28999999165535
3.4437101,7.75
3.4593351,14.5600004196167
3.4749601,20.75
3.4905851,26.7299995422363
3.5062101,32.9599990844727
3.5218351,39.6300010681152
3.5374601,46.5999984741211
3.5530851,53.6100006103516
3.5687101,60.3699989318848
3.5843351,66.629997253418
3.5999601,71.8899993896484
3.6155851,75.2799987792969
3.6312101,76.0699996948242
3.6468351,74.1500015258789
3.6624601,70.1699981689453
3.6780851,65.120002746582
3.6937101,59.8899993896484
3.7093351,54.9799995422363
3.7249601,50.560001373291
3.7405851,46.5200004577637
3.7562101,42.5800018310547
3.7718351,38.4500007629395
3.7874601,33.9300003051758
3.8030851,29.0100002288818
3.8187101,23.7700004577637
3.8343351,18.25
3.8499601,12.4499998092651
3.8655851,6.46999979019165
3.8812101,0.589999973773956
3.8968351,-4.76999998092651
3.9124601,-9.39999961853027
3.9280851,-13.3699998855591
3.9437101,-17.0
3.9593351,-20.4200000762939
3.9749601,-23.5400009155273
3.9905851,-26.2099990844727
4.0062101,-28.3600006103516
4.0218351,-30.0599994659424
4.0374601,-31.3799991607666
4.0530851,-32.2900009155273
4.0687101,-32.7000007629395
4.0843351,-32.5499992370605
4.0999601,-31.5799999237061
4.1155851,-29.2999992370605
4.1312101,-25.2199993133545
4.1468351,-19.3899993896484
4.1624601,-12.3699998855591
4.1780851,-4.94999980926514
4.1937101,2.38000011444092
4.2093351,9.55000019073486
4.2249601,16.4599990844727
4.2405851,22.5699996948242
4.2562101,27.1200008392334
4.2718351,29.6900005340576
4.2874601,30.5599994659424
4.3030851,30.3600006103516
4.3187101,29.6499996185303
4.3343351,28.4899997711182
4.3499601,26.6599998474121
4.3655851,23.9799995422363
4.3812101,20.5400009155273
4.3968351,16.5599994659424
4.4124601,12.3100004196167
4.4280851,8.05000019073486
4.4437101,3.96000003814697
4.4593351,0.170000001788139
4.4749601,-3.39000010490417
4.4905851,-6.96999979019165
4.5062101,-10.8199996948242
4.5218351,-14.9700002670288
4.5374601,-19.2999992370605
4.5530851,-23.7800006866455
4.5687101,-28.4799995422363
4.5843351,-33.4099998474121
4.5999601,-38.310001373291
4.6155851,-42.7299995422363
4.6312101,-46.3499984741211
4.6468351,-49.2700004577637
4.6624601,-51.7700004577637
4.6780851,-53.9700012207031
4.6937101,-55.7400016784668
4.7093351,-56.9300003051758
4.7249601,-57.5200004577637
4.7405851,-57.6100006103516
4.7562101,-57.189998626709
4.7718351,-55.9799995422363
4.7874601,-53.6599998474121
4.8030851,-50.1300010681152
4.8187101,-45.3199996948242
4.8343351,-39.0200004577637
4.8499601,-31.0100002288818
4.8655851,-21.4899997711182
4.8812101,-11.210000038147
4.8968351,-1.1599999666214
4.9124601,8.05000019073486
4.9280851,16.5100002288818
4.9437101,24.4599990844727
4.9593351,31.6299991607666
4.9749601,37.3499984741211
4.9905851,41.1699981689453
5.0062101,43.2400016784668
5.0218351,44.1100006103516
5.0374601,44.2700004577637
5.0530851,43.75
5.0687101,42.310001373291
5.0843351,39.8300018310547
5.0999601,36.5699996948242
5.1155851,33.0499992370605
5.1312101,29.7800006866455
5.1468351,27.0599994659424
5.1624601,24.8400001525879
5.1780851,22.8799991607666
5.1937101,20.7700004577637
5.2093351,18.0699996948242
5.2249601,14.4799995422363
5.2405851,9.94999980926514
5.2562101,4.73999977111816
5.2718351,-0.699999988079071
5.2874601,-6.0
5.3030851,-10.8800001144409
5.3187101,-15.2200002670288
5.3343351,-18.9799995422363
5.3499601,-22.1800003051758
5.3655851,-24.9099998474121
5.3812101,-27.3899993896484
5.3968351,-29.8899993896484
5.4124601,-32.6399993896484
5.4280851,-35.6699981689453
5.4437101,-38.75
5.4593351,-41.4099998474121
5.4749601,-43.0299987792969
5.4905851,-42.939998626709
5.5062101,-40.75
5.5218351,-36.560001373291
5.5374601,-30.9400005340576
5.5530851,-24.7199993133545
5.5687101,-18.6399993896484
5.5843351,-13.0799999237061
5.5999601,-7.96000003814697
5.6155851,-2.77999997138977
5.6312101,2.98000001907349
5.6468351,9.56999969482422
5.6624601,16.8899993896484
5.6780851,24.7800006866455
5.6937101,33.1300010681152
5.7093351,41.6100006103516
5.7249601,49.4599990844727
5.7405851,55.4199981689453
5.7562101,58.3899993896484
5.7718351,58.0900001525879
5.7874601,55.0699996948242
5.8030851,50.25
5.8187101,44.439998626709
5.8343351,38.2900009155273
5.8499601,32.2099990844727
5.8655851,26.3999996185303
5.8812101,20.8500003814697
5.8968351,15.3900003433228
5.9124601,9.8100004196167
5.9280851,4.0
5.9437101,-2.08999991416931
5.9593351,-8.61999988555908
5.9749601,-15.7200002670288
5.9905851,-23.3099994659424
6.0062101,-30.9500007629395
6.0218351,-38.0200004577637
6.0374601,-43.9900016784668
6.0530851,-48.6800003051758
6.0687101,-52.1500015258789
6.0843351,-54.4500007629395
6.0999601,-55.6300010681152
6.1155851,-55.8199996948242
6.1312101,-55.3300018310547
6.1468351,-54.5200004577637
6.1624601,-53.6800003051758
6.1780851,-52.9700012207031
6.1937101,-52.4199981689453
6.2093351,-51.8800010681152
6.2249601,-50.8899993896484
6.2405851,-48.6599998474121
6.2562101,-44.5
6.2718351,-38.3499984741211
6.2874601,-30.8400001525879
6.3030851,-22.8500003814697
6.3187101,-14.9200000762939
6.3343351,-7.05000019073486
6.3499601,0.759999990463257
6.3655851,8.02000045776367
6.3812101,13.8999996185303
6.3968351,17.8400001525879
6.4124601,20.0
6.4280851,20.9899997711182
6.4437101,21.3400001525879
6.4593351,21.1599998474121
6.4749601,20.2600002288818
6.4905851,18.4599990844727
6.5062101,15.8299999237061
6.5218351,12.5
6.5374601,8.67000007629395
6.5530851,4.55999994277954
6.5687101,0.389999985694885
6.5843351,-3.73000001907349
6.5999601,-7.92000007629395
6.6155851,-12.4399995803833
6.6312101,-17.4699993133545
6.6468351,-22.8700008392334
6.6624601,-28.4200000762939
6.6780851,-34.2099990844727
6.6937101,-40.560001373291
6.7093351,-47.5800018310547
6.7249601,-54.8899993896484
6.7405851,-61.7400016784668
6.7562101,-67.5800018310547
6.7718351,-72.5100021362305
6.7874601,-76.9100036621094
6.8030851,-80.7799987792969
6.8187101,-83.75
6.8343351,-85.4800033569336
6.8499601,-85.9800033569336
6.8655851,-85.5800018310547
6.8812101,-84.6900024414063
6.8968351,-83.5400009155273
6.9124601,-82.1900024414063
6.9280851,-80.5999984741211
6.9437101,-78.75
6.9593351,-76.6800003051758
6.9749601,-74.4800033569336
6.9905851,-72.0699996948242
7.0062101,-68.8199996948242
7.0218351,-63.4199981689453
7.0374601,-54.6399993896484
7.0530851,-42.310001373291
7.0687101,-27.3700008392334
7.0843351,-11.1899995803833
7.0999601,5.09999990463257
7.1155851,20.6800003051758
7.1312101,34.7299995422363
7.1468351,46.189998626709
7.1624601,54.2099990844727
7.1780851,58.689998626709
7.1937101,60.3199996948242
7.2093351,60.0200004577637
7.2249601,58.5800018310547
7.2405851,56.5299987792969
7.2562101,54.2400016784668
7.2718351,51.9099998474121
7.2874601,49.7000007629395
7.3030851,47.6599998474121
7.3187101,45.6500015258789
7.3343351,43.310001373291
7.3499601,40.25
7.3655851,36.4199981689453
7.3812101,32.0699996948242
7.3968351,27.6700000762939
7.4124601,23.5699996948242
7.4280851,19.9300003051758
7.4437101,16.7099990844727
7.4593351,13.710000038147
7.4749601,10.7399997711182
7.4905851,7.69000005722046
7.5062101,4.48000001907349
7.5218351,0.970000028610229
7.5374601,-2.96000003814697
7.5530851,-7.23999977111816
7.5687101,-11.4399995803833
7.5843351,-14.7399997711182
7.5999601,-16.0300006866455
7.6155851,-14.1899995803833
7.6312101,-8.60000038146973
7.6468351,0.430000007152557
7.6624601,11.8000001907349
7.6780851,23.9899997711182
7.6937101,35.7099990844727
7.7093351,46.2599983215332
7.7249601,55.5800018310547
7.7405851,64.0400009155273
7.7562101,72.1100006103516
7.7718351,79.8899993896484
7.7874601,86.620002746582
7.8030851,90.5999984741211
7.8187101,90.25
7.8343351,85.2099990844727
7.8499601,76.1900024414063
7.8655851,63.8899993896484
7.8812101,47.8600006103516
7.8968351,26.6700000762939
7.9124601,-0.119999997317791
7.9280851,-30.3299999237061
7.9437101,-59.8699989318848
7.9593351,-85.2699966430664
7.9749601,-105.25
7.9905851,-120.779998779297
8.0062101,-134.410003662109
8.0218351,-149.199996948242
8.0374601,-167.259994506836
8.0530851,-188.910003662109
8.0687101,-213.360000610352
8.0843351,-239.889999389648
8.0999601,-268.160003662109
8.1155851,-297.160003662109
8.1312101,-323.809997558594
8.1468351,-327.679992675781
8.1624601,-327.679992675781
8.1780851,-327.679992675781
8.1937101,-327.679992675781
8.2093351,-318.119995117188
8.2249601,-299.140014648438
8.2405851,-279.119995117188
8.2562101,-258.609985351563
8.2718351,-237.979995727539
8.2874601,-217.490005493164
8.3030851,-197.210006713867
8.3187101,-177.100006103516
8.3343351,-157.149993896484
8.3499601,-137.399993896484
8.3655851,-117.930000305176
8.3812101,-98.7799987792969
8.3968351,-79.9800033569336
8.4124601,-61.3300018310547
8.4280851,-42.3499984741211
8.4437101,-22.6700000762939
8.4593351,-2.44000005722046
8.4749601,17.5799999237061
8.4905851,36.5
8.5062101,53.7299995422363
8.5218351,69.1800003051758
8.5374601,83.1900024414063
8.5530851,96.1699981689453
8.5687101,108.25
8.5843351,119.099998474121
8.5999601,128.259994506836
8.6155851,135.550003051758
8.6312101,141.039993286133
8.6468351,144.830001831055
8.6624601,147.050003051758
8.6780851,148.039993286133
8.6937101,148.580001831055
8.7093351,149.820007324219
8.7249601,152.470001220703
8.7405851,156.339996337891
8.7562101,160.630004882813
8.7718351,164.75
8.7874601,168.440002441406
8.8030851,171.440002441406
8.8187101,173.419998168945
8.8343351,174.279998779297
8.8499601,174.410003662109
8.8655851,174.669998168945
8.8812101,175.649993896484
8.8968351,177.220001220703
8.9124601,177.080001831055
8.9280851,176.839996337891
8.9437101,176.740005493164
8.9593351,177.070007324219
8.9749601,177.899993896484
8.9905851,179.070007324219
9.0062101,180.580001831055
9.0218351,182.789993286133
9.0374601,186.130004882813
9.0530851,190.669998168945
9.0687101,196.070007324219
9.0843351,201.820007324219
9.0999601,207.490005493164
9.1155851,212.770004272461
9.1312101,217.369995117188
9.1468351,221.020004272461
9.1624601,223.539993286133
9.1780851,224.850006103516
9.1937101,225.0
9.2093351,224.059997558594
9.2249601,222.119995117188
9.2405851,219.350006103516
9.2562101,216.020004272461
9.2718351,212.369995117188
9.2874601,208.479995727539
9.3030851,204.25
9.3187101,199.509994506836
9.3343351,194.169998168945
9.3499601,188.240005493164
9.3655851,181.679992675781
9.3812101,174.5
9.3968351,166.809997558594
9.4124601,158.960006713867
9.4280851,151.429992675781
9.4437101,144.490005493164
9.4593351,138.0
9.4749601,131.630004882813
9.4905851,125.209999084473
9.5062101,118.879997253418
9.5218351,112.860000610352
9.5374601,107.23999786377
9.5530851,101.940002441406
9.5687101,96.7699966430664
9.5843351,91.4800033569336
9.5999601,85.9000015258789
9.6155851,80.0599975585938
9.6312101,74.2399978637695
9.6468351,68.9400024414063
9.6624601,64.6100006103516
9.6780851,61.3800010681152
9.6937101,59.1399993896484
9.7093351,57.7999992370605
9.7249601,57.4799995422363
9.7405851,58.2900009155273
9.7562101,60.0699996948242
9.7718351,62.1699981689453
9.7874601,63.7000007629395
9.8030851,64.0800018310547
9.8187101,63.2400016784668
9.8343351,61.4599990844727
9.8499601,59.0099983215332
9.8655851,55.8400001525879
9.8812101,51.7299995422363
9.8968351,46.5999984741211
9.9124601,40.060001373291
9.9280851,33.1699981689453
9.9437101,26.1900005340576
9.9593351,19.3299999237061
9.9749601,12.7700004577637
9.9905851,6.57999992370605
10.0062101,0.709999978542328
10.0218351,-5.05000019073486
10.0374601,-10.9200000762939
10.0530851,-16.8999996185303
10.0687101,-22.7700004577637
10.0843351,-28.2999992370605
10.0999601,-33.3400001525879
10.1155851,-37.9599990844727
10.1312101,-42.3600006103516
10.1468351,-46.8499984741211
10.1624601,-51.6599998474121
10.1780851,-56.8699989318848
10.1937101,-62.3800010681152
10.2093351,-68.1500015258789
10.2249601,-74.1399993896484
10.2405851,-80.2200012207031
10.2562101,-86.0299987792969
10.2718351,-90.9499969482422
10.2874601,-94.3300018310547
10.3030851,-95.7300033569336
10.3187101,-95.0800018310547
10.3343351,-92.6999969482422
10.3499601,-89.1500015258789
10.3655851,-85.1100006103516
10.3812101,-81.120002746582
10.3968351,-77.5
10.4124601,-74.2399978637695
10.4280851,-71.0699996948242
10.4437101,-67.6699981689453
10.4593351,-63.9199981689453
10.4749601,-59.939998626709
10.4905851,-56.0
10.5062101,-52.3400001525879
10.5218351,-49.1300010681152
10.5374601,-46.5999984741211
10.5530851,-45.0999984741211
10.5687101,-44.9300003051758
10.5843351,-46.0699996948242
10.5999601,-48.1699981689453
10.6155851,-50.7400016784668
10.6312101,-53.4000015258789
10.6468351,-55.9300003051758
10.6624601,-58.310001373291
10.6780851,-60.6800003051758
10.6937101,-63.2799987792969
10.7093351,-66.3399963378906
10.7249601,-69.9499969482422
10.7405851,-73.9300003051758
10.7562101,-78.0500030517578
10.7718351,-82.1800003051758
10.7874601,-86.370002746582
10.8030851,-90.629997253418
10.8187101,-94.8000030517578
10.8343351,-98.5699996948242
10.8499601,-101.720001220703
10.8655851,-104.389999389648
10.8812101,-106.819999694824
10.8968351,-109.110000610352
10.9124601,-109.019996643066
10.9280851,-108.120002746582
10.9437101,-106.139999389648
10.9593351,-103.150001525879
10.9749601,-99.4300003051758
10.9905851,-95.2099990844727
11.0062101,-90.4300003051758
11.0218351,-84.879997253418
11.0374601,-78.5199966430664
11.0530851,-71.7399978637695
11.0687101,-65.2200012207031
11.0843351,-59.5
11.0999601,-54.7599983215332
11.1155851,-50.8499984741211
11.1312101,-47.5499992370605
11.1468351,-44.7700004577637
11.1624601,-42.5499992370605
11.1780851,-40.8699989318848
11.1937101,-39.6599998474121
11.2093351,-38.75
11.2249601,-38.0
11.2405851,-37.3199996948242
11.2562101,-36.75
11.2718351,-36.4199981689453
11.2874601,-36.5299987792969
11.3030851,-37.2000007629395
11.3187101,-38.4000015258789
11.3343351,-39.9099998474121
11.3499601,-41.4300003051758
11.3655851,-42.7299995422363
11.3812101,-43.7299995422363
11.3968351,-44.4700012207031
11.4124601,-45.1100006103516
11.4280851,-45.8899993896484
11.4437101,-46.9900016784668
11.4593351,-48.4099998474121
11.4749601,-50.0200004577637
11.4905851,-51.6100006103516
11.5062101,-52.9900016784668
11.5218351,-54.0800018310547
11.5374601,-54.8800010681152
11.5530851,-55.3899993896484
11.5687101,-55.6399993896484
11.5843351,-55.6199989318848
