Time(s),Value(%)
337.0126097,-16.2600002288818
337.0282347,-14.4899997711182
337.0438597,-12.8400001525879
337.0594847,-11.2399997711182
337.0751097,-9.60999965667725
337.0907347,-7.90999984741211
337.1063597,-6.13000011444092
337.1219847,-4.34999990463257
337.1376097,-2.69000005722046
337.1532347,-1.24000000953674
337.1688597,0.0599999986588955
337.1844847,1.33000004291534
337.2001097,2.75999999046326
337.2157347,4.75
337.2313597,8.23999977111816
337.2469847,14.6099996566772
337.2626097,24.9099998474121
337.2782347,38.7799987792969
337.2938597,53.7099990844727
337.3094847,65.6100006103516
337.3251097,70.9499969482422
337.3407347,68.6800003051758
337.3563597,60.3699989318848
337.3719847,49.0200004577637
337.3876097,37.4099998474121
337.4032347,27.2299995422363
337.4188597,18.8500003814697
337.4344847,11.7700004577637
337.4501097,5.17999982833862
337.4657347,-1.37999999523163
337.4813597,-7.84999990463257
337.4969847,-13.8100004196167
337.5126097,-18.7700004577637
337.5282347,-22.3400001525879
337.5438597,-24.3899993896484
337.5594847,-25.0499992370605
337.5751097,-24.6399993896484
337.5907347,-23.6499996185303
337.6063597,-22.6200008392334
337.6219847,-21.9799995422363
337.6376097,-21.9500007629395
337.6532347,-22.4300003051758
337.6688597,-23.1399993896484
337.6844847,-23.7900009155273
337.7001097,-24.2399997711182
337.7157347,-24.4699993133545
337.7313597,-24.4899997711182
337.7469847,-24.2099990844727
337.7626097,-23.5100002288818
337.7782347,-22.4599990844727
337.7938597,-21.2399997711182
337.8094847,-19.9799995422363
337.8251097,-18.75
337.8407347,-17.5200004577637
337.8563597,-16.1399993896484
337.8719847,-14.539999961853
337.8876097,-12.789999961853
337.9032347,-11.0100002288818
337.9188597,-9.23999977111816
337.9344847,-7.48000001907349
337.9501097,-5.69000005722046
337.9657347,-3.88000011444092
337.9813597,-2.08999991416931
337.9969847,-0.340000003576279
338.0126097,1.57000005245209
338.0282347,4.17999982833862
338.0438597,8.43000030517578
338.0594847,15.6499996185303
338.0751097,26.7000007629395
338.0907347,40.7700004577637
338.1063597,55.0299987792969
338.1219847,65.8600006103516
338.1376097,70.5800018310547
338.1532347,68.5500030517578
338.1688597,61.189998626709
338.1844847,51.0699996948242
338.2001097,40.6399993896484
338.2157347,31.4400005340576
338.2313597,23.7600002288818
338.2469847,17.1299991607666
338.2626097,10.8100004196167
338.2782347,4.25
338.2938597,-2.69000005722046
338.3094847,-9.77000045776367
338.3251097,-16.3799991607666
338.3407347,-21.8500003814697
338.3563597,-25.7099990844727
338.3719847,-27.8600006103516
338.3876097,-28.5900001525879
338.4032347,-28.3700008392334
338.4188597,-27.7399997711182
338.4344847,-27.0900001525879
338.4501097,-26.6299991607666
338.4657347,-26.4500007629395
338.4813597,-26.5100002288818
338.4969847,-26.75
338.5126097,-27.0
338.5282347,-26.8700008392334
338.5438597,-26.0499992370605
338.5594847,-24.7000007629395
338.5751097,-23.3199996948242
338.5907347,-22.2700004577637
338.6063597,-21.4799995422363
338.6219847,-20.6499996185303
338.6376097,-19.5400009155273
338.6532347,-18.1000003814697
338.6688597,-16.3899993896484
338.6844847,-14.539999961853
338.7001097,-12.6599998474121
338.7157347,-10.8299999237061
338.7313597,-9.09000015258789
338.7469847,-7.40000009536743
338.7626097,-5.67000007629395
338.7782347,-3.86999988555908
338.7938597,-2.00999999046326
338.8094847,-0.159999996423721
338.8251097,1.63999998569489
338.8407347,3.66000008583069
338.8563597,6.67000007629395
338.8719847,12.1700000762939
338.8876097,21.6399993896484
338.9032347,35.0200004577637
338.9188597,49.9900016784668
338.9344847,62.810001373291
338.9501097,70.0199966430664
338.9657347,70.129997253418
338.9813597,64.0899963378906
338.9969847,54.3800010681152
339.0126097,43.75
339.0282347,34.189998626709
339.0438597,26.3899993896484
339.0594847,19.9799995422363
339.0751097,14.0600004196167
339.0907347,7.82999992370605
339.1063597,0.970000028610229
339.1219847,-6.26000022888184
339.1376097,-13.1599998474121
339.1532347,-18.8799991607666
339.1688597,-22.8500003814697
339.1844847,-24.9200000762939
339.2001097,-25.2700004577637
339.2157347,-24.3700008392334
339.2313597,-22.9599990844727
339.2469847,-21.7099990844727
339.2626097,-21.0300006866455
339.2782347,-20.9099998474121
339.2938597,-21.1299991607666
339.3094847,-21.4899997711182
339.3251097,-21.8799991607666
339.3407347,-22.1100006103516
339.3563597,-22.0499992370605
339.3719847,-21.6599998474121
339.3876097,-20.9300003051758
339.4032347,-19.9200000762939
339.4188597,-18.75
339.4344847,-17.5499992370605
339.4501097,-16.3600006103516
339.4657347,-15.1400003433228
339.4813597,-13.75
339.4969847,-12.1599998474121
339.5126097,-10.3999996185303
339.5282347,-8.60000038146973
339.5438597,-6.8899998664856
339.5594847,-5.36999988555908
339.5751097,-3.96000003814697
339.5907347,-2.55999994277954
339.6063597,-1.07000005245209
339.6219847,0.610000014305115
339.6376097,2.77999997138977
339.6532347,6.23999977111816
339.6688597,12.4300003051758
339.6844847,22.3400001525879
339.7001097,35.0999984741211
339.7157347,47.8400001525879
339.7313597,57.0400009155273
339.7469847,60.2799987792969
339.7626097,57.2900009155273
339.7782347,49.6800003051758
339.7938597,39.8499984741211
339.8094847,29.8600006103516
339.8251097,20.8700008392334
339.8407347,13.1899995803833
339.8563597,6.63000011444092
339.8719847,0.850000023841858
339.8876097,-4.38000011444092
339.9032347,-9.0600004196167
339.9188597,-13.0200004577637
339.9344847,-15.9399995803833
339.9501097,-17.5699996948242
339.9657347,-17.8500003814697
339.9813597,-17.0599994659424
339.9969847,-15.6899995803833
340.0126097,-14.2299995422363
340.0282347,-13.1000003814697
340.0438597,-12.5699996948242
340.0594847,-12.6599998474121
340.0751097,-13.1899995803833
340.0907347,-13.8299999237061
340.1063597,-14.3699998855591
340.1219847,-14.7600002288818
340.1376097,-14.9399995803833
340.1532347,-14.8199996948242
340.1688597,-14.3299999237061
340.1844847,-13.6199998855591
340.2001097,-12.8800001144409
340.2157347,-12.1700000762939
340.2313597,-11.3800001144409
340.2469847,-10.3500003814697
340.2626097,-9.06999969482422
340.2782347,-7.73999977111816
340.2938597,-6.6100001335144
340.3094847,-5.71999979019165
340.3251097,-4.88000011444092
340.3407347,-3.92000007629395
340.3563597,-2.79999995231628
340.3719847,-1.48000001907349
340.3876097,0.319999992847443
340.4032347,3.75999999046326
340.4188597,10.5799999237061
340.4344847,21.6100006103516
340.4501097,35.1800003051758
340.4657347,47.7000007629395
340.4813597,55.560001373291
340.4969847,56.8800010681152
340.5126097,52.0900001525879
340.5282347,43.2400016784668
340.5438597,32.8400001525879
340.5594847,22.8799991607666
340.5751097,14.3999996185303
340.5907347,7.48999977111816
340.6063597,1.69000005722046
340.6219847,-3.65000009536743
340.6376097,-8.92000007629395
340.6532347,-14.039999961853
340.6688597,-18.5799999237061
340.6844847,-22.0400009155273
340.7001097,-24.0699996948242
340.7157347,-24.5900001525879
340.7313597,-23.8799991607666
340.7469847,-22.4799995422363
340.7626097,-21.0
340.7782347,-19.8400001525879
340.7938597,-19.2000007629395
340.8094847,-19.0200004577637
340.8251097,-19.2199993133545
340.8407347,-19.6299991607666
340.8563597,-20.0400009155273
340.8719847,-20.2199993133545
340.8876097,-20.0300006866455
340.9032347,-19.5
340.9188597,-18.7000007629395
340.9344847,-17.7600002288818
340.9501097,-16.7600002288818
340.9657347,-15.6700000762939
340.9813597,-14.3900003433228
340.9969847,-12.9499998092651
341.0126097,-11.460000038147
341.0282347,-9.98999977111816
341.0438597,-8.59000015258789
341.0594847,-7.32000017166138
341.0751097,-6.13000011444092
341.0907347,-4.84000015258789
341.1063597,-3.22000002861023
341.1219847,-0.920000016689301
341.1376097,2.77999997138977
341.1532347,9.26000022888184
341.1688597,19.8099994659424
341.1844847,34.0400009155273
341.2001097,48.8800010681152
341.2157347,60.189998626709
341.2313597,64.9899978637695
341.2469847,62.7900009155273
341.2626097,55.310001373291
341.2782347,45.3499984741211
341.2938597,35.4199981689453
341.3094847,27.0300006866455
341.3251097,20.4799995422363
341.3407347,15.1499996185303
341.3563597,10.0900001525879
341.3719847,4.53000020980835
341.3876097,-1.75
341.4032347,-8.47000026702881
341.4188597,-14.960000038147
341.4344847,-20.5599994659424
341.4501097,-24.7299995422363
341.4657347,-27.2299995422363
341.4813597,-28.1299991607666
341.4969847,-27.7800006866455
341.5126097,-26.7399997711182
341.5282347,-25.4799995422363
341.5438597,-24.3400001525879
341.5594847,-23.5400009155273
341.5751097,-23.1599998474121
341.5907347,-23.1399993896484
341.6063597,-23.2600002288818
341.6219847,-23.2999992370605
341.6376097,-23.1399993896484
341.6532347,-22.7600002288818
341.6688597,-22.1499996185303
341.6844847,-21.3400001525879
341.7001097,-20.4899997711182
341.7157347,-19.6800003051758
341.7313597,-18.8299999237061
341.7469847,-17.7299995422363
341.7626097,-16.2299995422363
341.7782347,-14.3100004196167
341.7938597,-12.1199998855591
341.8094847,-9.85999965667725
341.8251097,-7.63000011444092
341.8407347,-5.46999979019165
341.8563597,-3.35999989509583
341.8719847,-1.3400000333786
341.8876097,0.5
341.9032347,2.19000005722046
341.9188597,4.05000019073486
341.9344847,7.01000022888184
341.9501097,12.8199996948242
341.9657347,22.9899997711182
341.9813597,37.0800018310547
341.9969847,52.2099990844727
342.0126097,64.3499984741211
342.0282347,70.2300033569336
342.0438597,68.9000015258789
342.0594847,61.8400001525879
342.0751097,51.8400001525879
342.0907347,41.4900016784668
342.1063597,32.2999992370605
342.1219847,24.6399993896484
342.1376097,18.0799999237061
342.1532347,11.8999996185303
342.1688597,5.55999994277954
342.1844847,-0.980000019073486
342.2001097,-7.42000007629395
342.2157347,-13.2700004577637
342.2313597,-17.9899997711182
342.2469847,-21.1100006103516
342.2626097,-22.5
342.2782347,-22.4500007629395
342.2938597,-21.6100006103516
342.3094847,-20.6000003814697
342.3251097,-19.8500003814697
342.3407347,-19.5699996948242
342.3563597,-19.8600006103516
342.3719847,-20.6100006103516
342.3876097,-21.6000003814697
342.4032347,-22.4799995422363
342.4188597,-22.9599990844727
342.4344847,-22.8899993896484
342.4501097,-22.2999992370605
342.4657347,-21.3600006103516
342.4813597,-20.2299995422363
342.4969847,-19.0300006866455
342.5126097,-17.8099994659424
342.5282347,-16.5799999237061
342.5438597,-15.3199996948242
342.5594847,-13.9499998092651
342.5751097,-12.3999996185303
342.5907347,-10.6099996566772
342.6063597,-8.65999984741211
342.6219847,-6.67999982833862
342.6376097,-4.78999996185303
342.6532347,-3.01999998092651
342.6688597,-1.36000001430511
342.6844847,0.569999992847443
342.7001097,4.03000020980835
342.7157347,10.7799997329712
342.7313597,21.8400001525879
342.7469847,36.2400016784668
342.7626097,50.9500007629395
342.7782347,62.0999984741211
342.7938597,66.879997253418
342.8094847,64.6399993896484
342.8251097,56.8300018310547
342.8407347,46.0
342.8563597,34.7000007629395
342.8719847,24.6700000762939
342.8876097,16.5300006866455
342.9032347,9.93000030517578
342.9188597,4.01000022888184
342.9344847,-1.98000001907349
342.9501097,-8.27000045776367
342.9657347,-14.460000038147
342.9813597,-19.7800006866455
342.9969847,-23.5400009155273
343.0126097,-25.3500003814697
343.0282347,-25.2700004577637
343.0438597,-23.7900009155273
343.0594847,-21.7399997711182
343.0751097,-19.9200000762939
343.0907347,-18.9099998474121
343.1063597,-18.8099994659424
343.1219847,-19.3899993896484
343.1376097,-20.2600002288818
343.1532347,-21.1000003814697
343.1688597,-21.7199993133545
343.1844847,-22.0
343.2001097,-21.9300003051758
343.2157347,-21.5100002288818
343.2313597,-20.7399997711182
343.2469847,-19.5900001525879
343.2626097,-18.0699996948242
343.2782347,-16.2999992370605
343.2938597,-14.5
343.3094847,-12.8599996566772
343.3251097,-11.4300003051758
343.3407347,-10.1400003433228
343.3563597,-8.86999988555908
343.3719847,-7.51000022888184
343.3876097,-6.01000022888184
343.4032347,-4.38000011444092
343.4188597,-2.69000005722046
343.4344847,-0.769999980926514
343.4501097,2.27999997138977
343.4657347,8.10000038146973
343.4813597,18.1599998474121
343.4969847,32.439998626709
343.5126097,48.5800018310547
343.5282347,62.560001373291
343.5438597,70.6100006103516
343.5594847,70.9899978637695
343.5751097,64.5999984741211
343.5907347,54.1399993896484
343.6063597,42.6199989318848
343.6219847,32.1300010681152
343.6376097,23.5
343.6532347,16.5599994659424
343.6688597,10.6099996566772
343.6844847,4.78000020980835
343.7001097,-1.50999999046326
343.7157347,-8.30000019073486
343.7313597,-15.0100002288818
343.7469847,-20.7999992370605
343.7626097,-24.9599990844727
343.7782347,-27.2099990844727
343.7938597,-27.7299995422363
343.8094847,-26.9599990844727
343.8251097,-25.5599994659424
343.8407347,-24.2199993133545
343.8563597,-23.4799995422363
343.8719847,-23.5
343.8876097,-24.1100006103516
343.9032347,-24.9699993133545
343.9188597,-25.7600002288818
343.9344847,-26.3099994659424
343.9501097,-26.5499992370605
343.9657347,-26.4599990844727
343.9813597,-25.9699993133545
343.9969847,-25.0400009155273
344.0126097,-23.6900005340576
344.0282347,-22.0599994659424
344.0438597,-20.2600002288818
344.0594847,-18.4099998474121
344.0751097,-16.6000003814697
344.0907347,-14.9399995803833
344.1063597,-13.4200000762939
344.1219847,-11.8299999237061
344.1376097,-9.9399995803833
344.1532347,-7.73000001907349
344.1688597,-5.34999990463257
344.1844847,-3.07999992370605
344.2001097,-1.11000001430511
344.2157347,0.769999980926514
344.2313597,3.47000002861023
344.2469847,8.53999996185303
344.2626097,17.6100006103516
344.2782347,31.1200008392334
344.2938597,47.2799987792969
344.3094847,62.3600006103516
344.3251097,72.379997253418
344.3407347,74.9700012207031
344.3563597,70.3600006103516
344.3719847,60.9199981689453
344.3876097,49.6699981689453
344.4032347,39.0099983215332
344.4188597,30.0799999237061
344.4344847,22.8600006103516
344.4501097,16.6399993896484
344.4657347,10.5699996948242
344.4813597,4.09000015258789
344.4969847,-2.80999994277954
344.5126097,-9.75
344.5282347,-16.1200008392334
344.5438597,-21.2800006866455
344.5594847,-24.7800006866455
344.5751097,-26.4799995422363
344.5907347,-26.6499996185303
344.6063597,-25.9200000762939
344.6219847,-25.0699996948242
344.6376097,-24.6200008392334
344.6532347,-24.6800003051758
344.6688597,-25.0799999237061
344.6844847,-25.5599994659424
344.7001097,-25.9699993133545
344.7157347,-26.3099994659424
344.7313597,-26.5100002288818
344.7469847,-26.4699993133545
344.7626097,-26.1100006103516
344.7782347,-25.3999996185303
344.7938597,-24.3099994659424
344.8094847,-22.8999996185303
344.8251097,-21.2700004577637
344.8407347,-19.5400009155273
344.8563597,-17.7000007629395
344.8719847,-15.7200002670288
344.8876097,-13.6000003814697
344.9032347,-11.3299999237061
344.9188597,-9.02000045776367
344.9344847,-6.88000011444092
344.9501097,-4.98999977111816
344.9657347,-3.33999991416931
344.9813597,-1.8400000333786
344.9969847,-0.449999988079071
345.0126097,0.959999978542328
345.0282347,2.44000005722046
345.0438597,3.90000009536743
345.0594847,5.32000017166138
345.0751097,7.0
345.0907347,9.97999954223633
345.1063597,16.1200008392334
345.1219847,26.8899993896484
345.1376097,41.5499992370605
345.1532347,56.8600006103516
345.1688597,68.5199966430664
345.1844847,73.3600006103516
345.2001097,70.6900024414063
345.2157347,62.2200012207031
345.2313597,50.8899993896484
345.2469847,39.4300003051758
345.2626097,29.4699993133545
345.2782347,21.3999996185303
345.2938597,14.7200002670288
345.3094847,8.57999992370605
345.3251097,2.36999988555908
345.3407347,-3.86999988555908
345.3563597,-9.65999984741211
345.3719847,-14.5799999237061
345.3876097,-18.5100002288818
345.4032347,-21.3799991607666
345.4188597,-23.0499992370605
345.4344847,-23.4099998474121
345.4501097,-22.6800003051758
345.4657347,-21.4099998474121
345.4813597,-20.25
345.4969847,-19.6599998474121
345.5126097,-19.7399997711182
345.5282347,-20.2800006866455
345.5438597,-20.8899993896484
345.5594847,-21.3299999237061
345.5751097,-21.5400009155273
345.5907347,-21.5400009155273
345.6063597,-21.3600006103516
345.6219847,-21.0699996948242
345.6376097,-20.7900009155273
345.6532347,-20.5100002288818
345.6688597,-19.9699993133545
345.6844847,-18.9500007629395
345.7001097,-17.4099998474121
345.7157347,-15.6000003814697
345.7313597,-13.7700004577637
345.7469847,-12.0100002288818
345.7626097,-10.2799997329712
345.7782347,-8.56999969482422
345.7938597,-6.98000001907349
345.8094847,-5.59000015258789
345.8251097,-4.32999992370605
345.8407347,-3.01999998092651
345.8563597,-1.57000005245209
345.8719847,0.0
345.8876097,1.60000002384186
345.9032347,3.32999992370605
345.9188597,5.94999980926514
345.9344847,11.0
345.9501097,19.9500007629395
345.9657347,32.7200012207031
345.9813597,47.060001373291
345.9969847,59.3300018310547
346.0126097,66.0800018310547
346.0282347,65.6699981689453
346.0438597,58.939998626709
346.0594847,48.4300003051758
346.0751097,36.9700012207031
346.0907347,26.5799999237061
346.1063597,18.0
346.1219847,10.8900003433228
346.1376097,4.42000007629395
346.1532347,-2.02999997138977
346.1688597,-8.5600004196167
346.1844847,-14.7200002670288
346.2001097,-19.8099994659424
346.2157347,-23.2099990844727
346.2313597,-24.6200008392334
346.2469847,-24.2800006866455
346.2626097,-22.8299999237061
346.2782347,-21.0200004577637
346.2938597,-19.5300006866455
346.3094847,-18.7600002288818
346.3251097,-18.7700004577637
346.3407347,-19.3799991607666
346.3563597,-20.2299995422363
346.3719847,-20.9799995422363
346.3876097,-21.4300003051758
346.4032347,-21.5699996948242
346.4188597,-21.5200004577637
346.4344847,-21.3600006103516
346.4501097,-21.0
346.4657347,-20.2800006866455
346.4813597,-19.2199993133545
346.4969847,-17.9300003051758
346.5126097,-16.5300006866455
346.5282347,-15.1400003433228
346.5438597,-13.7299995422363
346.5594847,-12.2299995422363
346.5751097,-10.5699996948242
346.5907347,-8.84000015258789
346.6063597,-7.19000005722046
346.6219847,-5.67999982833862
346.6376097,-4.25
346.6532347,-2.79999995231628
346.6688597,-1.27999997138977
346.6844847,0.340000003576279
346.7001097,2.13000011444092
346.7157347,4.5
346.7313597,8.71000003814697
346.7469847,16.4799995422363
346.7626097,28.5300006866455
346.7782347,43.3699989318848
346.7938597,57.5900001525879
346.8094847,67.379997253418
346.8251097,70.3600006103516
346.8407347,66.4499969482422
346.8563597,57.5800018310547
346.8719847,46.4700012207031
346.8876097,35.5099983215332
346.9032347,26.1700000762939
346.9188597,18.8299999237061
346.9344847,12.9399995803833
346.9501097,7.53999996185303
346.9657347,1.78999996185303
346.9813597,-4.67000007629395
346.9969847,-11.5500001907349
347.0126097,-18.0300006866455
347.0282347,-23.1900005340576
347.0438597,-26.4300003051758
347.0594847,-27.6599998474121
347.0751097,-27.2800006866455
347.0907347,-26.0900001525879
347.1063597,-24.8899993896484
347.1219847,-24.2000007629395
347.1376097,-24.1299991607666
347.1532347,-24.5200004577637
347.1688597,-25.1100006103516
347.1844847,-25.7099990844727
347.2001097,-26.1700000762939
347.2157347,-26.3400001525879
347.2313597,-26.1299991607666
347.2469847,-25.5799999237061
347.2626097,-24.7299995422363
347.2782347,-23.6299991607666
347.2938597,-22.3099994659424
347.3094847,-20.8799991607666
347.3251097,-19.3799991607666
347.3407347,-17.7900009155273
347.3563597,-16.0200004577637
347.3719847,-14.0100002288818
347.3876097,-11.8500003814697
347.4032347,-9.6899995803833
347.4188597,-7.65999984741211
347.4344847,-5.82000017166138
347.4501097,-4.13000011444092
347.4657347,-2.55999994277954
347.4813597,-1.12999999523163
347.4969847,0.189999997615814
347.5126097,1.58000004291534
347.5282347,3.52999997138977
347.5438597,7.03000020980835
347.5594847,13.539999961853
347.5751097,24.0699996948242
347.5907347,38.0
347.6063597,52.689998626709
347.6219847,64.3300018310547
347.6376097,69.8199996948242
347.6532347,68.1399993896484
347.6688597,60.6300010681152
347.6844847,50.0699996948242
347.7001097,39.2099990844727
