Time(s),Value(%)
773.0083798,-18.8099994659424
773.0240048,-18.5799999237061
773.0396298,-18.3600006103516
773.0552548,-18.2000007629395
773.0708798,-18.1200008392334
773.0865048,-18.1399993896484
773.1021298,-18.3099994659424
773.1177548,-18.7000007629395
773.1333798,-19.2999992370605
773.1490048,-19.9799995422363
773.1646298,-20.5499992370605
773.1802548,-20.8600006103516
773.1958798,-20.8899993896484
773.2115048,-20.6900005340576
773.2271298,-20.3099994659424
773.2427548,-19.7299995422363
773.2583798,-18.9599990844727
773.2740048,-18.0300006866455
773.2896298,-17.0200004577637
773.3052548,-15.8900003433228
773.3208798,-14.5299997329712
773.3365048,-12.7799997329712
773.3521298,-10.6000003814697
773.3677548,-8.11999988555908
773.3833798,-5.53000020980835
773.3990048,-3.02999997138977
773.4146298,-0.720000028610229
773.4302548,1.29999995231628
773.4458798,2.9300000667572
773.4615048,4.07999992370605
773.4771298,4.73999977111816
773.4927548,5.03999996185303
773.5083798,5.1100001335144
773.5240048,5.1100001335144
773.5396298,5.09999990463257
773.5552548,5.1399998664856
773.5708798,5.19000005722046
773.5865048,5.40000009536743
773.6021298,5.57999992370605
773.6177548,5.73000001907349
773.6333798,5.84000015258789
773.6490048,5.92000007629395
773.6646298,5.92999982833862
773.6802548,5.84999990463257
773.6958798,5.65999984741211
773.7115048,5.40999984741211
773.7271298,5.15000009536743
773.7427548,4.90999984741211
773.7583798,4.73000001907349
773.7740048,4.59000015258789
773.7896298,4.51999998092651
773.8052548,4.53000020980835
773.8208798,4.59999990463257
773.8365048,4.73999977111816
773.8521298,4.8899998664856
773.8677548,5.05000019073486
773.8833798,5.23999977111816
773.8990048,5.46999979019165
773.9146298,5.78999996185303
773.9302548,6.26000022888184
773.9458798,7.07000017166138
773.9615048,8.35999965667725
773.9771298,10.1199998855591
773.9927548,12.1800003051758
774.0083798,14.2799997329712
774.0240048,16.2399997711182
774.0396298,18.0499992370605
774.0552548,19.7299995422363
774.0708798,21.1900005340576
774.0865048,22.2299995422363
774.1021298,22.7299995422363
774.1177548,22.75
774.1333798,22.4500007629395
774.1490048,21.9500007629395
774.1646298,21.2800006866455
774.1802548,20.3500003814697
774.1958798,19.0900001525879
774.2115048,17.4500007629395
774.2271298,15.3400001525879
774.2427548,12.6800003051758
774.2583798,9.52999973297119
774.2740048,6.09999990463257
774.2896298,2.65000009536743
774.3052548,-0.75
774.3208798,-4.26999998092651
774.3365048,-8.07999992370605
774.3521298,-12.0900001525879
774.3677548,-16.1299991607666
774.3833798,-20.2199993133545
774.3990048,-24.5799999237061
774.4146298,-29.3500003814697
774.4302548,-34.2700004577637
774.4458798,-38.8899993896484
774.4615048,-43.1699981689453
774.4771298,-47.9500007629395
774.4927548,-54.2299995422363
774.5083798,-62.1599998474121
774.5240048,-70.879997253418
774.5396298,-79.1800003051758
774.5552548,-86.2200012207031
774.5708798,-91.6699981689453
774.5865048,-96.75
774.6021298,-99.3399963378906
774.6177548,-98.7200012207031
774.6333798,-94.870002746582
774.6490048,-88.8399963378906
774.6646298,-82.3199996948242
774.6802548,-76.8399963378906
774.6958798,-73.0800018310547
774.7115048,-70.7900009155273
774.7271298,-69.1800003051758
774.7427548,-67.4800033569336
774.7583798,-65.2900009155273
774.7740048,-62.4599990844727
774.7896298,-58.8300018310547
774.8052548,-54.25
774.8208798,-48.7799987792969
774.8365048,-42.6800003051758
774.8521298,-36.4000015258789
774.8677548,-30.3099994659424
774.8833798,-24.6200008392334
774.8990048,-19.3700008392334
774.9146298,-14.4899997711182
774.9302548,-9.84000015258789
774.9458798,-5.32000017166138
774.9615048,-0.870000004768372
774.9771298,3.50999999046326
774.9927548,7.82999992370605
775.0083798,12.1999998092651
775.0240048,16.9300003051758
775.0396298,22.5
775.0552548,29.2700004577637
775.0708798,37.1300010681152
775.0865048,45.5900001525879
775.1021298,53.9500007629395
775.1177548,61.7000007629395
775.1333798,68.5699996948242
775.1490048,74.3000030517578
775.1646298,78.4899978637695
775.1802548,80.7799987792969
775.1958798,81.1800003051758
775.2115048,79.9899978637695
775.2271298,77.5299987792969
775.2427548,74.0500030517578
775.2583798,69.8199996948242
775.2740048,65.25
775.2896298,60.7700004577637
775.3052548,56.5200004577637
775.3208798,52.2299995422363
775.3365048,47.6199989318848
775.3521298,42.8199996948242
775.3677548,38.3899993896484
775.3833798,34.8199996948242
775.3990048,32.2200012207031
775.4146298,30.3299999237061
775.4302548,28.5699996948242
775.4458798,26.2299995422363
775.4615048,22.8299999237061
775.4771298,18.2800006866455
775.4927548,12.6499996185303
775.5083798,5.8899998664856
775.5240048,-2.13000011444092
775.5396298,-11.1899995803833
775.5552548,-20.3400001525879
775.5708798,-28.1299991607666
775.5865048,-33.4900016784668
775.6021298,-36.5200004577637
775.6177548,-38.0400009155273
775.6333798,-38.6599998474121
775.6490048,-38.4500007629395
775.6646298,-37.2700004577637
775.6802548,-35.1800003051758
775.6958798,-32.5699996948242
775.7115048,-30.3299999237061
775.7271298,-29.6599998474121
775.7427548,-31.5699996948242
775.7583798,-36.25
775.7740048,-43.5099983215332
775.7896298,-53.3800010681152
775.8052548,-66.0199966430664
775.8208798,-80.9100036621094
775.8365048,-96.1999969482422
775.8521298,-109.139999389648
775.8677548,-117.800003051758
775.8833798,-122.360000610352
775.8990048,-124.279998779297
775.9146298,-124.51000213623
775.9302548,-122.910003662109
775.9458798,-119.150001525879
775.9615048,-113.349998474121
775.9771298,-106.26000213623
775.9927548,-98.8099975585938
776.0083798,-91.8000030517578
776.0240048,-85.5899963378906
776.0396298,-80.1999969482422
776.0552548,-75.5999984741211
776.0708798,-71.9800033569336
776.0865048,-69.6399993896484
776.1021298,-68.4499969482422
776.1177548,-67.4800033569336
776.1333798,-65.0500030517578
776.1490048,-59.5999984741211
776.1646298,-50.5900001525879
776.1802548,-38.5400009155273
776.1958798,-24.4799995422363
776.2115048,-9.52999973297119
776.2271298,5.1399998664856
776.2427548,18.5799999237061
776.2583798,30.3299999237061
776.2740048,40.4500007629395
776.2896298,49.2900009155273
776.3052548,57.2400016784668
776.3208798,64.6600036621094
776.3365048,71.9300003051758
776.3521298,79.4800033569336
776.3677548,87.620002746582
776.3833798,96.3199996948242
776.3990048,105.220001220703
776.4146298,113.849998474121
776.4302548,121.75
776.4458798,128.619995117188
776.4615048,134.360000610352
776.4771298,139.029998779297
776.4927548,142.600006103516
776.5083798,144.75
776.5240048,145.130004882813
776.5396298,143.770004272461
776.5552548,141.199996948242
776.5708798,138.190002441406
776.5865048,134.389999389648
776.6021298,130.940002441406
776.6177548,127.819999694824
776.6333798,125.269996643066
776.6490048,123.699996948242
776.6646298,123.290000915527
776.6802548,123.800003051758
776.6958798,124.819999694824
776.7115048,126.309997558594
776.7271298,128.970001220703
776.7427548,133.589996337891
776.7583798,140.449996948242
776.7740048,149.279998779297
776.7896298,159.789993286133
776.8052548,171.720001220703
776.8208798,184.520004272461
776.8365048,197.039993286133
776.8521298,207.729995727539
776.8677548,215.559997558594
776.8833798,220.570007324219
776.8990048,223.460006713867
776.9146298,224.580001831055
776.9302548,223.820007324219
776.9458798,221.089996337891
776.9615048,216.690002441406
776.9771298,211.229995727539
776.9927548,205.330001831055
777.0083798,199.300003051758
777.0240048,193.179992675781
777.0396298,186.889999389648
777.0552548,180.369995117188
777.0708798,173.660003662109
777.0865048,166.830001831055
777.1021298,159.960006713867
777.1177548,152.929992675781
777.1333798,145.449996948242
777.1490048,137.229995727539
777.1646298,128.339996337891
777.1802548,119.089996337891
777.1958798,109.919998168945
777.2115048,101.069999694824
777.2271298,92.6399993896484
777.2427548,84.5299987792969
777.2583798,76.6100006103516
777.2740048,68.7200012207031
777.2896298,60.7099990844727
777.3052548,52.4700012207031
777.3208798,44.0499992370605
777.3365048,35.5900001525879
777.3521298,27.25
777.3677548,19.1599998474121
777.3833798,11.4200000762939
777.3990048,4.1100001335144
777.4146298,-2.59999990463257
777.4302548,-8.59000015258789
777.4458798,-13.8400001525879
777.4615048,-18.3600006103516
777.4771298,-22.1599998474121
777.4927548,-25.1800003051758
777.5083798,-27.5300006866455
777.5240048,-29.5300006866455
777.5396298,-31.6399993896484
777.5552548,-34.2299995422363
777.5708798,-37.3800010681152
777.5865048,-40.5800018310547
777.6021298,-44.189998626709
777.6177548,-48.2099990844727
777.6333798,-52.5999984741211
777.6490048,-57.1599998474121
777.6646298,-61.6699981689453
777.6802548,-65.9599990844727
777.6958798,-70.0299987792969
777.7115048,-74.0100021362305
777.7271298,-78.0699996948242
777.7427548,-82.3399963378906
777.7583798,-86.7900009155273
777.7740048,-91.3000030517578
777.7896298,-95.6699981689453
777.8052548,-99.7600021362305
777.8208798,-103.519996643066
777.8365048,-107.050003051758
777.8521298,-110.540000915527
777.8677548,-114.220001220703
777.8833798,-118.160003662109
777.8990048,-122.440002441406
777.9146298,-127.26000213623
777.9302548,-132.789993286133
777.9458798,-138.940002441406
777.9615048,-145.220001220703
777.9771298,-150.949996948242
777.9927548,-155.720001220703
778.0083798,-159.740005493164
778.0240048,-163.440002441406
778.0396298,-166.919998168945
778.0552548,-169.880004882813
778.0708798,-171.929992675781
778.0865048,-172.979995727539
778.1021298,-173.169998168945
778.1177548,-172.660003662109
778.1333798,-171.360000610352
778.1490048,-169.100006103516
778.1646298,-165.839996337891
778.1802548,-161.830001831055
778.1958798,-157.389999389648
778.2115048,-152.869995117188
778.2271298,-148.449996948242
778.2427548,-144.149993896484
778.2583798,-139.880004882813
778.2740048,-135.589996337891
778.2896298,-131.350006103516
778.3052548,-127.319999694824
778.3208798,-123.660003662109
778.3365048,-120.389999389648
778.3521298,-117.419998168945
778.3677548,-114.569999694824
778.3833798,-111.709999084473
778.3990048,-108.720001220703
778.4146298,-105.519996643066
778.4302548,-102.069999694824
778.4458798,-98.3899993896484
778.4615048,-94.5299987792969
778.4771298,-90.4800033569336
778.4927548,-86.2399978637695
778.5083798,-81.8300018310547
778.5240048,-77.3000030517578
778.5396298,-72.7200012207031
778.5552548,-68.1600036621094
778.5708798,-63.6399993896484
778.5865048,-58.5400009155273
778.6021298,-53.8800010681152
778.6177548,-49.9300003051758
778.6333798,-47.0
778.6490048,-45.2900009155273
778.6646298,-44.6599998474121
778.6802548,-44.6800003051758
778.6958798,-44.9000015258789
778.7115048,-45.0999984741211
778.7271298,-45.3300018310547
778.7427548,-45.6599998474121
778.7583798,-45.9300003051758
778.7740048,-45.7299995422363
778.7896298,-44.8199996948242
778.8052548,-43.2099990844727
778.8208798,-41.1100006103516
778.8365048,-38.5800018310547
778.8521298,-35.3800010681152
778.8677548,-31.1700000762939
778.8833798,-25.8600006103516
778.8990048,-19.6900005340576
778.9146298,-13.0
778.9302548,-6.1100001335144
778.9458798,0.720000028610229
778.9615048,7.19000005722046
778.9771298,12.9200000762939
778.9927548,17.6499996185303
779.0083798,21.3400001525879
779.0240048,24.1700000762939
779.0396298,26.2999992370605
779.0552548,27.8299999237061
779.0708798,28.8799991607666
779.0865048,29.6000003814697
779.1021298,30.1599998474121
779.1177548,30.7199993133545
779.1333798,31.4099998474121
779.1490048,32.2999992370605
779.1646298,33.3499984741211
779.1802548,34.5299987792969
779.1958798,35.810001373291
779.2115048,37.189998626709
779.2271298,38.6500015258789
779.2427548,40.0900001525879
779.2583798,41.3699989318848
779.2740048,42.4000015258789
779.2896298,43.25
779.3052548,44.0200004577637
779.3208798,44.7700004577637
779.3365048,45.4500007629395
779.3521298,45.9799995422363
779.3677548,46.3199996948242
779.3833798,46.5
779.3990048,46.5299987792969
779.4146298,46.4099998474121
779.4302548,46.1399993896484
779.4458798,45.75
779.4615048,45.5200004577637
779.4771298,45.9799995422363
779.4927548,47.5999984741211
779.5083798,50.439998626709
779.5240048,54.0900001525879
779.5396298,57.9799995422363
779.5552548,61.9700012207031
779.5708798,66.5800018310547
779.5865048,72.2799987792969
779.6021298,78.9800033569336
779.6177548,85.7399978637695
779.6333798,91.5699996948242
779.6490048,95.9599990844727
779.6646298,99.0599975585938
779.6802548,101.5
779.6958798,104.150001525879
779.7115048,107.629997253418
779.7271298,112.110000610352
779.7427548,117.430000305176
779.7583798,123.540000915527
779.7740048,130.449996948242
779.7896298,137.839996337891
779.8052548,144.679992675781
779.8208798,149.220001220703
779.8365048,150.0
779.8521298,146.740005493164
779.8677548,140.300003051758
779.8833798,131.850006103516
779.8990048,122.290000915527
779.9146298,112.25
779.9302548,102.139999389648
779.9458798,92.2600021362305
779.9615048,82.9100036621094
779.9771298,74.3499984741211
779.9927548,66.7600021362305
780.0083798,60.1800003051758
780.0240048,54.6699981689453
780.0396298,50.4700012207031
780.0552548,47.8800010681152
780.0708798,46.7900009155273
780.0865048,46.5400009155273
780.1021298,46.2799987792969
780.1177548,45.6399993896484
780.1333798,45.2599983215332
780.1490048,46.0099983215332
780.1646298,47.9700012207031
780.1802548,50.2599983215332
780.1958798,51.8199996948242
780.2115048,52.0800018310547
780.2271298,51.1500015258789
780.2427548,49.7000007629395
780.2583798,48.6599998474121
780.2740048,48.7000007629395
780.2896298,49.9799995422363
780.3052548,52.25
780.3208798,55.2299995422363
780.3365048,58.7000007629395
780.3521298,62.3199996948242
780.3677548,65.0999984741211
780.3833798,65.4000015258789
780.3990048,61.810001373291
780.4146298,54.2700004577637
780.4302548,43.9500007629395
780.4458798,32.3699989318848
780.4615048,20.6700000762939
780.4771298,9.40999984741211
780.4927548,-1.25
780.5083798,-11.3599996566772
780.5240048,-20.8500003814697
780.5396298,-29.4699993133545
780.5552548,-36.9700012207031
780.5708798,-43.2400016784668
780.5865048,-48.3699989318848
780.6021298,-52.2200012207031
780.6177548,-54.7299995422363
780.6333798,-56.0900001525879
780.6490048,-56.9300003051758
780.6646298,-58.1699981689453
780.6802548,-60.4500007629395
780.6958798,-63.7299995422363
780.7115048,-67.5400009155273
780.7271298,-71.5299987792969
780.7427548,-75.6800003051758
780.7583798,-79.9400024414063
780.7740048,-84.1699981689453
780.7896298,-88.1600036621094
780.8052548,-91.9300003051758
780.8208798,-95.7600021362305
780.8365048,-100.01000213623
780.8521298,-104.75
780.8677548,-109.839996337891
780.8833798,-115.029998779297
780.8990048,-120.129997253418
780.9146298,-125.029998779297
780.9302548,-129.630004882813
780.9458798,-133.960006713867
780.9615048,-138.429992675781
780.9771298,-143.889999389648
780.9927548,-151.169998168945
781.0083798,-160.520004272461
781.0240048,-171.889999389648
781.0396298,-185.5
781.0552548,-201.630004882813
781.0708798,-219.820007324219
781.0865048,-238.509994506836
781.1021298,-255.539993286133
781.1177548,-269.790008544922
781.1333798,-282.029998779297
781.1490048,-293.790008544922
781.1646298,-305.299987792969
781.1802548,-315.329986572266
781.1958798,-322.459991455078
781.2115048,-326.200012207031
781.2271298,-327.170013427734
781.2427548,-326.489990234375
781.2583798,-325.239990234375
781.2740048,-323.980010986328
781.2896298,-322.820007324219
781.3052548,-321.790008544922
781.3208798,-321.179992675781
781.3365048,-321.329986572266
781.3521298,-322.119995117188
781.3677548,-322.299987792969
781.3833798,-319.709991455078
781.3990048,-312.619995117188
781.4146298,-301.179992675781
781.4302548,-287.049987792969
781.4458798,-271.920013427734
781.4615048,-256.670013427734
781.4771298,-241.460006713867
781.4927548,-226.199996948242
781.5083798,-210.809997558594
781.5240048,-195.410003662109
781.5396298,-180.169998168945
781.5552548,-165.289993286133
781.5708798,-150.860000610352
781.5865048,-136.179992675781
781.6021298,-122.080001831055
781.6177548,-108.51000213623
781.6333798,-95.3300018310547
781.6490048,-82.1699981689453
781.6646298,-68.370002746582
781.6802548,-53.3800010681152
781.6958798,-37.2099990844727
781.7115048,-20.4699993133545
781.7271298,-3.94000005722046
781.7427548,11.75
781.7583798,26.4099998474121
781.7740048,40.0800018310547
781.7896298,52.9900016784668
781.8052548,65.4000015258789
781.8208798,77.5199966430664
781.8365048,89.4899978637695
781.8521298,101.279998779297
781.8677548,112.839996337891
781.8833798,124.180000305176
781.8990048,135.330001831055
781.9146298,146.270004272461
781.9302548,156.860000610352
781.9458798,166.910003662109
781.9615048,176.350006103516
781.9771298,185.270004272461
781.9927548,193.800003051758
782.0083798,201.899993896484
782.0240048,209.360000610352
782.0396298,215.979995727539
782.0552548,221.740005493164
782.0708798,226.779998779297
782.0865048,231.369995117188
782.1021298,235.839996337891
782.1177548,240.460006713867
782.1333798,245.289993286133
782.1490048,250.330001831055
782.1646298,255.679992675781
782.1802548,261.480010986328
782.1958798,267.619995117188
782.2115048,273.600006103516
782.2271298,278.679992675781
782.2427548,282.380004882813
782.2583798,284.920013427734
782.2740048,286.859985351563
782.2896298,288.459991455078
782.3052548,289.519989013672
782.3208798,289.709991455078
782.3365048,288.920013427734
782.3521298,287.279998779297
782.3677548,285.140014648438
782.3833798,282.829986572266
782.3990048,280.609985351563
782.4146298,278.529998779297
782.4302548,276.489990234375
782.4458798,274.450012207031
782.4615048,272.350006103516
782.4771298,270.100006103516
782.4927548,267.359985351563
782.5083798,263.519989013672
782.5240048,258.059997558594
782.5396298,251.020004272461
782.5552548,242.899993896484
782.5708798,234.320007324219
782.5865048,222.679992675781
782.6021298,211.610000610352
782.6177548,201.089996337891
782.6333798,191.009994506836
782.6490048,181.330001831055
782.6646298,172.029998779297
782.6802548,163.169998168945
782.6958798,154.75
782.7115048,146.770004272461
782.7271298,139.210006713867
782.7427548,132.059997558594
782.7583798,125.269996643066
782.7740048,118.669998168945
782.7896298,112.080001831055
782.8052548,105.410003662109
782.8208798,98.7900009155273
782.8365048,92.4700012207031
782.8521298,86.5800018310547
782.8677548,81.0800018310547
782.8833798,75.7900009155273
782.8990048,70.5699996948242
782.9146298,65.3899993896484
782.9302548,60.5
782.9458798,56.4500007629395
782.9615048,53.7000007629395
782.9771298,52.3499984741211
782.9927548,52.1199989318848
783.0083798,52.6599998474121
783.0240048,53.689998626709
783.0396298,54.9000015258789
783.0552548,55.7000007629395
783.0708798,55.2799987792969
783.0865048,52.9799995422363
783.1021298,48.8300018310547
783.1177548,43.4300003051758
783.1333798,37.4000015258789
783.1490048,31.1700000762939
783.1646298,24.9899997711182
783.1802548,19.0499992370605
783.1958798,13.4099998474121
783.2115048,7.98999977111816
783.2271298,2.57999992370605
783.2427548,-3.00999999046326
783.2583798,-8.8100004196167
783.2740048,-14.710000038147
783.2896298,-20.6000003814697
783.3052548,-26.4200000762939
783.3208798,-32.1500015258789
783.3365048,-37.7599983215332
783.3521298,-43.2000007629395
783.3677548,-48.3600006103516
783.3833798,-53.1100006103516
783.3990048,-57.3600006103516
783.4146298,-61.0800018310547
783.4302548,-64.3099975585938
783.4458798,-67.0100021362305
783.4615048,-69.1399993896484
783.4771298,-70.7600021362305
783.4927548,-72.0999984741211
783.5083798,-73.4800033569336
783.5240048,-75.0899963378906
783.5396298,-76.7900009155273
783.5552548,-78.3300018310547
783.5708798,-79.629997253418
783.5865048,-79.4499969482422
783.6021298,-79.3899993896484
783.6177548,-79.5599975585938
783.6333798,-79.9100036621094
783.6490048,-80.370002746582
783.6646298,-80.8899993896484
783.6802548,-81.4800033569336
783.6958798,-82.129997253418
783.7115048,-82.9000015258789
783.7271298,-83.9000015258789
783.7427548,-85.2099990844727
