Time(s),Value(%)
773.0083798,-9.76000022888184
773.0240048,-1.83000004291534
773.0396298,6.69999980926514
773.0552548,14.5900001525879
773.0708798,20.8999996185303
773.0865048,25.5100002288818
773.1021298,28.7700004577637
773.1177548,30.8199996948242
773.1333798,31.4300003051758
773.1490048,30.3500003814697
773.1646298,27.6599998474121
773.1802548,23.8500003814697
773.1958798,19.6700000762939
773.2115048,15.7299995422363
773.2271298,12.1800003051758
773.2427548,9.03999996185303
773.2583798,6.51000022888184
773.2740048,4.67999982833862
773.2896298,3.27999997138977
773.3052548,1.79999995231628
773.3208798,0.0
773.3365048,-1.91999995708466
773.3521298,-3.51999998092651
773.3677548,-4.55000019073486
773.3833798,-5.15000009536743
773.3990048,-5.59999990463257
773.4146298,-6.15999984741211
773.4302548,-6.8899998664856
773.4458798,-7.78000020980835
773.4615048,-8.72999954223633
773.4771298,-9.5600004196167
773.4927548,-10.0900001525879
773.5083798,-10.2700004577637
773.5240048,-9.97000026702881
773.5396298,-8.97999954223633
773.5552548,-7.25
773.5708798,-5.28000020980835
773.5865048,-3.90000009536743
773.6021298,-3.5699999332428
773.6177548,-3.77999997138977
773.6333798,-3.25999999046326
773.6490048,-0.819999992847443
773.6646298,3.82999992370605
773.6802548,10.1099996566772
773.6958798,16.9300003051758
773.7115048,23.2099990844727
773.7271298,28.1200008392334
773.7427548,31.1900005340576
773.7583798,32.439998626709
773.7740048,32.1699981689453
773.7896298,30.7800006866455
773.8052548,28.75
773.8208798,26.5900001525879
773.8365048,24.6299991607666
773.8521298,22.7099990844727
773.8677548,20.2299995422363
773.8833798,16.6299991607666
773.8990048,12.0299997329712
773.9146298,7.03000020980835
773.9302548,2.34999990463257
773.9458798,-1.41999995708466
773.9615048,-4.0
773.9771298,-5.53999996185303
773.9927548,-6.48999977111816
774.0083798,-7.1100001335144
774.0240048,-7.38000011444092
774.0396298,-7.38000011444092
774.0552548,-7.5
774.0708798,-8.23999977111816
774.0865048,-9.65999984741211
774.1021298,-11.3299999237061
774.1177548,-12.710000038147
774.1333798,-13.75
774.1490048,-14.9499998092651
774.1646298,-16.7099990844727
774.1802548,-18.8799991607666
774.1958798,-20.8700008392334
774.2115048,-22.0400009155273
774.2271298,-22.0499992370605
774.2427548,-20.8600006103516
774.2583798,-18.7800006866455
774.2740048,-16.3700008392334
774.2896298,-14.1499996185303
774.3052548,-12.1700000762939
774.3208798,-9.73999977111816
774.3365048,-5.82000017166138
774.3521298,0.109999999403954
774.3677548,7.5
774.3833798,15.0100002288818
774.3990048,21.5
774.4146298,26.3999996185303
774.4302548,29.5599994659424
774.4458798,31.0599994659424
774.4615048,30.9899997711182
774.4771298,29.5599994659424
774.4927548,27.0400009155273
774.5083798,23.8600006103516
774.5240048,20.4799995422363
774.5396298,17.2299995422363
774.5552548,14.1899995803833
774.5708798,11.2200002670288
774.5865048,8.25
774.6021298,5.38000011444092
774.6177548,2.92000007629395
774.6333798,1.23000001907349
774.6490048,0.529999971389771
774.6646298,0.720000028610229
774.6802548,1.3400000333786
774.6958798,1.75999999046326
774.7115048,1.45000004768372
774.7271298,0.209999993443489
774.7427548,-1.87999999523163
774.7583798,-4.69000005722046
774.7740048,-8.02999973297119
774.7896298,-11.6099996566772
774.8052548,-14.9200000762939
774.8208798,-17.3799991607666
774.8365048,-18.7600002288818
774.8521298,-19.2999992370605
774.8677548,-19.4500007629395
774.8833798,-19.4599990844727
774.8990048,-19.3600006103516
774.9146298,-19.1499996185303
774.9302548,-18.9799995422363
774.9458798,-18.9599990844727
774.9615048,-19.0300006866455
774.9771298,-19.1599998474121
774.9927548,-19.25
775.0083798,-18.8400001525879
775.0240048,-17.2900009155273
775.0396298,-14.1700000762939
775.0552548,-9.53999996185303
775.0708798,-3.89000010490417
775.0865048,2.03999996185303
775.1021298,7.55000019073486
775.1177548,12.1000003814697
775.1333798,15.289999961853
775.1490048,16.8500003814697
775.1646298,17.0
775.1802548,16.4400005340576
775.1958798,15.7399997711182
775.2115048,14.8800001144409
775.2271298,13.4799995422363
775.2427548,11.25
775.2583798,8.18000030517578
775.2740048,4.55999994277954
775.2896298,1.12999999523163
775.3052548,-1.03999996185303
775.3208798,-1.35000002384186
775.3365048,-0.0199999995529652
775.3521298,1.87000000476837
775.3677548,2.96000003814697
775.3833798,2.32999992370605
775.3990048,-0.0099999997764825
775.4146298,-3.49000000953674
775.4302548,-7.3600001335144
775.4458798,-10.9300003051758
775.4615048,-13.6899995803833
775.4771298,-15.4300003051758
775.4927548,-16.2700004577637
775.5083798,-16.2099990844727
775.5240048,-15.1899995803833
775.5396298,-13.4300003051758
775.5552548,-11.5100002288818
775.5708798,-9.98999977111816
775.5865048,-9.06999969482422
775.6021298,-8.63000011444092
775.6177548,-8.53999996185303
775.6333798,-8.77000045776367
775.6490048,-9.47999954223633
775.6646298,-10.6599998474121
775.6802548,-12.0100002288818
775.6958798,-13.0200004577637
775.7115048,-13.0699996948242
775.7271298,-11.6099996566772
775.7427548,-8.27999973297119
775.7583798,-3.01999998092651
775.7740048,3.76999998092651
775.7896298,11.039999961853
775.8052548,17.2399997711182
775.8208798,21.1299991607666
775.8365048,22.4300003051758
775.8521298,21.7000007629395
775.8677548,19.8299999237061
775.8833798,17.5799999237061
775.8990048,15.3100004196167
775.9146298,13.0600004196167
775.9302548,10.8400001525879
775.9458798,8.93000030517578
775.9615048,7.57000017166138
775.9771298,6.59999990463257
775.9927548,5.46999979019165
776.0083798,3.80999994277954
776.0240048,1.74000000953674
776.0396298,-0.159999996423721
776.0552548,-1.20000004768372
776.0708798,-0.949999988079071
776.0865048,0.400000005960464
776.1021298,2.14000010490417
776.1177548,3.46000003814697
776.1333798,3.82999992370605
776.1490048,3.11999988555908
776.1646298,1.47000002861023
776.1802548,-0.759999990463257
776.1958798,-2.98000001907349
776.2115048,-4.57999992370605
776.2271298,-5.42999982833862
776.2427548,-5.96999979019165
776.2583798,-6.82000017166138
776.2740048,-8.42000007629395
776.2896298,-10.7799997329712
776.3052548,-13.3800001144409
776.3208798,-15.3199996948242
776.3365048,-16.0
776.3521298,-15.5299997329712
776.3677548,-14.5200004577637
776.3833798,-13.5
776.3990048,-12.3500003814697
776.4146298,-10.2299995422363
776.4302548,-5.98000001907349
776.4458798,0.910000026226044
776.4615048,9.76000022888184
776.4771298,18.7800006866455
776.4927548,25.9099998474121
776.5083798,29.8700008392334
776.5240048,30.6800003051758
776.5396298,29.3299999237061
776.5552548,26.9099998474121
776.5708798,24.1499996185303
776.5865048,21.4500007629395
776.6021298,18.8899993896484
776.6177548,16.1200008392334
776.6333798,12.539999961853
776.6490048,7.96000003814697
776.6646298,3.00999999046326
776.6802548,-1.26999998092651
776.6958798,-4.17000007629395
776.7115048,-5.55000019073486
776.7271298,-5.8600001335144
776.7427548,-6.05000019073486
776.7583798,-7.07000017166138
776.7740048,-9.1899995803833
776.7896298,-11.7600002288818
776.8052548,-13.8199996948242
776.8208798,-14.8199996948242
776.8365048,-14.8500003814697
776.8521298,-14.3299999237061
776.8677548,-13.6199998855591
776.8833798,-13.0299997329712
776.8990048,-12.8500003814697
776.9146298,-13.25
776.9302548,-14.0699996948242
776.9458798,-14.7799997329712
776.9615048,-14.8199996948242
776.9771298,-14.1099996566772
776.9927548,-13.039999961853
777.0083798,-12.1800003051758
777.0240048,-11.9200000762939
777.0396298,-12.3900003433228
777.0552548,-13.4499998092651
777.0708798,-14.5600004196167
777.0865048,-14.8400001525879
777.1021298,-13.2399997711182
777.1177548,-9.03999996185303
777.1333798,-2.38000011444092
777.1490048,5.65000009536743
777.1646298,13.5
777.1802548,19.9099998474121
777.1958798,24.4599990844727
777.2115048,27.5200004577637
777.2271298,29.6399993896484
777.2427548,31.0
777.2583798,31.3700008392334
777.2740048,30.4099998474121
777.2896298,27.9099998474121
777.3052548,23.9400005340576
777.3208798,18.8799991607666
777.3365048,13.460000038147
777.3521298,8.61999988555908
777.3677548,5.09999990463257
777.3833798,2.84999990463257
777.3990048,1.07000005245209
777.4146298,-0.959999978542328
777.4302548,-3.38000011444092
777.4458798,-5.80999994277954
777.4615048,-7.69000005722046
777.4771298,-8.48999977111816
777.4927548,-8.03999996185303
777.5083798,-6.65000009536743
777.5240048,-5.15000009536743
777.5396298,-4.48000001907349
777.5552548,-5.30999994277954
777.5708798,-7.67999982833862
777.5865048,-10.8999996185303
777.6021298,-13.9099998474121
777.6177548,-15.6999998092651
777.6333798,-15.8100004196167
777.6490048,-14.6899995803833
777.6646298,-13.5
777.6802548,-13.3199996948242
777.6958798,-14.3699998855591
777.7115048,-15.9200000762939
777.7271298,-16.8500003814697
777.7427548,-16.2800006866455
777.7583798,-13.8800001144409
777.7740048,-9.92000007629395
777.7896298,-4.96999979019165
777.8052548,0.509999990463257
777.8208798,6.28999996185303
777.8365048,12.1400003433228
777.8521298,17.6800003051758
777.8677548,22.4799995422363
777.8833798,26.2000007629395
777.8990048,28.3700008392334
777.9146298,28.4500007629395
777.9302548,26.3899993896484
777.9458798,23.1100006103516
777.9615048,20.1700000762939
777.9771298,18.7399997711182
777.9927548,18.8299999237061
778.0083798,19.2199993133545
778.0240048,18.3299999237061
778.0396298,15.4300003051758
778.0552548,11.0600004196167
778.0708798,6.42999982833862
778.0865048,2.64000010490417
778.1021298,0.219999998807907
778.1177548,-0.759999990463257
778.1333798,-0.730000019073486
778.1490048,-0.600000023841858
778.1646298,-1.48000001907349
778.1802548,-3.84999990463257
778.1958798,-7.28999996185303
778.2115048,-10.8400001525879
778.2271298,-13.6300001144409
778.2427548,-15.1300001144409
778.2583798,-15.289999961853
778.2740048,-14.4799995422363
778.2896298,-13.3599996566772
778.3052548,-12.5200004577637
778.3208798,-12.2799997329712
778.3365048,-12.8699998855591
778.3521298,-14.4499998092651
778.3677548,-16.8799991607666
778.3833798,-19.4300003051758
778.3990048,-21.1399993896484
778.4146298,-21.3700008392334
778.4302548,-20.3099994659424
778.4458798,-18.7299995422363
778.4615048,-17.3799991607666
778.4771298,-16.4899997711182
778.4927548,-15.7399997711182
778.5083798,-14.539999961853
778.5240048,-12.3900003433228
778.5396298,-8.89000034332275
778.5552548,-3.71000003814697
778.5708798,3.07999992370605
778.5865048,10.6700000762939
778.6021298,17.6100006103516
778.6177548,22.4699993133545
778.6333798,24.6200008392334
778.6490048,24.5200004577637
778.6646298,23.1299991607666
778.6802548,21.2299995422363
778.6958798,19.1700000762939
778.7115048,16.8600006103516
778.7271298,13.7799997329712
778.7427548,9.53999996185303
778.7583798,4.67999982833862
778.7740048,0.639999985694885
778.7896298,-1.32000005245209
778.8052548,-1.21000003814697
778.8208798,-0.129999995231628
778.8365048,0.419999986886978
778.8521298,-0.430000007152557
778.8677548,-2.6800000667572
778.8833798,-5.69000005722046
778.8990048,-8.81999969482422
778.9146298,-11.75
778.9302548,-14.3599996566772
778.9458798,-16.6000003814697
778.9615048,-18.4899997711182
778.9771298,-19.9200000762939
778.9927548,-20.6800003051758
779.0083798,-20.5799999237061
779.0240048,-19.6599998474121
779.0396298,-18.2900009155273
779.0552548,-16.8899993896484
779.0708798,-15.5600004196167
779.0865048,-14.1099996566772
779.1021298,-12.4099998474121
779.1177548,-10.5799999237061
779.1333798,-8.96000003814697
779.1490048,-7.80999994277954
779.1646298,-7.09999990463257
779.1802548,-6.46000003814697
779.1958798,-5.57000017166138
779.2115048,-4.1399998664856
779.2271298,-1.91999995708466
779.2427548,1.35000002384186
779.2583798,5.73000001907349
779.2740048,10.8100004196167
779.2896298,15.7200002670288
779.3052548,19.5599994659424
779.3208798,21.8899993896484
779.3365048,22.7900009155273
779.3521298,22.4400005340576
779.3677548,21.1299991607666
779.3833798,19.4599990844727
779.3990048,17.9099998474121
779.4146298,16.2700004577637
779.4302548,13.9099998474121
779.4458798,10.710000038147
779.4615048,7.3899998664856
779.4771298,4.71999979019165
779.4927548,2.86999988555908
779.5083798,1.5
779.5240048,0.310000002384186
779.5396298,-0.639999985694885
779.5552548,-1.25999999046326
779.5708798,-1.57000005245209
779.5865048,-1.5900000333786
779.6021298,-1.45000004768372
779.6177548,-1.44000005722046
779.6333798,-1.98000001907349
779.6490048,-3.24000000953674
779.6646298,-5.03000020980835
779.6802548,-6.78000020980835
779.6958798,-8.02999973297119
779.7115048,-8.77000045776367
779.7271298,-9.31999969482422
779.7427548,-9.82999992370605
779.7583798,-10.1499996185303
779.7740048,-10.0799999237061
779.7896298,-9.60999965667725
779.8052548,-9.0
779.8208798,-8.5
779.8365048,-8.10999965667725
779.8521298,-7.55999994277954
779.8677548,-6.51999998092651
779.8833798,-4.55999994277954
779.8990048,-1.01999998092651
779.9146298,4.61999988555908
779.9302548,12.1300001144409
779.9458798,20.3099994659424
779.9615048,27.5900001525879
779.9771298,32.810001373291
779.9927548,35.5
780.0083798,35.8600006103516
780.0240048,34.4799995422363
780.0396298,32.0900001525879
780.0552548,29.3700008392334
780.0708798,26.7700004577637
780.0865048,24.3600006103516
780.1021298,21.9400005340576
780.1177548,19.1000003814697
780.1333798,15.3599996566772
780.1490048,10.5799999237061
780.1646298,5.26000022888184
780.1802548,0.579999983310699
780.1958798,-2.35999989509583
780.2115048,-3.22000002861023
780.2271298,-2.61999988555908
780.2427548,-1.78999996185303
780.2583798,-1.98000001907349
780.2740048,-3.83999991416931
780.2896298,-6.98999977111816
780.3052548,-10.2799997329712
780.3208798,-12.6000003814697
780.3365048,-13.6099996566772
780.3521298,-13.8599996566772
780.3677548,-14.2299995422363
780.3833798,-15.210000038147
780.3990048,-16.4699993133545
780.4146298,-17.3400001525879
780.4302548,-17.6900005340576
780.4458798,-18.0100002288818
780.4615048,-18.7600002288818
780.4771298,-19.7399997711182
780.4927548,-20.2800006866455
780.5083798,-19.8199996948242
780.5240048,-18.3400001525879
780.5396298,-16.0699996948242
780.5552548,-13.1700000762939
780.5708798,-9.63000011444092
780.5865048,-5.36999988555908
780.6021298,-0.280000001192093
780.6177548,5.69999980926514
780.6333798,12.4899997711182
780.6490048,19.5
780.6646298,25.6599998474121
780.6802548,29.8700008392334
780.6958798,31.6100006103516
780.7115048,31.3600006103516
780.7271298,30.3899993896484
780.7427548,29.8500003814697
780.7583798,29.8500003814697
780.7740048,29.2900009155273
780.7896298,26.6499996185303
780.8052548,21.2199993133545
780.8208798,13.6599998474121
780.8365048,5.57000017166138
780.8521298,-1.46000003814697
780.8677548,-6.6399998664856
780.8833798,-9.97999954223633
780.8990048,-11.9899997711182
780.9146298,-13.3000001907349
780.9302548,-14.3400001525879
780.9458798,-15.25
780.9615048,-15.9899997711182
780.9771298,-16.4300003051758
780.9927548,-16.5799999237061
781.0083798,-16.6399993896484
781.0240048,-16.8500003814697
781.0396298,-17.2900009155273
781.0552548,-17.8600006103516
781.0708798,-18.5200004577637
781.0865048,-19.3400001525879
781.1021298,-20.2600002288818
781.1177548,-20.9400005340576
781.1333798,-21.0599994659424
781.1490048,-20.5
781.1646298,-19.3899993896484
781.1802548,-17.9500007629395
781.1958798,-16.4099998474121
781.2115048,-15.0699996948242
781.2271298,-13.9899997711182
781.2427548,-12.6099996566772
781.2583798,-9.80000019073486
781.2740048,-4.57000017166138
781.2896298,3.17000007629395
781.3052548,12.4399995803833
781.3208798,21.7199993133545
781.3365048,29.4699993133545
781.3521298,34.4599990844727
781.3677548,36.1599998474121
781.3833798,34.8800010681152
781.3990048,31.4799995422363
781.4146298,26.9300003051758
781.4302548,22.2000007629395
781.4458798,18.2000007629395
781.4615048,15.3599996566772
781.4771298,13.3500003814697
781.4927548,11.3100004196167
781.5083798,8.47000026702881
781.5240048,4.55000019073486
781.5396298,-0.0799999982118607
781.5552548,-4.71000003814697
781.5708798,-8.56999969482422
781.5865048,-11.1899995803833
781.6021298,-12.6000003814697
781.6177548,-13.2399997711182
781.6333798,-13.5799999237061
781.6490048,-14.1099996566772
781.6646298,-15.3000001907349
781.6802548,-17.3500003814697
781.6958798,-19.9500007629395
781.7115048,-22.5200004577637
781.7271298,-24.5300006866455
781.7427548,-25.7900009155273
781.7583798,-26.3199996948242
781.7740048,-26.1200008392334
781.7896298,-24.9699993133545
781.8052548,-22.7199993133545
781.8208798,-19.6000003814697
781.8365048,-16.1299991607666
781.8521298,-12.8400001525879
781.8677548,-10.0699996948242
781.8833798,-8.11999988555908
781.8990048,-7.38000011444092
781.9146298,-7.80999994277954
781.9302548,-8.43000030517578
781.9458798,-7.71000003814697
781.9615048,-4.63000011444092
781.9771298,0.540000021457672
781.9927548,6.6100001335144
782.0083798,12.2799997329712
782.0240048,16.7299995422363
782.0396298,19.5599994659424
782.0552548,20.5900001525879
782.0708798,19.9699993133545
782.0865048,18.2399997711182
782.1021298,16.0799999237061
782.1177548,13.9399995803833
782.1333798,11.8000001907349
782.1490048,9.5
782.1646298,7.25
782.1802548,5.5
782.1958798,4.40999984741211
782.2115048,3.67000007629395
782.2271298,3.00999999046326
782.2427548,2.46000003814697
782.2583798,2.01999998092651
782.2740048,1.41999995708466
782.2896298,0.379999995231628
782.3052548,-0.800000011920929
782.3208798,-1.62999999523163
782.3365048,-2.07999992370605
782.3521298,-2.80999994277954
782.3677548,-4.40999984741211
782.3833798,-6.71000003814697
782.3990048,-8.8100004196167
782.4146298,-9.82999992370605
782.4302548,-9.65999984741211
782.4458798,-9.10000038146973
782.4615048,-9.17000007629395
782.4771298,-10.2700004577637
782.4927548,-12.0500001907349
782.5083798,-13.960000038147
782.5240048,-15.6400003433228
782.5396298,-16.8500003814697
782.5552548,-17.3600006103516
782.5708798,-17.0599994659424
782.5865048,-15.8000001907349
782.6021298,-12.9899997711182
782.6177548,-7.6100001335144
782.6333798,0.850000023841858
782.6490048,11.6300001144409
782.6646298,22.7199993133545
782.6802548,31.8600006103516
782.6958798,37.6800003051758
782.7115048,40.060001373291
782.7271298,39.8800010681152
782.7427548,38.310001373291
782.7583798,36.3300018310547
782.7740048,34.4900016784668
782.7896298,32.8199996948242
782.8052548,30.8299999237061
782.8208798,27.7800006866455
782.8365048,23.4099998474121
782.8521298,18.3199996948242
782.8677548,13.5299997329712
782.8833798,9.78999996185303
782.8990048,7.19999980926514
782.9146298,5.17000007629395
782.9302548,2.67000007629395
782.9458798,-1.11000001430511
782.9615048,-6.15000009536743
782.9771298,-11.460000038147
782.9927548,-15.9200000762939
783.0083798,-18.8299999237061
783.0240048,-20.0
783.0396298,-19.6900005340576
783.0552548,-18.6399993896484
783.0708798,-17.8400001525879
783.0865048,-17.9699993133545
783.1021298,-18.8899993896484
783.1177548,-19.9699993133545
783.1333798,-20.7000007629395
783.1490048,-21.0200004577637
783.1646298,-21.0799999237061
783.1802548,-21.0
783.1958798,-20.9200000762939
783.2115048,-21.0900001525879
783.2271298,-21.5900001525879
783.2427548,-21.9400005340576
783.2583798,-21.0200004577637
783.2740048,-17.6399993896484
783.2896298,-11.4399995803833
783.3052548,-3.16000008583069
783.3208798,5.63000011444092
783.3365048,13.289999961853
783.3521298,18.7299995422363
783.3677548,21.7700004577637
783.3833798,23.1000003814697
783.3990048,23.9799995422363
783.4146298,25.6599998474121
783.4302548,28.5
783.4458798,31.6399993896484
783.4615048,33.7599983215332
783.4771298,33.8400001525879
783.4927548,31.3199996948242
783.5083798,26.2000007629395
783.5240048,19.1900005340576
783.5396298,11.5900001525879
783.5552548,4.90999984741211
783.5708798,0.209999993443489
783.5865048,-2.46000003814697
783.6021298,-3.80999994277954
783.6177548,-4.59999990463257
783.6333798,-5.44999980926514
783.6490048,-6.8600001335144
783.6646298,-9.10999965667725
783.6802548,-12.210000038147
783.6958798,-15.9399995803833
783.7115048,-19.8099994659424
783.7271298,-23.1399993896484
783.7427548,-25.4300003051758
