Time(s),Value(%)
1092.0064631,-49.7599983215332
1092.0220881,-50.5699996948242
1092.0377131,-48.5699996948242
1092.0533381,-44.0099983215332
1092.0689631,-38.7200012207031
1092.0845881,-34.9599990844727
1092.1002131,-33.810001373291
1092.1158381,-34.5699996948242
1092.1314631,-35.4300003051758
1092.1470881,-34.8400001525879
1092.1627131,-32.4300003051758
1092.1783381,-28.8600006103516
1092.1939631,-24.7299995422363
1092.2095881,-19.7099990844727
1092.2252131,-12.3999996185303
1092.2408381,-1.27999997138977
1092.2564631,14.2200002670288
1092.2720881,32.9900016784668
1092.2877131,52.2400016784668
1092.3033381,68.4599990844727
1092.3189631,79.1900024414063
1092.3345881,83.879997253418
1092.3502131,83.620002746582
1092.3658381,80.2200012207031
1092.3814631,75.4800033569336
1092.3970881,70.6699981689453
1092.4127131,66.1100006103516
1092.4283381,61.4099998474121
1092.4439631,56.3199996948242
1092.4595881,51.0699996948242
1092.4752131,46.0200004577637
1092.4908381,41.0499992370605
1092.5064631,35.5999984741211
1092.5220881,29.3799991607666
1092.5377131,22.9300003051758
1092.5533381,17.2600002288818
1092.5689631,12.8599996566772
1092.5845881,9.28999996185303
1092.6002131,5.6399998664856
1092.6158381,1.01999998092651
1092.6314631,-5.21000003814697
1092.6470881,-13.1999998092651
1092.6627131,-22.3299999237061
1092.6783381,-31.3999996185303
1092.6939631,-39.1500015258789
1092.7095881,-45.0299987792969
1092.7252131,-49.2999992370605
1092.7408381,-52.4900016784668
1092.7564631,-54.6599998474121
1092.7720881,-55.3499984741211
1092.7877131,-54.2200012207031
1092.8033381,-51.6100006103516
1092.8189631,-48.5200004577637
1092.8345881,-45.9599990844727
1092.8502131,-44.4199981689453
1092.8658381,-43.9500007629395
1092.8814631,-44.2700004577637
1092.8970881,-44.6300010681152
1092.9127131,-44.1500015258789
1092.9283381,-42.4700012207031
1092.9439631,-39.9300003051758
1092.9595881,-37.1199989318848
1092.9752131,-34.1699981689453
1092.9908381,-30.7700004577637
1093.0064631,-26.7999992370605
1093.0220881,-22.6800003051758
1093.0377131,-19.0599994659424
1093.0533381,-16.3700008392334
1093.0689631,-14.4099998474121
1093.0845881,-12.1499996185303
1093.1002131,-8.10000038146973
1093.1158381,-0.879999995231628
1093.1314631,10.3900003433228
1093.1470881,25.5799999237061
1093.1627131,43.060001373291
1093.1783381,60.0699996948242
1093.1939631,73.6600036621094
1093.2095881,81.8399963378906
1093.2252131,84.4599990844727
1093.2408381,83.1100006103516
1093.2564631,80.120002746582
1093.2720881,77.5899963378906
1093.2877131,76.6800003051758
1093.3033381,77.1399993896484
1093.3189631,77.1900024414063
1093.3345881,74.1800003051758
1093.3502131,66.25
1093.3658381,53.5499992370605
1093.3814631,38.3499984741211
1093.3970881,23.6900005340576
1093.4127131,11.8500003814697
1093.4283381,3.47000002861023
1093.4439631,-2.08999991416931
1093.4595881,-5.94000005722046
1093.4752131,-9.19999980926514
1093.4908381,-12.8299999237061
1093.5064631,-17.25
1093.5220881,-21.8799991607666
1093.5377131,-25.4300003051758
1093.5533381,-27.0400009155273
1093.5689631,-27.0400009155273
1093.5845881,-26.5900001525879
1093.6002131,-26.7800006866455
1093.6158381,-28.0
1093.6314631,-30.0
1093.6470881,-32.4599990844727
1093.6627131,-35.189998626709
1093.6783381,-37.8499984741211
1093.6939631,-39.9000015258789
1093.7095881,-40.8300018310547
1093.7252131,-40.310001373291
1093.7408381,-38.3499984741211
1093.7564631,-35.3800010681152
1093.7720881,-32.1199989318848
1093.7877131,-29.2000007629395
1093.8033381,-26.8600006103516
1093.8189631,-24.8799991607666
1093.8345881,-23.0200004577637
1093.8502131,-21.3999996185303
1093.8658381,-20.2800006866455
1093.8814631,-19.7700004577637
1093.8970881,-19.7999992370605
1093.9127131,-20.2800006866455
1093.9283381,-21.1000003814697
1093.9439631,-21.9200000762939
1093.9595881,-22.1399993896484
1093.9752131,-21.1200008392334
1093.9908381,-18.1800003051758
1094.0064631,-12.2700004577637
1094.0220881,-2.22000002861023
1094.0377131,12.039999961853
1094.0533381,28.7600002288818
1094.0689631,44.9300003051758
1094.0845881,57.9000015258789
1094.1002131,66.379997253418
1094.1158381,70.3600006103516
1094.1314631,70.5
1094.1470881,67.6999969482422
1094.1627131,63.0200004577637
1094.1783381,57.4700012207031
1094.1939631,51.6100006103516
1094.2095881,45.3600006103516
1094.2252131,38.2700004577637
1094.2408381,29.8299999237061
1094.2564631,19.7000007629395
1094.2720881,8.03999996185303
1094.2877131,-3.94000005722046
1094.3033381,-13.9300003051758
1094.3189631,-19.4400005340576
1094.3345881,-19.3999996185303
1094.3502131,-14.8699998855591
1094.3658381,-8.38000011444092
1094.3814631,-2.59999990463257
1094.3970881,0.5
1094.4127131,0.319999992847443
1094.4283381,-2.36999988555908
1094.4439631,-6.26000022888184
1094.4595881,-10.6199998855591
1094.4752131,-15.539999961853
1094.4908381,-20.9799995422363
1094.5064631,-25.9099998474121
1094.5220881,-28.8500003814697
1094.5377131,-29.3600006103516
1094.5533381,-28.5200004577637
1094.5689631,-28.1000003814697
1094.5845881,-29.1499996185303
1094.6002131,-31.3899993896484
1094.6158381,-33.5
1094.6314631,-34.0099983215332
1094.6470881,-32.2799987792969
1094.6627131,-28.8700008392334
1094.6783381,-25.0499992370605
1094.6939631,-21.8700008392334
1094.7095881,-19.6800003051758
1094.7252131,-18.2700004577637
1094.7408381,-17.3500003814697
1094.7564631,-16.6000003814697
1094.7720881,-15.6000003814697
1094.7877131,-14.25
1094.8033381,-13.0900001525879
1094.8189631,-12.8100004196167
1094.8345881,-13.3999996185303
1094.8502131,-13.2299995422363
1094.8658381,-9.22999954223633
1094.8814631,1.19000005722046
1094.8970881,18.0499992370605
1094.9127131,38.2000007629395
1094.9283381,56.6599998474121
1094.9439631,68.9100036621094
1094.9595881,72.9700012207031
1094.9752131,70.0800018310547
1094.9908381,63.5400009155273
1095.0064631,56.8199996948242
1095.0220881,51.9300003051758
1095.0377131,48.6500015258789
1095.0533381,45.2400016784668
1095.0689631,40.060001373291
1095.0845881,32.8300018310547
1095.1002131,24.5300006866455
1095.1158381,16.5499992370605
1095.1314631,9.68000030517578
1095.1470881,4.07999992370605
1095.1627131,-0.469999998807907
1095.1783381,-4.51000022888184
1095.1939631,-8.4399995803833
1095.2095881,-12.0299997329712
1095.2252131,-14.4799995422363
1095.2408381,-15.3500003814697
1095.2564631,-15.0100002288818
1095.2720881,-14.2200002670288
1095.2877131,-13.6599998474121
1095.3033381,-13.789999961853
1095.3189631,-14.8800001144409
1095.3345881,-17.0100002288818
1095.3502131,-20.0300006866455
1095.3658381,-23.2700004577637
1095.3814631,-25.6800003051758
1095.3970881,-26.4799995422363
1095.4127131,-25.7999992370605
1095.4283381,-24.4099998474121
1095.4439631,-23.1700000762939
1095.4595881,-22.5
1095.4752131,-22.3400001525879
1095.4908381,-22.0100002288818
1095.5064631,-20.3799991607666
1095.5220881,-16.8299999237061
1095.5377131,-12.1899995803833
1095.5533381,-8.47000026702881
1095.5689631,-7.38000011444092
1095.5845881,-9.05000019073486
1095.6002131,-12.0100002288818
1095.6158381,-14.4200000762939
1095.6314631,-15.2299995422363
1095.6470881,-14.3199996948242
1095.6627131,-12.039999961853
1095.6783381,-8.56999969482422
1095.6939631,-3.67000007629395
1095.7095881,3.40000009536743
1095.7252131,13.2399997711182
1095.7408381,25.3799991607666
1095.7564631,37.7799987792969
1095.7720881,47.5999984741211
1095.7877131,52.6699981689453
1095.8033381,52.6699981689453
1095.8189631,48.9199981689453
1095.8345881,43.3600006103516
1095.8502131,37.3400001525879
1095.8658381,31.2099990844727
1095.8814631,24.6900005340576
1095.8970881,17.4500007629395
1095.9127131,9.55000019073486
1095.9283381,1.50999999046326
1095.9439631,-5.84000015258789
1095.9595881,-11.6499996185303
1095.9752131,-15.3400001525879
1095.9908381,-16.7000007629395
1096.0064631,-15.9499998092651
1096.0220881,-13.8999996185303
1096.0377131,-11.8900003433228
1096.0533381,-11.3100004196167
1096.0689631,-12.5500001907349
1096.0845881,-14.6499996185303
1096.1002131,-16.0499992370605
1096.1158381,-15.8299999237061
1096.1314631,-14.3199996948242
1096.1470881,-12.6899995803833
1096.1627131,-12.1400003433228
1096.1783381,-13.3100004196167
1096.1939631,-16.1100006103516
1096.2095881,-20.0
1096.2252131,-24.1200008392334
1096.2408381,-27.4899997711182
1096.2564631,-29.2399997711182
1096.2720881,-29.1499996185303
1096.2877131,-27.8299999237061
1096.3033381,-26.3600006103516
1096.3189631,-25.4300003051758
1096.3345881,-24.8199996948242
1096.3502131,-23.6700000762939
1096.3658381,-21.25
1096.3814631,-17.8400001525879
1096.3970881,-14.7600002288818
1096.4127131,-13.289999961853
1096.4283381,-13.5799999237061
1096.4439631,-14.7399997711182
1096.4595881,-15.5299997329712
1096.4752131,-15.210000038147
1096.4908381,-14.0200004577637
1096.5064631,-12.460000038147
1096.5220881,-10.0799999237061
1096.5377131,-5.3600001335144
1096.5533381,2.94000005722046
1096.5689631,14.5900001525879
1096.5845881,27.8099994659424
1096.6002131,40.4099998474121
1096.6158381,50.8400001525879
1096.6314631,58.4599990844727
1096.6470881,62.9300003051758
1096.6627131,63.8400001525879
1096.6783381,61.0499992370605
1096.6939631,55.0
1096.7095881,46.6199989318848
1096.7252131,37.0499992370605
1096.7408381,27.5300006866455
1096.7564631,19.2600002288818
1096.7720881,13.0699996948242
1096.7877131,9.0600004196167
1096.8033381,6.44999980926514
1096.8189631,3.8199999332428
1096.8345881,-0.129999995231628
1096.8502131,-5.73999977111816
1096.8658381,-12.0600004196167
1096.8814631,-17.5100002288818
1096.8970881,-20.9400005340576
1096.9127131,-22.3999996185303
1096.9283381,-22.8199996948242
1096.9439631,-23.1100006103516
1096.9595881,-23.5400009155273
1096.9752131,-24.0900001525879
1096.9908381,-24.7800006866455
1097.0064631,-25.3999996185303
1097.0220881,-25.2999992370605
1097.0377131,-23.8400001525879
1097.0533381,-21.0499992370605
1097.0689631,-17.7199993133545
1097.0845881,-15.1700000762939
1097.1002131,-14.6000003814697
1097.1158381,-16.2600002288818
1097.1314631,-19.3099994659424
1097.1470881,-22.5499992370605
1097.1627131,-25.1200008392334
1097.1783381,-26.5200004577637
1097.1939631,-26.4699993133545
1097.2095881,-24.9699993133545
1097.2252131,-22.5300006866455
1097.2408381,-19.9300003051758
1097.2564631,-17.6800003051758
1097.2720881,-15.8000001907349
1097.2877131,-13.9700002670288
1097.3033381,-11.9499998092651
1097.3189631,-9.8100004196167
1097.3345881,-7.61999988555908
1097.3502131,-4.90999984741211
1097.3658381,-0.46000000834465
1097.3814631,6.92999982833862
1097.3970881,17.6299991607666
1097.4127131,30.7199993133545
1097.4283381,43.9700012207031
1097.4439631,54.439998626709
1097.4595881,59.8800010681152
1097.4752131,59.7900009155273
1097.4908381,55.2799987792969
1097.5064631,48.2099990844727
1097.5220881,40.5699996948242
1097.5377131,34.0499992370605
1097.5533381,29.4899997711182
1097.5689631,26.5200004577637
1097.5845881,23.9400005340576
1097.6002131,20.6599998474121
1097.6158381,16.4300003051758
1097.6314631,11.7399997711182
1097.6470881,7.17999982833862
1097.6627131,3.21000003814697
1097.6783381,0.0399999991059303
1097.6939631,-2.30999994277954
1097.7095881,-4.03999996185303
1097.7252131,-5.26000022888184
1097.7408381,-6.23000001907349
1097.7564631,-7.53000020980835
1097.7720881,-9.72000026702881
1097.7877131,-12.8999996185303
1097.8033381,-16.5200004577637
1097.8189631,-19.8400001525879
1097.8345881,-22.5400009155273
1097.8502131,-24.8700008392334
1097.8658381,-27.0499992370605
1097.8814631,-28.6299991607666
1097.8970881,-28.8400001525879
1097.9127131,-27.4200000762939
1097.9283381,-25.0400009155273
1097.9439631,-22.8899993896484
1097.9595881,-22.0699996948242
1097.9752131,-22.8799991607666
1097.9908381,-24.5599994659424
1098.0064631,-25.9099998474121
1098.0220881,-26.3899993896484
1098.0377131,-26.6000003814697
1098.0533381,-27.2900009155273
1098.0689631,-28.1700000762939
1098.0845881,-28.0400009155273
1098.1002131,-26.0699996948242
1098.1158381,-22.6900005340576
1098.1314631,-19.0900001525879
1098.1470881,-16.0900001525879
1098.1627131,-13.5299997329712
1098.1783381,-10.6999998092651
1098.1939631,-6.84999990463257
1098.2095881,-1.25999999046326
1098.2252131,6.90999984741211
1098.2408381,18.0499992370605
1098.2564631,31.2299995422363
1098.2720881,44.1800003051758
1098.2877131,54.189998626709
1098.3033381,59.3899993896484
1098.3189631,59.6300010681152
1098.3345881,56.3899993896484
1098.3502131,51.810001373291
1098.3658381,47.6500015258789
1098.3814631,44.5499992370605
1098.3970881,41.9500007629395
1098.4127131,38.4799995422363
1098.4283381,32.8899993896484
1098.4439631,24.8999996185303
1098.4595881,15.6599998474121
1098.4752131,7.19000005722046
1098.4908381,1.16999995708466
1098.5064631,-1.85000002384186
1098.5220881,-2.45000004768372
1098.5377131,-1.74000000953674
1098.5533381,-1.05999994277954
1098.5689631,-1.72000002861023
1098.5845881,-4.32000017166138
1098.6002131,-8.11999988555908
1098.6158381,-11.5500001907349
1098.6314631,-13.4899997711182
1098.6470881,-14.0500001907349
1098.6627131,-14.1700000762939
1098.6783381,-14.5600004196167
1098.6939631,-15.2799997329712
1098.7095881,-16.0200004577637
1098.7252131,-16.7299995422363
1098.7408381,-17.5200004577637
1098.7564631,-18.4599990844727
1098.7720881,-19.3899993896484
1098.7877131,-19.9400005340576
1098.8033381,-19.5599994659424
1098.8189631,-17.8999996185303
1098.8345881,-15.1400003433228
1098.8502131,-12.0500001907349
1098.8658381,-9.52000045776367
1098.8814631,-7.84999990463257
1098.8970881,-6.8600001335144
1098.9127131,-6.48000001907349
1098.9283381,-7.09000015258789
1098.9439631,-9.13000011444092
1098.9595881,-12.3699998855591
1098.9752131,-15.4700002670288
1098.9908381,-16.1700000762939
1099.0064631,-12.289999961853
1099.0220881,-2.79999995231628
1099.0377131,11.3299999237061
1099.0533381,27.2199993133545
1099.0689631,41.0699996948242
1099.0845881,49.7900009155273
1099.1002131,52.1699981689453
1099.1158381,49.1399993896484
1099.1314631,43.2299995422363
1099.1470881,37.3899993896484
1099.1627131,33.7700004577637
1099.1783381,32.8600006103516
1099.1939631,33.439998626709
1099.2095881,33.3300018310547
1099.2252131,30.5400009155273
1099.2408381,24.3299999237061
1099.2564631,15.5500001907349
1099.2720881,6.30999994277954
1099.2877131,-1.04999995231628
1099.3033381,-5.1399998664856
1099.3189631,-6.0
1099.3345881,-4.8899998664856
1099.3502131,-3.61999988555908
1099.3658381,-3.8199999332428
1099.3814631,-6.23999977111816
1099.3970881,-10.6499996185303
1099.4127131,-16.0499992370605
1099.4283381,-21.4400005340576
1099.4439631,-26.3099994659424
1099.4595881,-30.3799991607666
1099.4752131,-33.1199989318848
1099.4908381,-33.9199981689453
1099.5064631,-32.6599998474121
1099.5220881,-30.1499996185303
1099.5377131,-27.7000007629395
1099.5533381,-26.2999992370605
1099.5689631,-26.3299999237061
1099.5845881,-27.8400001525879
1099.6002131,-30.6299991607666
1099.6158381,-34.0
1099.6314631,-36.8400001525879
1099.6470881,-38.0200004577637
1099.6627131,-36.8300018310547
1099.6783381,-33.1500015258789
1099.6939631,-27.4899997711182
1099.7095881,-20.7800006866455
1099.7252131,-14.0799999237061
1099.7408381,-8.72000026702881
1099.7564631,-6.09000015258789
1099.7720881,-6.75
1099.7877131,-9.51000022888184
1099.8033381,-11.7299995422363
1099.8189631,-10.5900001525879
1099.8345881,-4.26000022888184
1099.8502131,7.30999994277954
1099.8658381,22.0200004577637
1099.8814631,36.3699989318848
1099.8970881,47.2200012207031
1099.9127131,53.2400016784668
1099.9283381,55.1199989318848
1099.9439631,54.4700012207031
1099.9595881,52.8199996948242
1099.9752131,51.2799987792969
1099.9908381,50.3499984741211
1100.0064631,49.7799987792969
1100.0220881,48.7799987792969
1100.0377131,46.560001373291
1100.0533381,42.3300018310547
1100.0689631,35.3300018310547
1100.0845881,25.7099990844727
1100.1002131,15.0699996948242
1100.1158381,5.53000020980835
1100.1314631,-1.50999999046326
1100.1470881,-5.67999982833862
1100.1627131,-7.03999996185303
1100.1783381,-6.09000015258789
1100.1939631,-4.13000011444092
1100.2095881,-3.11999988555908
1100.2252131,-4.55000019073486
1100.2408381,-8.61999988555908
1100.2564631,-14.1499996185303
1100.2720881,-19.4899997711182
1100.2877131,-23.5300006866455
1100.3033381,-25.9599990844727
1100.3189631,-26.8500003814697
1100.3345881,-26.3999996185303
1100.3502131,-25.1700000762939
1100.3658381,-24.2700004577637
1100.3814631,-24.7999992370605
1100.3970881,-27.0300006866455
1100.4127131,-30.25
1100.4283381,-33.3600006103516
1100.4439631,-35.5299987792969
1100.4595881,-36.4199981689453
1100.4752131,-36.2999992370605
1100.4908381,-35.560001373291
1100.5064631,-34.1300010681152
1100.5220881,-31.6299991607666
1100.5377131,-28.1700000762939
1100.5533381,-24.5599994659424
1100.5689631,-21.6499996185303
1100.5845881,-19.8600006103516
1100.6002131,-19.2099990844727
1100.6158381,-19.2999992370605
1100.6314631,-19.0200004577637
1100.6470881,-16.5100002288818
1100.6627131,-9.85000038146973
1100.6783381,1.83000004291534
1100.6939631,17.5799999237061
1100.7095881,34.7700004577637
1100.7252131,50.0200004577637
1100.7408381,60.1699981689453
1100.7564631,63.3499984741211
1100.7720881,59.9500007629395
1100.7877131,52.6599998474121
1100.8033381,45.2000007629395
1100.8189631,40.3199996948242
1100.8345881,38.5299987792969
1100.8502131,38.2999992370605
1100.8658381,37.4599990844727
1100.8814631,34.4900016784668
1100.8970881,29.0300006866455
1100.9127131,21.9699993133545
1100.9283381,14.789999961853
1100.9439631,8.69999980926514
1100.9595881,3.98000001907349
1100.9752131,-0.0900000035762787
1100.9908381,-4.5
1101.0064631,-9.44999980926514
1101.0220881,-14.25
1101.0377131,-18.1299991607666
1101.0533381,-20.9200000762939
1101.0689631,-23.0699996948242
1101.0845881,-25.2800006866455
1101.1002131,-28.0699996948242
1101.1158381,-31.3899993896484
1101.1314631,-34.5200004577637
1101.1470881,-36.4199981689453
1101.1627131,-36.4700012207031
1101.1783381,-35.0699996948242
1101.1939631,-33.3699989318848
1101.2095881,-32.4900016784668
1101.2252131,-32.9199981689453
1101.2408381,-34.5699996948242
1101.2564631,-36.8600006103516
1101.2720881,-38.7900009155273
1101.2877131,-39.2200012207031
1101.3033381,-37.3400001525879
1101.3189631,-33.0099983215332
1101.3345881,-26.8799991607666
1101.3502131,-20.0499992370605
1101.3658381,-13.6199998855591
1101.3814631,-8.4399995803833
1101.3970881,-5.19000005722046
1101.4127131,-4.32000017166138
1101.4283381,-5.44000005722046
1101.4439631,-7.19000005722046
1101.4595881,-7.6100001335144
1101.4752131,-4.94999980926514
1101.4908381,1.67999994754791
1101.5064631,12.039999961853
1101.5220881,24.75
1101.5377131,37.7000007629395
1101.5533381,48.7700004577637
1101.5689631,56.6699981689453
1101.5845881,61.3400001525879
1101.6002131,63.6100006103516
1101.6158381,64.379997253418
1101.6314631,64.0599975585938
1101.6470881,62.6599998474121
1101.6627131,60.2000007629395
1101.6783381,56.5999984741211
1101.6939631,51.4300003051758
1101.7095881,44.189998626709
1101.7252131,35.0200004577637
1101.7408381,24.6399993896484
1101.7564631,13.960000038147
1101.7720881,3.84999990463257
1101.7877131,-4.71999979019165
1101.8033381,-10.6899995803833
1101.8189631,-13.2399997711182
1101.8345881,-12.4499998092651
1101.8502131,-9.46000003814697
1101.8658381,-5.98000001907349
1101.8814631,-3.71000003814697
1101.8970881,-3.91000008583069
1101.9127131,-6.90999984741211
1101.9283381,-11.8900003433228
1101.9439631,-17.7399997711182
1101.9595881,-24.0400009155273
1101.9752131,-30.8600006103516
1101.9908381,-37.7700004577637
1102.0064631,-43.5900001525879
1102.0220881,-47.1199989318848
1102.0377131,-48.0099983215332
1102.0533381,-46.8600006103516
1102.0689631,-44.7599983215332
1102.0845881,-42.5900001525879
1102.1002131,-40.4700012207031
1102.1158381,-37.7700004577637
1102.1314631,-33.9300003051758
1102.1470881,-29.3600006103516
1102.1627131,-25.1800003051758
1102.1783381,-22.2600002288818
1102.1939631,-20.6200008392334
1102.2095881,-19.6299991607666
1102.2252131,-18.75
1102.2408381,-17.7000007629395
1102.2564631,-16.2800006866455
1102.2720881,-14.1899995803833
1102.2877131,-10.5900001525879
1102.3033381,-4.01000022888184
