Time(s),Value(%)
0.0223114,78.0100021362305
0.0379364,81.9800033569336
0.0535614,82.7399978637695
0.0691864,80.5699996948242
0.0848114,75.6999969482422
0.1004364,68.3600006103516
0.1160614,59.0900001525879
0.1316864,48.75
0.1473114,38.310001373291
0.1629364,28.7299995422363
0.1785614,20.7900009155273
0.1941864,14.8100004196167
0.2098114,10.4700002670288
0.2254364,7.01999998092651
0.2410614,3.61999988555908
0.2566864,-0.349999994039536
0.2723114,-5.17999982833862
0.2879364,-10.8000001907349
0.3035614,-16.8299999237061
0.3191864,-22.7199993133545
0.3348114,-28.0599994659424
0.3504364,-32.7000007629395
0.3660614,-36.75
0.3816864,-40.3199996948242
0.3973114,-43.4700012207031
0.4129364,-46.2000007629395
0.4285614,-48.5800018310547
0.4441864,-50.6699981689453
0.4598114,-52.3600006103516
0.4754364,-53.4599990844727
0.4910614,-53.810001373291
0.5066864,-53.2299995422363
0.5223114,-51.2299995422363
0.5379364,-46.6300010681152
0.5535614,-38.0499992370605
0.5691864,-24.8799991607666
0.5848114,-7.8899998664856
0.6004364,11.0200004577637
0.6160614,29.5300006866455
0.6316864,45.5699996948242
0.6473114,57.6699981689453
0.6629364,64.9800033569336
0.6785614,67.5800018310547
0.6941864,66.6100006103516
0.7098114,63.7400016784668
0.7254364,60.060001373291
0.7410614,55.6699981689453
0.7566864,50.0499992370605
0.7723114,42.810001373291
0.7879364,34.0900001525879
0.8035614,24.6399993896484
0.8191864,15.3900003433228
0.8348114,7.1100001335144
0.8504364,0.119999997317791
0.8660614,-5.55999994277954
0.8816864,-10.1700000762939
0.8973114,-14.1000003814697
0.9129364,-17.8099994659424
0.9285614,-21.6700000762939
0.9441864,-25.7700004577637
0.9598114,-29.9300003051758
0.9754364,-33.8800010681152
0.9910614,-37.4199981689453
1.0066864,-40.4599990844727
1.0223114,-43.0299987792969
1.0379364,-45.2700004577637
1.0535614,-47.4700012207031
1.0691864,-49.8800010681152
1.0848114,-52.4300003051758
1.1004364,-54.9199981689453
1.1160614,-57.3499984741211
1.1316864,-59.8199996948242
1.1473114,-62.1500015258789
1.1629364,-63.5200004577637
1.1785614,-62.4300003051758
1.1941864,-57.0900001525879
1.2098114,-46.4199981689453
1.2254364,-30.6800003051758
1.2410614,-11.4499998092651
1.2566864,9.02000045776367
1.2723114,28.3700008392334
1.2879364,44.3699989318848
1.3035614,55.3400001525879
1.3191864,60.5299987792969
1.3348114,60.0400009155273
1.3504364,54.4900016784668
1.3660614,45.0900001525879
1.3816864,33.6699981689453
1.3973114,22.3899993896484
1.4129364,13.1000003814697
1.4285614,6.86999988555908
1.4441864,3.89000010490417
1.4598114,3.75
1.4754364,5.69999980926514
1.4910614,8.63000011444092
1.5066864,11.3000001907349
1.5223114,12.8000001907349
1.5379364,12.8800001144409
1.5535614,11.9399995803833
1.5691864,10.8000001907349
1.5848114,10.210000038147
1.6004364,10.5200004577637
1.6160614,11.6000003814697
1.6316864,13.0600004196167
1.6473114,14.4899997711182
1.6629364,15.5299997329712
1.6785614,15.9499998092651
1.6941864,15.6899995803833
1.7098114,14.9300003051758
1.7254364,13.8299999237061
1.7410614,12.3599996566772
1.7566864,10.4499998092651
1.7723114,8.30000019073486
1.7879364,6.90999984741211
1.8035614,7.92999982833862
1.8191864,12.8999996185303
1.8348114,22.3400001525879
1.8504364,35.2099990844727
1.8660614,49.310001373291
1.8816864,62.0499992370605
1.8973114,71.3600006103516
1.9129364,76.120002746582
1.9285614,76.3899993896484
1.9441864,73.1800003051758
1.9598114,67.7300033569336
1.9754364,60.7799987792969
1.9910614,52.4700012207031
2.0066864,42.7200012207031
2.0223114,31.5799999237061
2.0379364,19.4099998474121
2.0535614,6.90000009536743
2.0691864,-5.07999992370605
2.0848114,-15.6400003433228
2.1004364,-24.0200004577637
2.1160614,-29.8400001525879
2.1316864,-33.2700004577637
2.1473114,-34.9500007629395
2.1629364,-35.7700004577637
2.1785614,-36.4700012207031
2.1941864,-37.5800018310547
2.2098114,-39.310001373291
2.2254364,-41.5900001525879
2.2410614,-44.189998626709
2.2566864,-46.8699989318848
2.2723114,-49.5299987792969
2.2879364,-52.2799987792969
2.3035614,-55.4099998474121
2.3191864,-58.939998626709
2.3348114,-62.560001373291
2.3504364,-65.8600006103516
2.3660614,-68.4899978637695
2.3816864,-70.1500015258789
2.3973114,-70.5500030517578
2.4129364,-69.2099990844727
2.4285614,-65.3099975585938
2.4441864,-57.560001373291
2.4598114,-44.9500007629395
2.4754364,-27.4699993133545
2.4910614,-6.28999996185303
2.5066864,16.5400009155273
2.5223114,38.6300010681152
2.5379364,57.8300018310547
2.5535614,72.8099975585938
2.5691864,82.8899993896484
2.5848114,87.6699981689453
2.6004364,87.1600036621094
2.6160614,81.9300003051758
2.6316864,73.0
2.6473114,61.4700012207031
2.6629364,48.2999992370605
2.6785614,34.2599983215332
2.6941864,19.9200000762939
2.7098114,5.8600001335144
2.7254364,-7.17000007629395
2.7410614,-18.5100002288818
2.7566864,-27.8299999237061
2.7723114,-35.3499984741211
2.7879364,-41.5699996948242
2.8035614,-47.0699996948242
2.8191864,-52.1800003051758
2.8348114,-56.9799995422363
2.8504364,-61.3699989318848
2.8660614,-65.129997253418
2.8816864,-68.129997253418
2.8973114,-70.379997253418
2.9129364,-72.0100021362305
2.9285614,-73.0699996948242
2.9441864,-73.4400024414063
2.9598114,-72.870002746582
2.9754364,-71.2200012207031
2.9910614,-68.5899963378906
3.0066864,-65.4100036621094
3.0223114,-62.0400009155273
3.0379364,-58.560001373291
3.0535614,-54.5200004577637
3.0691864,-49.0699996948242
3.0848114,-40.9799995422363
3.1004364,-28.9500007629395
3.1160614,-11.9799995422363
3.1316864,9.82999992370605
3.1473114,34.6699981689453
3.1629364,59.1699981689453
3.1785614,79.6399993896484
3.1941864,93.4300003051758
3.2098114,99.6600036621094
3.2254364,99.0199966430664
3.2410614,93.2399978637695
3.2566864,84.3600006103516
3.2723114,73.9800033569336
3.2879364,62.7700004577637
3.3035614,50.6399993896484
3.3191864,37.4700012207031
3.3348114,23.7199993133545
3.3504364,10.3199996948242
3.3660614,-1.76999998092651
3.3816864,-11.9099998474121
3.3973114,-19.8199996948242
3.4129364,-25.6200008392334
3.4285614,-29.7000007629395
3.4441864,-32.439998626709
3.4598114,-34.1100006103516
3.4754364,-34.8199996948242
3.4910614,-34.7599983215332
3.5066864,-34.2400016784668
3.5223114,-33.6699981689453
3.5379364,-33.4000015258789
3.5535614,-33.5
3.5691864,-33.6800003051758
3.5848114,-33.4799995422363
3.6004364,-32.4000015258789
3.6160614,-30.2099990844727
3.6316864,-27.0100002288818
3.6473114,-23.1700000762939
3.6629364,-19.1499996185303
3.6785614,-15.1899995803833
3.6941864,-11.0900001525879
3.7098114,-5.92000007629395
3.7254364,1.79999995231628
3.7410614,13.5100002288818
3.7566864,29.6399993896484
3.7723114,49.2900009155273
3.7879364,70.4300003051758
3.8035614,90.870002746582
3.8191864,109.089996337891
3.8348114,123.940002441406
3.8504364,134.210006713867
3.8660614,139.029998779297
3.8816864,138.539993286133
3.8973114,133.740005493164
3.9129364,125.910003662109
3.9285614,116.050003051758
3.9441864,104.769996643066
3.9598114,92.5599975585938
3.9754364,79.9300003051758
3.9910614,67.4899978637695
4.0066864,55.7700004577637
4.0223114,45.0699996948242
4.0379364,35.4300003051758
4.0535614,26.7800006866455
4.0691864,18.9799995422363
4.0848114,11.8100004196167
4.1004364,5.03000020980835
4.1160614,-1.52999997138977
4.1316864,-8.10000038146973
4.1473114,-14.8599996566772
4.1629364,-21.8700008392334
4.1785614,-29.0499992370605
4.1941864,-36.2000007629395
4.2098114,-43.1500015258789
4.2254364,-49.8300018310547
4.2410614,-56.2200012207031
4.2566864,-62.1500015258789
4.2723114,-67.3499984741211
4.2879364,-71.5800018310547
4.3035614,-74.7300033569336
4.3191864,-76.8399963378906
4.3348114,-77.7799987792969
4.3504364,-76.8899993896484
4.3660614,-72.7099990844727
4.3816864,-63.5200004577637
4.3973114,-48.3699989318848
4.4129364,-27.9099998474121
4.4285614,-4.59000015258789
4.4441864,18.1499996185303
4.4598114,37.2799987792969
4.4754364,51.0699996948242
4.4910614,59.1500015258789
4.5066864,61.7900009155273
4.5223114,59.6199989318848
4.5379364,53.4599990844727
4.5535614,44.25
4.5691864,32.9199981689453
4.5848114,20.2299995422363
4.6004364,6.82000017166138
4.6160614,-6.57000017166138
4.6316864,-19.1299991607666
4.6473114,-30.2000007629395
4.6629364,-39.4700012207031
4.6785614,-46.9099998474121
4.6941864,-52.6500015258789
4.7098114,-56.9199981689453
4.7254364,-60.0999984741211
4.7410614,-62.6300010681152
4.7566864,-64.8099975585938
4.7723114,-66.7300033569336
4.7879364,-68.2799987792969
4.8035614,-69.3199996948242
4.8191864,-69.8899993896484
4.8348114,-70.25
4.8504364,-70.6800003051758
4.8660614,-71.1500015258789
4.8816864,-71.4199981689453
4.8973114,-71.2200012207031
4.9129364,-70.4400024414063
4.9285614,-69.1399993896484
4.9441864,-67.4100036621094
4.9598114,-65.0800018310547
4.9754364,-61.4099998474121
4.9910614,-55.0699996948242
5.0066864,-44.3199996948242
5.0223114,-27.7700004577637
5.0379364,-5.51000022888184
5.0535614,20.3799991607666
5.0691864,46.5200004577637
5.0848114,69.4199981689453
5.1004364,86.620002746582
5.1160614,96.9199981689453
5.1316864,100.449996948242
5.1473114,98.4599990844727
5.1629364,92.6900024414063
5.1785614,84.6100006103516
5.1941864,74.9800033569336
5.2098114,64.1100006103516
5.2254364,52.1399993896484
5.2410614,39.3899993896484
5.2566864,26.5599994659424
5.2723114,14.6099996566772
5.2879364,4.42999982833862
5.3035614,-3.47000002861023
5.3191864,-9.10999965667725
5.3348114,-12.9700002670288
5.3504364,-15.710000038147
5.3660614,-17.9599990844727
5.3816864,-20.1499996185303
5.3973114,-22.5100002288818
5.4129364,-25.1000003814697
5.4285614,-27.8600006103516
5.4441864,-30.5699996948242
5.4598114,-33.0299987792969
5.4754364,-35.1699981689453
5.4910614,-37.0999984741211
5.5066864,-38.8800010681152
5.5223114,-40.4099998474121
5.5379364,-41.5
5.5535614,-41.9099998474121
5.5691864,-41.5900001525879
5.5848114,-40.6500015258789
5.6004364,-39.0900001525879
5.6160614,-36.3199996948242
5.6316864,-31.0900001525879
5.6473114,-21.7999992370605
5.6629364,-7.25
5.6785614,12.5799999237061
5.6941864,36.2799987792969
5.7098114,61.1699981689453
5.7254364,84.1600036621094
5.7410614,102.379997253418
5.7566864,113.809997558594
5.7723114,117.889999389648
5.7879364,115.639999389648
5.8035614,108.879997253418
5.8191864,99.3099975585938
5.8348114,87.8600006103516
5.8504364,74.9800033569336
5.8660614,61.2400016784668
5.8816864,47.4700012207031
5.8973114,34.6199989318848
5.9129364,23.3899993896484
5.9285614,14.039999961853
5.9441864,6.40000009536743
5.9598114,0.0700000002980232
5.9754364,-5.3899998664856
5.9910614,-10.3500003814697
6.0066864,-15.0500001907349
6.0223114,-19.5599994659424
6.0379364,-23.8899993896484
6.0535614,-28.0699996948242
6.0691864,-32.2900009155273
6.0848114,-36.9199981689453
6.1004364,-42.0499992370605
6.1160614,-47.310001373291
6.1316864,-52.1199989318848
6.1473114,-56.1300010681152
6.1629364,-59.2299995422363
6.1785614,-61.4799995422363
6.1941864,-62.9500007629395
6.2098114,-63.7000007629395
6.2254364,-63.8899993896484
6.2410614,-63.3899993896484
6.2566864,-61.2400016784668
6.2723114,-55.7200012207031
6.2879364,-44.9700012207031
6.3035614,-28.0300006866455
6.3191864,-5.42000007629395
6.3348114,20.8600006103516
6.3504364,47.5800018310547
6.3660614,70.8099975585938
6.3816864,87.3399963378906
6.3973114,95.9199981689453
6.4129364,97.3499984741211
6.4285614,93.5800018310547
6.4441864,86.5699996948242
6.4598114,77.4499969482422
6.4754364,66.5
6.4910614,53.7700004577637
6.5066864,39.7000007629395
6.5223114,25.25
6.5379364,11.6099996566772
6.5535614,-0.25
6.5691864,-9.85000038146973
6.5848114,-17.2000007629395
6.6004364,-22.75
6.6160614,-27.0200004577637
6.6316864,-30.5
6.6473114,-33.5499992370605
6.6629364,-36.4000015258789
6.6785614,-39.189998626709
6.6941864,-41.9599990844727
6.7098114,-44.7200012207031
6.7254364,-47.4900016784668
6.7410614,-50.2299995422363
6.7566864,-52.7200012207031
6.7723114,-54.7000007629395
6.7879364,-55.9700012207031
6.8035614,-56.4900016784668
6.8191864,-56.4300003051758
6.8348114,-56.1599998474121
6.8504364,-55.8499984741211
6.8660614,-55.0800018310547
6.8816864,-52.7999992370605
6.8973114,-47.5
6.9129364,-37.4700012207031
6.9285614,-21.4899997711182
6.9441864,0.340000003576279
6.9598114,26.0300006866455
6.9754364,51.8600006103516
6.9910614,73.7399978637695
7.0066864,89.2699966430664
7.0223114,98.3000030517578
7.0379364,102.139999389648
7.0535614,102.26000213623
7.0691864,99.629997253418
7.0848114,94.5500030517578
7.1004364,86.9199981689453
7.1160614,76.5899963378906
7.1316864,63.7299995422363
7.1473114,48.9700012207031
7.1629364,33.4700012207031
7.1785614,18.6000003814697
7.1941864,5.59000015258789
7.2098114,-4.92000007629395
7.2254364,-12.9799995422363
7.2410614,-19.1100006103516
7.2566864,-23.9899997711182
7.2723114,-28.1499996185303
7.2879364,-31.9200000762939
7.3035614,-35.5400009155273
7.3191864,-39.1399993896484
7.3348114,-42.7599983215332
7.3504364,-46.3499984741211
7.3660614,-49.7400016784668
7.3816864,-52.6699981689453
7.3973114,-54.9099998474121
7.4129364,-56.4099998474121
7.4285614,-57.2000007629395
7.4441864,-57.4000015258789
7.4598114,-57.1300010681152
7.4754364,-56.2299995422363
7.4910614,-54.4199981689453
7.5066864,-51.8199996948242
7.5223114,-48.939998626709
7.5379364,-46.0
7.5535614,-42.3899993896484
7.5691864,-36.5400009155273
7.5848114,-26.4099998474121
7.6004364,-10.3199996948242
7.6160614,12.1000003814697
7.6316864,38.9099998474121
7.6473114,65.7900009155273
7.6629364,87.9700012207031
7.6785614,102.309997558594
7.6941864,108.199996948242
7.7098114,107.120002746582
7.7254364,101.400001525879
7.7410614,93.0699996948242
7.7566864,83.1800003051758
7.7723114,71.9499969482422
7.7879364,59.4199981689453
7.8035614,45.8300018310547
7.8191864,31.8199996948242
7.8348114,18.2199993133545
7.8504364,5.90999984741211
7.8660614,-4.48000001907349
7.8816864,-12.7799997329712
7.8973114,-19.1399993896484
7.9129364,-23.9500007629395
7.9285614,-27.75
7.9441864,-31.1000003814697
7.9598114,-34.4000015258789
7.9754364,-37.7799987792969
7.9910614,-41.2099990844727
8.0066864,-44.7599983215332
8.0223114,-48.4199981689453
8.0379364,-51.939998626709
8.0535614,-54.9700012207031
8.0691864,-57.310001373291
8.0848114,-58.939998626709
8.1004364,-59.9599990844727
8.1160614,-60.5699996948242
8.1316864,-60.9000015258789
8.1473114,-60.7900009155273
8.1629364,-59.8600006103516
8.1785614,-57.4700012207031
8.1941864,-52.5800018310547
8.2098114,-43.7599983215332
8.2254364,-29.8600006103516
8.2410614,-10.6400003433228
8.2566864,12.8500003814697
8.2723114,38.0
8.2879364,60.9500007629395
8.3035614,78.0800018310547
8.3191864,87.5
8.3348114,89.3499984741211
8.3504364,85.1500015258789
8.3660614,76.7900009155273
8.3816864,65.8399963378906
8.3973114,53.4099998474121
8.4129364,40.25
8.4285614,26.9200000762939
8.4441864,14.039999961853
8.4598114,2.36999988555908
8.4754364,-7.32999992370605
8.4910614,-14.75
8.5066864,-20.0699996948242
8.5223114,-23.8099994659424
8.5379364,-26.5
8.5535614,-28.5699996948242
8.5691864,-30.3799991607666
8.5848114,-32.2000007629395
8.6004364,-34.2400016784668
8.6160614,-36.5499992370605
8.6316864,-38.9700012207031
8.6473114,-41.1199989318848
8.6629364,-42.6399993896484
8.6785614,-43.3800010681152
8.6941864,-43.3899993896484
8.7098114,-42.8600006103516
8.7254364,-41.9900016784668
8.7410614,-40.939998626709
8.7566864,-39.810001373291
8.7723114,-38.4599990844727
8.7879364,-36.2200012207031
8.8035614,-31.8799991607666
8.8191864,-23.7999992370605
8.8348114,-10.5600004196167
8.8504364,8.42000007629395
8.8660614,32.5400009155273
8.8816864,59.5200004577637
8.8973114,85.4100036621094
8.9129364,105.930000305176
8.9285614,118.290000915527
8.9441864,122.089996337891
8.9598114,118.879997253418
8.9754364,110.940002441406
8.9910614,100.25
9.0066864,87.9599990844727
9.0223114,74.4899978637695
9.0379364,60.0200004577637
9.0535614,44.9300003051758
9.0691864,29.9300003051758
9.0848114,15.8400001525879
9.1004364,3.35999989509583
9.1160614,-7.03999996185303
9.1316864,-15.2399997711182
9.1473114,-21.3400001525879
9.1629364,-25.6900005340576
9.1785614,-28.8600006103516
9.1941864,-31.6399993896484
9.2098114,-34.6500015258789
9.2254364,-38.0800018310547
9.2410614,-41.689998626709
9.2566864,-45.2400016784668
9.2723114,-48.5200004577637
9.2879364,-51.4199981689453
9.3035614,-53.7799987792969
9.3191864,-55.560001373291
9.3348114,-56.7999992370605
9.3504364,-57.6699981689453
9.3660614,-58.3199996948242
9.3816864,-58.7599983215332
9.3973114,-58.6500015258789
9.4129364,-57.2299995422363
9.4285614,-53.2000007629395
9.4441864,-44.9099998474121
9.4598114,-30.8700008392334
9.4754364,-10.7299995422363
9.4910614,14.1599998474121
9.5066864,40.9599990844727
9.5223114,65.9199981689453
9.5379364,85.3000030517578
9.5535614,96.7399978637695
9.5691864,100.029998779297
9.5848114,96.620002746582
9.6004364,88.6100006103516
9.6160614,77.7399978637695
9.6316864,65.0999984741211
9.6473114,51.2999992370605
9.6629364,36.7799987792969
9.6785614,22.2199993133545
9.6941864,8.51000022888184
9.7098114,-3.44000005722046
9.7254364,-13.0500001907349
9.7410614,-20.2000007629395
9.7566864,-25.25
9.7723114,-28.8799991607666
9.7879364,-31.8799991607666
9.8035614,-34.9199981689453
9.8191864,-38.3899993896484
9.8348114,-42.3499984741211
9.8504364,-46.7099990844727
9.8660614,-51.4099998474121
9.8816864,-56.2700004577637
9.8973114,-60.9099998474121
9.9129364,-64.879997253418
9.9285614,-67.9700012207031
9.9441864,-70.25
9.9598114,-71.8600006103516
9.9754364,-72.9499969482422
9.9910614,-73.5899963378906
10.0066864,-73.8199996948242
10.0223114,-73.4899978637695
10.0379364,-71.9100036621094
10.0535614,-67.7600021362305
10.0691864,-59.2700004577637
10.0848114,-44.8499984741211
10.1004364,-23.8799991607666
10.1160614,2.69000005722046
10.1316864,32.0
10.1473114,59.5800018310547
10.1629364,81.120002746582
10.1785614,94.0699996948242
10.1941864,98.2799987792969
10.2098114,95.4400024414063
10.2254364,87.9700012207031
10.2410614,77.9899978637695
10.2566864,66.9400024414063
10.2723114,55.5200004577637
10.2879364,43.7999992370605
10.3035614,31.5599994659424
10.3191864,18.8500003814697
10.3348114,6.28999996185303
10.3504364,-5.17000007629395
10.3660614,-14.6800003051758
10.3816864,-21.8600006103516
10.3973114,-26.7700004577637
10.4129364,-29.7999992370605
10.4285614,-31.5
10.4441864,-32.4500007629395
10.4598114,-33.1100006103516
10.4754364,-33.8400001525879
10.4910614,-34.7999992370605
10.5066864,-36.0400009155273
10.5223114,-37.5900001525879
10.5379364,-39.4199981689453
10.5535614,-41.2999992370605
10.5691864,-42.8600006103516
10.5848114,-43.8300018310547
10.6004364,-44.0800018310547
10.6160614,-43.6199989318848
10.6316864,-42.6699981689453
10.6473114,-41.3899993896484
10.6629364,-39.6500015258789
10.6785614,-36.9300003051758
10.6941864,-32.2900009155273
10.7098114,-24.2099990844727
10.7254364,-10.8299999237061
10.7410614,8.72999954223633
10.7566864,32.7200012207031
10.7723114,57.4199981689453
10.7879364,80.0400009155273
10.8035614,99.6100006103516
10.8191864,115.51000213623
10.8348114,126.639999389648
10.8504364,131.990005493164
10.8660614,131.320007324219
10.8816864,125.180000305176
10.8973114,114.550003051758
10.9129364,100.540000915527
10.9285614,84.3199996948242
10.9441864,67.0299987792969
10.9598114,49.7999992370605
10.9754364,33.7099990844727
10.9910614,19.6200008392334
11.0066864,7.96999979019165
11.0223114,-1.1599999666214
11.0379364,-8.06999969482422
11.0535614,-13.2600002288818
11.0691864,-17.2999992370605
11.0848114,-20.6599998474121
11.1004364,-23.6900005340576
11.1160614,-26.6499996185303
11.1316864,-29.8199996948242
11.1473114,-33.4500007629395
11.1629364,-37.5400009155273
11.1785614,-41.7099990844727
11.1941864,-45.5099983215332
11.2098114,-48.6399993896484
11.2254364,-51.0400009155273
11.2410614,-52.75
11.2566864,-53.9000015258789
11.2723114,-54.6399993896484
11.2879364,-55.1599998474121
11.3035614,-55.4700012207031
11.3191864,-55.2999992370605
11.3348114,-54.0099983215332
11.3504364,-50.5299987792969
11.3660614,-43.3400001525879
11.3816864,-30.6100006103516
11.3973114,-10.75
11.4129364,15.9099998474121
11.4285614,46.0900001525879
11.4441864,74.5800018310547
11.4598114,96.6800003051758
11.4754364,109.730003356934
