Time(s),Value(%)
481.0030367,-327.679992675781
481.0186617,-327.679992675781
481.0342867,-327.679992675781
481.0499117,-327.679992675781
481.0655367,-327.679992675781
481.0811617,-327.679992675781
481.0967867,-327.679992675781
481.1124117,-327.679992675781
481.1280367,-327.679992675781
481.1436617,-327.679992675781
481.1592867,-327.679992675781
481.1749117,-327.679992675781
481.1905367,-327.679992675781
481.2061617,-327.679992675781
481.2217867,-327.679992675781
481.2374117,-327.679992675781
481.2530367,-327.679992675781
481.2686617,-327.679992675781
481.2842867,-327.679992675781
481.2999117,-327.679992675781
481.3155367,-327.679992675781
481.3311617,-327.679992675781
481.3467867,-327.679992675781
481.3624117,-304.920013427734
481.3780367,-281.179992675781
481.3936617,-257.730010986328
481.4092867,-234.009994506836
481.4249117,-208.940002441406
481.4405367,-181.559997558594
481.4561617,-151.820007324219
481.4717867,-120.819999694824
481.4874117,-90.0899963378906
481.5030367,-60.5099983215332
481.5186617,-31.7700004577637
481.5342867,-3.3199999332428
481.5499117,24.3700008392334
481.5655367,49.9500007629395
481.5811617,72.2699966430664
481.5967867,91.2300033569336
481.6124117,107.629997253418
481.6280367,122.660003662109
481.6436617,137.360000610352
481.6592867,152.25
481.6749117,167.410003662109
481.6905367,183.160003662109
481.7061617,200.460006713867
481.7217867,220.309997558594
481.7374117,242.639999389648
481.7530367,265.720001220703
481.7686617,286.709991455078
481.7842867,303.309997558594
481.7999117,315.019989013672
481.8155367,322.609985351563
481.8311617,326.709991455078
481.8467867,327.459991455078
481.8624117,325.089996337891
481.8780367,320.390014648438
481.8936617,314.540008544922
481.9092867,308.820007324219
481.9249117,304.329986572266
481.9405367,301.649993896484
481.9561617,300.690002441406
481.9717867,301.160003662109
481.9874117,302.989990234375
482.0030367,306.299987792969
482.0186617,310.820007324219
482.0342867,315.470001220703
482.0499117,318.540008544922
482.0655367,318.679992675781
482.0811617,315.779998779297
482.0967867,310.649993896484
482.1124117,304.010009765625
482.1280367,296.179992675781
482.1436617,287.429992675781
482.1592867,278.160003662109
482.1749117,268.839996337891
482.1905367,259.589996337891
482.2061617,249.919998168945
482.2217867,238.270004272461
482.2374117,222.169998168945
482.2530367,199.729995727539
482.2686617,171.039993286133
482.2842867,138.330001831055
482.2999117,104.779998779297
482.3155367,73.0400009155273
482.3311617,44.2799987792969
482.3467867,17.75
482.3624117,-8.82999992370605
482.3780367,-37.7200012207031
482.3936617,-69.7799987792969
482.4092867,-104.599998474121
482.4249117,-141.649993896484
482.4405367,-180.490005493164
482.4561617,-219.869995117188
482.4717867,-256.450012207031
482.4874117,-284.899993896484
482.5030367,-300.570007324219
482.5186617,-302.5
482.5342867,-293.220001220703
482.5499117,-276.529998779297
482.5655367,-255.630004882813
482.5811617,-232.850006103516
482.5967867,-209.740005493164
482.6124117,-187.039993286133
482.6280367,-164.070007324219
482.6436617,-138.75
482.6592867,-109.0
482.6749117,-74.3399963378906
482.6905367,-36.0499992370605
482.7061617,4.03999996185303
482.7217867,44.3899993896484
482.7374117,83.620002746582
482.7530367,119.819999694824
482.7686617,150.410003662109
482.7842867,173.610000610352
482.7999117,189.970001220703
482.8155367,201.809997558594
482.8311617,211.289993286133
482.8467867,219.429992675781
482.8624117,226.350006103516
482.8780367,231.949996948242
482.8936617,236.279998779297
482.9092867,239.5
482.9249117,241.75
482.9405367,243.100006103516
482.9561617,243.5
482.9717867,242.399993896484
482.9874117,238.630004882813
483.0030367,231.089996337891
483.0186617,219.669998168945
483.0342867,205.240005493164
483.0499117,188.669998168945
483.0655367,169.75
483.0811617,147.160003662109
483.0967867,120.180000305176
483.1124117,90.4100036621094
483.1280367,61.2099990844727
483.1436617,35.5900001525879
483.1592867,14.8599996566772
483.1749117,-1.97000002861023
483.1905367,-15.460000038147
483.2061617,-25.1499996185303
483.2217867,-30.0400009155273
483.2374117,-29.8500003814697
483.2530367,-25.4200000762939
483.2686617,-18.1399993896484
483.2842867,-9.3100004196167
483.2999117,0.109999999403954
483.3155367,9.67000007629395
483.3311617,19.5100002288818
483.3467867,30.4300003051758
483.3624117,43.5499992370605
483.3780367,59.3400001525879
483.3936617,76.870002746582
483.4092867,94.2699966430664
483.4249117,109.809997558594
483.4405367,122.73999786377
483.4561617,133.410003662109
483.4717867,143.0
483.4874117,153.130004882813
483.5030367,164.970001220703
483.5186617,178.949996948242
483.5342867,195.619995117188
483.5499117,216.5
483.5655367,243.119995117188
483.5811617,275.089996337891
483.5967867,309.089996337891
483.6124117,327.670013427734
483.6280367,327.670013427734
483.6436617,327.670013427734
483.6592867,327.670013427734
483.6749117,327.670013427734
483.6905367,327.670013427734
483.7061617,327.670013427734
483.7217867,327.670013427734
483.7374117,327.670013427734
483.7530367,327.670013427734
483.7686617,327.670013427734
483.7842867,327.670013427734
483.7999117,327.670013427734
483.8155367,327.670013427734
483.8311617,327.670013427734
483.8467867,327.670013427734
483.8624117,327.670013427734
483.8780367,327.670013427734
483.8936617,327.670013427734
483.9092867,327.670013427734
483.9249117,302.279998779297
483.9405367,275.160003662109
483.9561617,249.720001220703
483.9717867,227.270004272461
483.9874117,207.360000610352
484.0030367,188.720001220703
484.0186617,170.220001220703
484.0342867,151.399993896484
484.0499117,132.5
484.0655367,114.080001831055
484.0811617,96.4700012207031
484.0967867,79.3899993896484
484.1124117,61.9300003051758
484.1280367,43.1500015258789
484.1436617,22.6000003814697
484.1592867,-0.0299999993294477
484.1749117,-25.4500007629395
484.1905367,-54.5200004577637
484.2061617,-87.3099975585938
484.2217867,-122.449996948242
484.2374117,-157.389999389648
484.2530367,-189.559997558594
484.2686617,-217.559997558594
484.2842867,-241.509994506836
484.2999117,-262.390014648438
484.3155367,-280.720001220703
484.3311617,-295.839996337891
484.3467867,-306.649993896484
484.3624117,-312.820007324219
484.3780367,-315.369995117188
484.3936617,-316.089996337891
484.4092867,-316.670013427734
484.4249117,-318.140014648438
484.4405367,-321.089996337891
484.4561617,-326.140014648438
484.4717867,-327.679992675781
484.4874117,-327.679992675781
484.5030367,-327.679992675781
484.5186617,-327.679992675781
484.5342867,-327.679992675781
484.5499117,-327.679992675781
484.5655367,-327.679992675781
484.5811617,-327.679992675781
484.5967867,-327.679992675781
484.6124117,-327.679992675781
484.6280367,-327.679992675781
484.6436617,-327.679992675781
484.6592867,-327.679992675781
484.6749117,-327.679992675781
484.6905367,-327.679992675781
484.7061617,-327.679992675781
484.7217867,-327.679992675781
484.7374117,-327.679992675781
484.7530367,-327.679992675781
484.7686617,-327.679992675781
484.7842867,-327.679992675781
484.7999117,-327.679992675781
484.8155367,-327.679992675781
484.8311617,-327.679992675781
484.8467867,-327.679992675781
484.8624117,-327.679992675781
484.8780367,-327.679992675781
484.8936617,-327.679992675781
484.9092867,-327.679992675781
484.9249117,-327.679992675781
484.9405367,-327.679992675781
484.9561617,-327.679992675781
484.9717867,-327.679992675781
484.9874117,-327.679992675781
485.0030367,-327.679992675781
485.0186617,-327.679992675781
485.0342867,-327.679992675781
485.0499117,-327.679992675781
485.0655367,-327.679992675781
485.0811617,-314.149993896484
485.0967867,-294.200012207031
485.1124117,-272.880004882813
485.1280367,-251.720001220703
485.1436617,-231.649993896484
485.1592867,-210.0
485.1749117,-191.509994506836
485.1905367,-177.449996948242
485.2061617,-169.490005493164
485.2217867,-168.600006103516
485.2374117,-173.940002441406
485.2530367,-183.039993286133
485.2686617,-192.960006713867
485.2842867,-201.449996948242
485.2999117,-207.710006713867
485.3155367,-212.800003051758
485.3311617,-219.229995727539
485.3467867,-229.309997558594
485.3624117,-243.789993286133
485.3780367,-262.320007324219
485.3936617,-284.739990234375
485.4092867,-311.010009765625
485.4249117,-327.679992675781
485.4405367,-327.679992675781
485.4561617,-327.679992675781
485.4717867,-327.679992675781
485.4874117,-327.679992675781
485.5030367,-327.679992675781
485.5186617,-327.679992675781
485.5342867,-327.679992675781
485.5499117,-327.679992675781
485.5655367,-327.679992675781
485.5811617,-327.679992675781
485.5967867,-316.5
485.6124117,-298.540008544922
485.6280367,-281.350006103516
485.6436617,-265.029998779297
485.6592867,-249.300003051758
485.6749117,-233.770004272461
485.6905367,-218.179992675781
485.7061617,-202.199996948242
485.7217867,-184.779998779297
485.7374117,-163.850006103516
485.7530367,-137.570007324219
485.7686617,-106.01000213623
485.7842867,-71.2300033569336
485.7999117,-36.0800018310547
485.8155367,-2.8199999332428
485.8311617,27.5699996948242
485.8467867,55.2900009155273
485.8624117,81.120002746582
485.8780367,106.0
485.8936617,130.720001220703
485.9092867,155.669998168945
485.9249117,180.869995117188
485.9405367,206.550003051758
485.9561617,233.610000610352
485.9717867,262.989990234375
485.9874117,294.679992675781
486.0030367,327.390014648438
486.0186617,327.670013427734
486.0342867,327.670013427734
486.0499117,327.670013427734
486.0655367,327.670013427734
486.0811617,327.670013427734
486.0967867,327.670013427734
486.1124117,327.670013427734
486.1280367,306.140014648438
486.1436617,276.320007324219
486.1592867,248.25
486.1749117,217.490005493164
486.1905367,179.020004272461
486.2061617,131.380004882813
486.2217867,77.9499969482422
486.2374117,25.0200004577637
486.2530367,-21.6299991607666
486.2686617,-58.5900001525879
486.2842867,-82.620002746582
486.2999117,-90.6399993896484
486.3155367,-88.0999984741211
486.3311617,-95.4899978637695
486.3467867,-138.179992675781
486.3624117,-228.580001831055
486.3780367,-327.679992675781
486.3936617,-327.679992675781
486.4092867,-327.679992675781
486.4249117,-327.679992675781
486.4405367,-327.679992675781
486.4561617,-327.679992675781
486.4717867,-327.679992675781
486.4874117,-327.679992675781
486.5030367,-327.679992675781
486.5186617,-327.679992675781
486.5342867,-327.679992675781
486.5499117,-327.679992675781
486.5655367,-327.679992675781
486.5811617,-327.679992675781
486.5967867,-327.679992675781
486.6124117,-327.679992675781
486.6280367,-327.679992675781
486.6436617,-327.679992675781
486.6592867,-198.309997558594
486.6749117,-30.3600006103516
486.6905367,91.7399978637695
486.7061617,181.589996337891
486.7217867,255.059997558594
486.7374117,321.920013427734
486.7530367,327.670013427734
486.7686617,327.670013427734
486.7842867,327.670013427734
486.7999117,327.670013427734
486.8155367,327.670013427734
486.8311617,327.670013427734
486.8467867,327.670013427734
486.8624117,327.670013427734
486.8780367,327.670013427734
486.8936617,327.670013427734
486.9092867,327.670013427734
486.9249117,327.670013427734
486.9405367,327.670013427734
486.9561617,327.670013427734
486.9717867,327.670013427734
486.9874117,327.670013427734
487.0030367,327.670013427734
487.0186617,327.670013427734
487.0342867,327.670013427734
487.0499117,327.670013427734
487.0655367,327.670013427734
487.0811617,327.670013427734
487.0967867,327.670013427734
487.1124117,327.670013427734
487.1280367,327.670013427734
487.1436617,327.670013427734
487.1592867,327.670013427734
487.1749117,327.670013427734
487.1905367,327.670013427734
487.2061617,327.670013427734
487.2217867,327.670013427734
487.2374117,327.670013427734
487.2530367,327.670013427734
487.2686617,327.670013427734
487.2842867,327.670013427734
487.2999117,327.670013427734
487.3155367,327.670013427734
487.3311617,327.670013427734
487.3467867,327.670013427734
487.3624117,327.670013427734
487.3780367,327.670013427734
487.3936617,327.670013427734
487.4092867,327.670013427734
487.4249117,327.670013427734
487.4405367,327.670013427734
487.4561617,327.670013427734
487.4717867,327.670013427734
487.4874117,305.369995117188
487.5030367,250.929992675781
487.5186617,197.309997558594
487.5342867,144.449996948242
487.5499117,92.5100021362305
487.5655367,42.1500015258789
487.5811617,-5.51999998092651
487.5967867,-49.6800003051758
487.6124117,-90.3600006103516
487.6280367,-128.320007324219
487.6436617,-164.309997558594
487.6592867,-198.740005493164
487.6749117,-231.720001220703
487.6905367,-263.269989013672
487.7061617,-293.320007324219
487.7217867,-321.200012207031
487.7374117,-327.679992675781
487.7530367,-327.679992675781
487.7686617,-327.679992675781
487.7842867,-327.679992675781
487.7999117,-327.679992675781
487.8155367,-327.679992675781
487.8311617,-327.679992675781
487.8467867,-327.679992675781
487.8624117,-327.679992675781
487.8780367,-327.679992675781
487.8936617,-327.679992675781
487.9092867,-327.679992675781
487.9249117,-327.679992675781
487.9405367,-327.679992675781
487.9561617,-327.679992675781
487.9717867,-327.679992675781
487.9874117,-309.140014648438
488.0030367,-301.269989013672
488.0186617,-306.200012207031
488.0342867,-322.399993896484
488.0499117,-327.679992675781
488.0655367,-327.679992675781
488.0811617,-327.679992675781
488.0967867,-327.679992675781
488.1124117,-327.679992675781
488.1280367,-327.679992675781
488.1436617,-327.679992675781
488.1592867,-327.679992675781
488.1749117,-327.679992675781
488.1905367,-327.679992675781
488.2061617,-327.679992675781
488.2217867,-327.679992675781
488.2374117,-327.679992675781
488.2530367,-327.679992675781
488.2686617,-327.679992675781
488.2842867,-327.679992675781
488.2999117,-327.679992675781
488.3155367,-327.679992675781
488.3311617,-327.679992675781
488.3467867,-327.679992675781
488.3624117,-327.679992675781
488.3780367,-327.679992675781
488.3936617,-327.679992675781
488.4092867,-327.679992675781
488.4249117,-327.679992675781
488.4405367,-327.679992675781
488.4561617,-327.679992675781
488.4717867,-327.679992675781
488.4874117,-327.679992675781
488.5030367,-327.679992675781
488.5186617,-327.679992675781
488.5342867,-327.679992675781
488.5499117,-327.679992675781
488.5655367,-327.679992675781
488.5811617,-327.679992675781
488.5967867,-327.679992675781
488.6124117,-327.679992675781
488.6280367,-327.679992675781
488.6436617,-327.679992675781
488.6592867,-327.679992675781
488.6749117,-327.679992675781
488.6905367,-327.679992675781
488.7061617,-327.679992675781
488.7217867,-327.679992675781
488.7374117,-327.679992675781
488.7530367,-327.679992675781
488.7686617,-327.679992675781
488.7842867,-327.679992675781
488.7999117,-327.679992675781
488.8155367,-327.679992675781
488.8311617,-327.679992675781
488.8467867,-327.679992675781
488.8624117,-327.679992675781
488.8780367,-327.679992675781
488.8936617,-327.679992675781
488.9092867,-327.679992675781
488.9249117,-327.679992675781
488.9405367,-327.679992675781
488.9561617,-327.679992675781
488.9717867,-327.679992675781
488.9874117,-327.679992675781
489.0030367,-327.679992675781
489.0186617,-327.679992675781
489.0342867,-327.679992675781
489.0499117,-327.679992675781
489.0655367,-327.679992675781
489.0811617,-327.679992675781
489.0967867,-327.679992675781
489.1124117,-327.679992675781
489.1280367,-327.679992675781
489.1436617,-327.679992675781
489.1592867,-327.679992675781
489.1749117,-327.679992675781
489.1905367,-327.679992675781
489.2061617,-327.679992675781
489.2217867,-313.920013427734
489.2374117,-279.019989013672
489.2530367,-244.479995727539
489.2686617,-210.399993896484
489.2842867,-176.580001831055
489.2999117,-142.360000610352
489.3155367,-107.050003051758
489.3311617,-70.5699996948242
489.3467867,-33.6100006103516
489.3624117,2.72000002861023
489.3780367,37.5
489.3936617,70.1800003051758
489.4092867,100.559997558594
489.4249117,128.699996948242
489.4405367,155.850006103516
489.4561617,184.990005493164
489.4717867,219.270004272461
489.4874117,259.799987792969
489.5030367,304.850006103516
489.5186617,327.670013427734
489.5342867,327.670013427734
489.5499117,327.670013427734
489.5655367,327.670013427734
489.5811617,327.670013427734
489.5967867,327.670013427734
489.6124117,327.670013427734
489.6280367,327.670013427734
489.6436617,327.670013427734
489.6592867,327.670013427734
489.6749117,327.670013427734
489.6905367,327.670013427734
489.7061617,327.670013427734
489.7217867,327.670013427734
489.7374117,327.670013427734
489.7530367,327.670013427734
489.7686617,327.670013427734
489.7842867,327.670013427734
489.7999117,327.670013427734
489.8155367,327.670013427734
489.8311617,327.670013427734
489.8467867,327.670013427734
489.8624117,327.670013427734
489.8780367,327.670013427734
489.8936617,327.670013427734
489.9092867,327.670013427734
489.9249117,327.670013427734
489.9405367,327.670013427734
489.9561617,327.670013427734
489.9717867,327.670013427734
489.9874117,327.670013427734
490.0030367,327.670013427734
490.0186617,327.670013427734
490.0342867,327.670013427734
490.0499117,327.670013427734
490.0655367,327.670013427734
490.0811617,327.670013427734
490.0967867,327.670013427734
490.1124117,327.670013427734
490.1280367,327.670013427734
490.1436617,327.670013427734
490.1592867,327.670013427734
490.1749117,327.670013427734
490.1905367,327.670013427734
490.2061617,327.670013427734
490.2217867,327.670013427734
490.2374117,327.670013427734
490.2530367,327.670013427734
490.2686617,327.670013427734
490.2842867,327.670013427734
490.2999117,327.670013427734
490.3155367,327.670013427734
490.3311617,327.670013427734
490.3467867,327.670013427734
490.3624117,327.670013427734
490.3780367,327.670013427734
490.3936617,327.670013427734
490.4092867,327.670013427734
490.4249117,327.670013427734
490.4405367,327.670013427734
490.4561617,327.670013427734
490.4717867,327.670013427734
490.4874117,327.670013427734
490.5030367,327.670013427734
490.5186617,327.670013427734
490.5342867,327.670013427734
490.5499117,327.670013427734
490.5655367,327.670013427734
490.5811617,327.670013427734
490.5967867,327.670013427734
490.6124117,327.670013427734
490.6280367,327.670013427734
490.6436617,323.040008544922
490.6592867,313.839996337891
490.6749117,304.350006103516
490.6905367,294.369995117188
490.7061617,283.130004882813
490.7217867,269.809997558594
490.7374117,254.320007324219
490.7530367,237.5
490.7686617,220.770004272461
490.7842867,205.419998168945
490.7999117,192.080001831055
490.8155367,180.979995727539
490.8311617,172.399993896484
490.8467867,166.639999389648
490.8624117,163.539993286133
490.8780367,162.270004272461
490.8936617,161.470001220703
490.9092867,159.860000610352
490.9249117,156.800003051758
490.9405367,152.380004882813
490.9561617,147.139999389648
490.9717867,141.710006713867
490.9874117,136.479995727539
491.0030367,131.570007324219
491.0186617,126.870002746582
491.0342867,122.25
491.0499117,117.629997253418
491.0655367,113.01000213623
491.0811617,108.419998168945
491.0967867,103.73999786377
491.1124117,98.6800003051758
491.1280367,92.7099990844727
491.1436617,85.25
491.1592867,75.9000015258789
491.1749117,64.8099975585938
491.1905367,52.5299987792969
491.2061617,39.7000007629395
491.2217867,26.8500003814697
491.2374117,14.3699998855591
491.2530367,2.69000005722046
491.2686617,-7.44000005722046
491.2842867,-15.039999961853
491.2999117,-19.0
491.3155367,-18.7700004577637
491.3311617,-14.8100004196167
491.3467867,-8.47000026702881
491.3624117,-1.39999997615814
491.3780367,5.07999992370605
491.3936617,10.289999961853
491.4092867,14.0
491.4249117,16.1499996185303
491.4405367,16.7700004577637
491.4561617,16.1000003814697
491.4717867,14.7600002288818
491.4874117,13.6099996566772
491.5030367,13.3500003814697
491.5186617,14.1099996566772
491.5342867,15.2200002670288
491.5499117,15.4799995422363
491.5655367,14.0900001525879
491.5811617,11.3699998855591
491.5967867,8.30000019073486
491.6124117,5.53999996185303
491.6280367,3.02999997138977
491.6436617,0.349999994039536
491.6592867,-2.85999989509583
491.6749117,-6.53000020980835
491.6905367,-9.73999977111816
491.7061617,-10.7399997711182
