Time(s),Value(℃)
481.0030367,138.610000610352
481.0186617,138.789993286133
481.0342867,138.970001220703
481.0499117,139.149993896484
481.0655367,139.320007324219
481.0811617,139.5
481.0967867,139.669998168945
481.1124117,139.839996337891
481.1280367,140.009994506836
481.1436617,140.169998168945
481.1592867,140.330001831055
481.1749117,140.490005493164
481.1905367,140.639999389648
481.2061617,140.789993286133
481.2217867,140.940002441406
481.2374117,141.089996337891
481.2530367,141.229995727539
481.2686617,141.369995117188
481.2842867,141.509994506836
481.2999117,141.649993896484
481.3155367,141.789993286133
481.3311617,141.919998168945
481.3467867,142.059997558594
481.3624117,142.190002441406
481.3780367,142.330001831055
481.3936617,142.460006713867
481.4092867,142.600006103516
481.4249117,142.729995727539
481.4405367,142.869995117188
481.4561617,143.0
481.4717867,143.130004882813
481.4874117,143.25
481.5030367,143.380004882813
481.5186617,143.5
481.5342867,143.619995117188
481.5499117,143.740005493164
481.5655367,143.850006103516
481.5811617,143.970001220703
481.5967867,144.080001831055
481.6124117,144.190002441406
481.6280367,144.309997558594
481.6436617,144.410003662109
481.6592867,144.520004272461
481.6749117,144.630004882813
481.6905367,144.729995727539
481.7061617,144.830001831055
481.7217867,144.919998168945
481.7374117,145.0
481.7530367,145.080001831055
481.7686617,145.149993896484
481.7842867,145.210006713867
481.7999117,145.259994506836
481.8155367,145.309997558594
481.8311617,145.350006103516
481.8467867,145.389999389648
481.8624117,145.419998168945
481.8780367,145.449996948242
481.8936617,145.479995727539
481.9092867,145.5
481.9249117,145.529998779297
481.9405367,145.550003051758
481.9561617,145.570007324219
481.9717867,145.589996337891
481.9874117,145.610000610352
482.0030367,145.630004882813
482.0186617,145.639999389648
482.0342867,145.660003662109
482.0499117,145.669998168945
482.0655367,145.679992675781
482.0811617,145.690002441406
482.0967867,145.699996948242
482.1124117,145.710006713867
482.1280367,145.720001220703
482.1436617,145.729995727539
482.1592867,145.740005493164
482.1749117,145.75
482.1905367,145.759994506836
482.2061617,145.770004272461
482.2217867,145.770004272461
482.2374117,145.779998779297
482.2530367,145.789993286133
482.2686617,145.800003051758
482.2842867,145.809997558594
482.2999117,145.820007324219
482.3155367,145.830001831055
482.3311617,145.839996337891
482.3467867,145.850006103516
482.3624117,145.869995117188
482.3780367,145.880004882813
482.3936617,145.899993896484
482.4092867,145.919998168945
482.4249117,145.949996948242
482.4405367,145.979995727539
482.4561617,146.009994506836
482.4717867,146.050003051758
482.4874117,146.089996337891
482.5030367,146.130004882813
482.5186617,146.179992675781
482.5342867,146.229995727539
482.5499117,146.279998779297
482.5655367,146.339996337891
482.5811617,146.389999389648
482.5967867,146.449996948242
482.6124117,146.509994506836
482.6280367,146.559997558594
482.6436617,146.619995117188
482.6592867,146.679992675781
482.6749117,146.729995727539
482.6905367,146.789993286133
482.7061617,146.839996337891
482.7217867,146.889999389648
482.7374117,146.940002441406
482.7530367,146.979995727539
482.7686617,147.029998779297
482.7842867,147.070007324219
482.7999117,147.110000610352
482.8155367,147.149993896484
482.8311617,147.190002441406
482.8467867,147.220001220703
482.8624117,147.259994506836
482.8780367,147.289993286133
482.8936617,147.330001831055
482.9092867,147.360000610352
482.9249117,147.389999389648
482.9405367,147.419998168945
482.9561617,147.460006713867
482.9717867,147.490005493164
482.9874117,147.520004272461
483.0030367,147.539993286133
483.0186617,147.570007324219
483.0342867,147.600006103516
483.0499117,147.630004882813
483.0655367,147.649993896484
483.0811617,147.669998168945
483.0967867,147.690002441406
483.1124117,147.710006713867
483.1280367,147.720001220703
483.1436617,147.720001220703
483.1592867,147.729995727539
483.1749117,147.729995727539
483.1905367,147.720001220703
483.2061617,147.710006713867
483.2217867,147.699996948242
483.2374117,147.679992675781
483.2530367,147.660003662109
483.2686617,147.639999389648
483.2842867,147.610000610352
483.2999117,147.580001831055
483.3155367,147.550003051758
483.3311617,147.509994506836
483.3467867,147.470001220703
483.3624117,147.419998168945
483.3780367,147.380004882813
483.3936617,147.320007324219
483.4092867,147.270004272461
483.4249117,147.210006713867
483.4405367,147.139999389648
483.4561617,147.070007324219
483.4717867,147.0
483.4874117,146.929992675781
483.5030367,146.850006103516
483.5186617,146.770004272461
483.5342867,146.679992675781
483.5499117,146.600006103516
483.5655367,146.520004272461
483.5811617,146.440002441406
483.5967867,146.350006103516
483.6124117,146.270004272461
483.6280367,146.190002441406
483.6436617,146.110000610352
483.6592867,146.039993286133
483.6749117,145.970001220703
483.6905367,145.889999389648
483.7061617,145.830001831055
483.7217867,145.759994506836
483.7374117,145.710006713867
483.7530367,145.649993896484
483.7686617,145.600006103516
483.7842867,145.550003051758
483.7999117,145.509994506836
483.8155367,145.479995727539
483.8311617,145.449996948242
483.8467867,145.429992675781
483.8624117,145.419998168945
483.8780367,145.419998168945
483.8936617,145.419998168945
483.9092867,145.440002441406
483.9249117,145.470001220703
483.9405367,145.520004272461
483.9561617,145.580001831055
483.9717867,145.660003662109
483.9874117,145.759994506836
484.0030367,145.869995117188
484.0186617,146.0
484.0342867,146.149993896484
484.0499117,146.320007324219
484.0655367,146.490005493164
484.0811617,146.679992675781
484.0967867,146.880004882813
484.1124117,147.080001831055
484.1280367,147.279998779297
484.1436617,147.490005493164
484.1592867,147.699996948242
484.1749117,147.899993896484
484.1905367,148.100006103516
484.2061617,148.300003051758
484.2217867,148.490005493164
484.2374117,148.669998168945
484.2530367,148.839996337891
484.2686617,149.009994506836
484.2842867,149.179992675781
484.2999117,149.339996337891
484.3155367,149.490005493164
484.3311617,149.649993896484
484.3467867,149.800003051758
484.3624117,149.949996948242
484.3780367,150.100006103516
484.3936617,150.25
484.4092867,150.399993896484
484.4249117,150.539993286133
484.4405367,150.690002441406
484.4561617,150.839996337891
484.4717867,150.990005493164
484.4874117,151.139999389648
484.5030367,151.289993286133
484.5186617,151.440002441406
484.5342867,151.589996337891
484.5499117,151.740005493164
484.5655367,151.889999389648
484.5811617,152.039993286133
484.5967867,152.190002441406
484.6124117,152.330001831055
484.6280367,152.479995727539
484.6436617,152.619995117188
484.6592867,152.759994506836
484.6749117,152.899993896484
484.6905367,153.039993286133
484.7061617,153.179992675781
484.7217867,153.309997558594
484.7374117,153.449996948242
484.7530367,153.589996337891
484.7686617,153.729995727539
484.7842867,153.880004882813
484.7999117,154.029998779297
484.8155367,154.190002441406
484.8311617,154.350006103516
484.8467867,154.520004272461
484.8624117,154.679992675781
484.8780367,154.839996337891
484.8936617,154.990005493164
484.9092867,155.130004882813
484.9249117,155.25
484.9405367,155.360000610352
484.9561617,155.449996948242
484.9717867,155.520004272461
484.9874117,155.570007324219
485.0030367,155.600006103516
485.0186617,155.610000610352
485.0342867,155.600006103516
485.0499117,155.580001831055
485.0655367,155.550003051758
485.0811617,155.5
485.0967867,155.449996948242
485.1124117,155.399993896484
485.1280367,155.339996337891
485.1436617,155.279998779297
485.1592867,155.220001220703
485.1749117,155.160003662109
485.1905367,155.100006103516
485.2061617,155.050003051758
485.2217867,154.990005493164
485.2374117,154.940002441406
485.2530367,154.889999389648
485.2686617,154.850006103516
485.2842867,154.800003051758
485.2999117,154.75
485.3155367,154.710006713867
485.3311617,154.669998168945
485.3467867,154.619995117188
485.3624117,154.580001831055
485.3780367,154.529998779297
485.3936617,154.490005493164
485.4092867,154.440002441406
485.4249117,154.389999389648
485.4405367,154.339996337891
485.4561617,154.289993286133
485.4717867,154.229995727539
485.4874117,154.169998168945
485.5030367,154.100006103516
485.5186617,154.039993286133
485.5342867,153.970001220703
485.5499117,153.889999389648
485.5655367,153.820007324219
485.5811617,153.740005493164
485.5967867,153.669998168945
485.6124117,153.589996337891
485.6280367,153.5
485.6436617,153.419998168945
485.6592867,153.330001831055
485.6749117,153.229995727539
485.6905367,153.119995117188
485.7061617,153.0
485.7217867,152.869995117188
485.7374117,152.729995727539
485.7530367,152.570007324219
485.7686617,152.399993896484
485.7842867,152.220001220703
485.7999117,152.029998779297
485.8155367,151.820007324219
485.8311617,151.600006103516
485.8467867,151.380004882813
485.8624117,151.149993896484
485.8780367,150.919998168945
485.8936617,150.690002441406
485.9092867,150.460006713867
485.9249117,150.240005493164
485.9405367,150.020004272461
485.9561617,149.809997558594
485.9717867,149.610000610352
485.9874117,149.419998168945
486.0030367,149.229995727539
486.0186617,149.059997558594
486.0342867,148.889999389648
486.0499117,148.729995727539
486.0655367,148.580001831055
486.0811617,148.440002441406
486.0967867,148.300003051758
486.1124117,148.169998168945
486.1280367,148.050003051758
486.1436617,147.919998168945
486.1592867,147.800003051758
486.1749117,147.679992675781
486.1905367,147.570007324219
486.2061617,147.449996948242
486.2217867,147.330001831055
486.2374117,147.220001220703
486.2530367,147.100006103516
486.2686617,146.990005493164
486.2842867,146.869995117188
486.2999117,146.75
486.3155367,146.639999389648
486.3311617,146.520004272461
486.3467867,146.399993896484
486.3624117,146.289993286133
486.3780367,146.169998168945
486.3936617,146.059997558594
486.4092867,145.949996948242
486.4249117,145.839996337891
486.4405367,145.729995727539
486.4561617,145.619995117188
486.4717867,145.520004272461
486.4874117,145.410003662109
486.5030367,145.309997558594
486.5186617,145.199996948242
486.5342867,145.100006103516
486.5499117,144.990005493164
486.5655367,144.889999389648
486.5811617,144.779998779297
486.5967867,144.669998168945
486.6124117,144.570007324219
486.6280367,144.460006713867
486.6436617,144.350006103516
486.6592867,144.240005493164
486.6749117,144.139999389648
486.6905367,144.029998779297
486.7061617,143.919998168945
486.7217867,143.809997558594
486.7374117,143.699996948242
486.7530367,143.589996337891
486.7686617,143.490005493164
486.7842867,143.380004882813
486.7999117,143.279998779297
486.8155367,143.179992675781
486.8311617,143.089996337891
486.8467867,142.990005493164
486.8624117,142.899993896484
486.8780367,142.809997558594
486.8936617,142.729995727539
486.9092867,142.639999389648
486.9249117,142.559997558594
486.9405367,142.479995727539
486.9561617,142.410003662109
486.9717867,142.330001831055
486.9874117,142.259994506836
487.0030367,142.190002441406
487.0186617,142.119995117188
487.0342867,142.050003051758
487.0499117,141.979995727539
487.0655367,141.910003662109
487.0811617,141.850006103516
487.0967867,141.779998779297
487.1124117,141.720001220703
487.1280367,141.660003662109
487.1436617,141.600006103516
487.1592867,141.539993286133
487.1749117,141.479995727539
487.1905367,141.429992675781
487.2061617,141.369995117188
487.2217867,141.309997558594
487.2374117,141.259994506836
487.2530367,141.210006713867
487.2686617,141.149993896484
487.2842867,141.100006103516
487.2999117,141.050003051758
487.3155367,141.0
487.3311617,140.949996948242
487.3467867,140.899993896484
487.3624117,140.860000610352
487.3780367,140.809997558594
487.3936617,140.759994506836
487.4092867,140.720001220703
487.4249117,140.679992675781
487.4405367,140.630004882813
487.4561617,140.589996337891
487.4717867,140.550003051758
487.4874117,140.509994506836
487.5030367,140.479995727539
487.5186617,140.440002441406
487.5342867,140.399993896484
487.5499117,140.369995117188
487.5655367,140.339996337891
487.5811617,140.300003051758
487.5967867,140.270004272461
487.6124117,140.240005493164
487.6280367,140.210006713867
487.6436617,140.179992675781
487.6592867,140.149993896484
487.6749117,140.119995117188
487.6905367,140.100006103516
487.7061617,140.070007324219
487.7217867,140.050003051758
487.7374117,140.020004272461
487.7530367,140.0
487.7686617,139.979995727539
487.7842867,139.949996948242
487.7999117,139.929992675781
487.8155367,139.919998168945
487.8311617,139.899993896484
487.8467867,139.880004882813
487.8624117,139.869995117188
487.8780367,139.850006103516
487.8936617,139.839996337891
487.9092867,139.820007324219
487.9249117,139.809997558594
487.9405367,139.800003051758
487.9561617,139.789993286133
487.9717867,139.770004272461
487.9874117,139.759994506836
488.0030367,139.75
488.0186617,139.740005493164
488.0342867,139.729995727539
488.0499117,139.720001220703
488.0655367,139.710006713867
488.0811617,139.699996948242
488.0967867,139.690002441406
488.1124117,139.679992675781
488.1280367,139.679992675781
488.1436617,139.669998168945
488.1592867,139.660003662109
488.1749117,139.660003662109
488.1905367,139.649993896484
488.2061617,139.649993896484
488.2217867,139.639999389648
488.2374117,139.639999389648
488.2530367,139.639999389648
488.2686617,139.630004882813
488.2842867,139.630004882813
488.2999117,139.630004882813
488.3155367,139.619995117188
488.3311617,139.619995117188
488.3467867,139.610000610352
488.3624117,139.610000610352
488.3780367,139.610000610352
488.3936617,139.600006103516
488.4092867,139.600006103516
488.4249117,139.600006103516
488.4405367,139.589996337891
488.4561617,139.589996337891
488.4717867,139.580001831055
488.4874117,139.580001831055
488.5030367,139.570007324219
488.5186617,139.559997558594
488.5342867,139.559997558594
488.5499117,139.550003051758
488.5655367,139.539993286133
488.5811617,139.539993286133
488.5967867,139.529998779297
488.6124117,139.520004272461
488.6280367,139.509994506836
488.6436617,139.5
488.6592867,139.490005493164
488.6749117,139.479995727539
488.6905367,139.470001220703
488.7061617,139.460006713867
488.7217867,139.449996948242
488.7374117,139.440002441406
488.7530367,139.419998168945
488.7686617,139.410003662109
488.7842867,139.389999389648
488.7999117,139.380004882813
488.8155367,139.360000610352
488.8311617,139.350006103516
488.8467867,139.330001831055
488.8624117,139.309997558594
488.8780367,139.300003051758
488.8936617,139.279998779297
488.9092867,139.270004272461
488.9249117,139.25
488.9405367,139.240005493164
488.9561617,139.220001220703
488.9717867,139.210006713867
488.9874117,139.190002441406
489.0030367,139.179992675781
489.0186617,139.160003662109
489.0342867,139.149993896484
489.0499117,139.139999389648
489.0655367,139.119995117188
489.0811617,139.110000610352
489.0967867,139.100006103516
489.1124117,139.089996337891
489.1280367,139.080001831055
489.1436617,139.070007324219
489.1592867,139.059997558594
489.1749117,139.050003051758
489.1905367,139.039993286133
489.2061617,139.029998779297
489.2217867,139.020004272461
489.2374117,139.009994506836
489.2530367,139.009994506836
489.2686617,139.0
489.2842867,138.990005493164
489.2999117,138.979995727539
489.3155367,138.979995727539
489.3311617,138.970001220703
489.3467867,138.970001220703
489.3624117,138.960006713867
489.3780367,138.960006713867
489.3936617,138.949996948242
489.4092867,138.949996948242
489.4249117,138.949996948242
489.4405367,138.940002441406
489.4561617,138.940002441406
489.4717867,138.940002441406
489.4874117,138.940002441406
489.5030367,138.929992675781
489.5186617,138.929992675781
489.5342867,138.929992675781
489.5499117,138.929992675781
489.5655367,138.929992675781
489.5811617,138.919998168945
489.5967867,138.919998168945
489.6124117,138.919998168945
489.6280367,138.919998168945
489.6436617,138.919998168945
489.6592867,138.910003662109
489.6749117,138.910003662109
489.6905367,138.910003662109
489.7061617,138.910003662109
489.7217867,138.910003662109
489.7374117,138.910003662109
489.7530367,138.910003662109
489.7686617,138.910003662109
489.7842867,138.919998168945
489.7999117,138.919998168945
489.8155367,138.919998168945
489.8311617,138.929992675781
489.8467867,138.929992675781
489.8624117,138.940002441406
489.8780367,138.949996948242
489.8936617,138.949996948242
489.9092867,138.960006713867
489.9249117,138.960006713867
489.9405367,138.970001220703
489.9561617,138.979995727539
489.9717867,138.979995727539
489.9874117,138.990005493164
490.0030367,138.990005493164
490.0186617,139.0
490.0342867,139.0
490.0499117,139.009994506836
490.0655367,139.020004272461
490.0811617,139.020004272461
490.0967867,139.029998779297
490.1124117,139.029998779297
490.1280367,139.039993286133
490.1436617,139.050003051758
490.1592867,139.059997558594
490.1749117,139.059997558594
490.1905367,139.070007324219
490.2061617,139.080001831055
490.2217867,139.089996337891
490.2374117,139.100006103516
490.2530367,139.110000610352
490.2686617,139.119995117188
490.2842867,139.130004882813
490.2999117,139.139999389648
490.3155367,139.149993896484
490.3311617,139.169998168945
490.3467867,139.179992675781
490.3624117,139.190002441406
490.3780367,139.210006713867
490.3936617,139.220001220703
490.4092867,139.240005493164
490.4249117,139.259994506836
490.4405367,139.270004272461
490.4561617,139.289993286133
490.4717867,139.309997558594
490.4874117,139.330001831055
490.5030367,139.350006103516
490.5186617,139.380004882813
490.5342867,139.399993896484
490.5499117,139.419998168945
490.5655367,139.449996948242
490.5811617,139.470001220703
490.5967867,139.5
490.6124117,139.520004272461
490.6280367,139.550003051758
490.6436617,139.570007324219
490.6592867,139.600006103516
490.6749117,139.630004882813
490.6905367,139.649993896484
490.7061617,139.679992675781
490.7217867,139.699996948242
490.7374117,139.729995727539
490.7530367,139.75
490.7686617,139.779998779297
490.7842867,139.800003051758
490.7999117,139.830001831055
490.8155367,139.860000610352
490.8311617,139.880004882813
490.8467867,139.910003662109
490.8624117,139.929992675781
490.8780367,139.960006713867
490.8936617,139.990005493164
490.9092867,140.009994506836
490.9249117,140.039993286133
490.9405367,140.070007324219
490.9561617,140.100006103516
490.9717867,140.130004882813
490.9874117,140.160003662109
491.0030367,140.179992675781
491.0186617,140.210006713867
491.0342867,140.240005493164
491.0499117,140.270004272461
491.0655367,140.300003051758
491.0811617,140.330001831055
491.0967867,140.360000610352
491.1124117,140.389999389648
491.1280367,140.410003662109
491.1436617,140.440002441406
491.1592867,140.470001220703
491.1749117,140.5
491.1905367,140.529998779297
491.2061617,140.550003051758
491.2217867,140.580001831055
491.2374117,140.610000610352
491.2530367,140.639999389648
491.2686617,140.669998168945
491.2842867,140.699996948242
491.2999117,140.729995727539
491.3155367,140.75
491.3311617,140.779998779297
491.3467867,140.809997558594
491.3624117,140.839996337891
491.3780367,140.869995117188
491.3936617,140.889999389648
491.4092867,140.919998168945
491.4249117,140.949996948242
491.4405367,140.979995727539
491.4561617,141.009994506836
491.4717867,141.029998779297
491.4874117,141.059997558594
491.5030367,141.089996337891
491.5186617,141.119995117188
491.5342867,141.139999389648
491.5499117,141.169998168945
491.5655367,141.199996948242
491.5811617,141.220001220703
491.5967867,141.25
491.6124117,141.279998779297
491.6280367,141.300003051758
491.6436617,141.330001831055
491.6592867,141.350006103516
491.6749117,141.380004882813
491.6905367,141.399993896484
491.7061617,141.429992675781
491.7217867,141.449996948242
491.7374117,141.479995727539
491.7530367,141.5
491.7686617,141.529998779297
491.7842867,141.550003051758
491.7999117,141.570007324219
491.8155367,141.600006103516
491.8311617,141.619995117188
491.8467867,141.639999389648
491.8624117,141.660003662109
491.8780367,141.690002441406
491.8936617,141.710006713867
491.9092867,141.729995727539
491.9249117,141.75
