Time(s),Value(%)
1466.0041916,-50.9599990844727
1466.0198166,-46.4300003051758
1466.0354416,-45.0299987792969
1466.0510666,-49.2200012207031
1466.0666916,-58.9599990844727
1466.0823166,-72.1999969482422
1466.0979416,-86.0999984741211
1466.1135666,-98.2799987792969
1466.1291916,-107.26000213623
1466.1448166,-112.709999084473
1466.1604416,-115.519996643066
1466.1760666,-117.389999389648
1466.1916916,-120.029998779297
1466.2073166,-124.180000305176
1466.2229416,-129.229995727539
1466.2385666,-133.600006103516
1466.2541916,-135.940002441406
1466.2698166,-135.990005493164
1466.2854416,-134.580001831055
1466.3010666,-132.820007324219
1466.3166916,-130.649993896484
1466.3323166,-124.680000305176
1466.3479416,-106.529998779297
1466.3635666,-65.2699966430664
1466.3791916,4.42999982833862
1466.3948166,94.3000030517578
1466.4104416,183.229995727539
1466.4260666,247.570007324219
1466.4416916,272.820007324219
1466.4573166,258.950012207031
1466.4729416,217.899993896484
1466.4885666,166.339996337891
1466.5041916,118.180000305176
1466.5198166,80.3199996948242
1466.5354416,52.75
1466.5510666,31.3700008392334
1466.5666916,11.2200002670288
1466.5823166,-10.8999996185303
1466.5979416,-34.8800010681152
1466.6135666,-57.2799987792969
1466.6291916,-73.7399978637695
1466.6448166,-81.6999969482422
1466.6604416,-81.5299987792969
1466.6760666,-75.9300003051758
1466.6916916,-68.5899963378906
1466.7073166,-62.5400009155273
1466.7229416,-59.1599998474121
1466.7385666,-58.2900009155273
1466.7541916,-59.2900009155273
1466.7698166,-62.1100006103516
1466.7854416,-67.2200012207031
1466.8010666,-74.5400009155273
1466.8166916,-82.7399978637695
1466.8323166,-89.6600036621094
1466.8479416,-93.3000030517578
1466.8635666,-92.879997253418
1466.8791916,-89.370002746582
1466.8948166,-84.9700012207031
1466.9104416,-81.7600021362305
1466.9260666,-80.6500015258789
1466.9416916,-81.2300033569336
1466.9573166,-82.4199981689453
1466.9729416,-83.0999984741211
1466.9885666,-82.6500015258789
1467.0041916,-80.9199981689453
1467.0198166,-76.7399978637695
1467.0354416,-64.7699966430664
1467.0510666,-34.0800018310547
1467.0666916,26.0100002288818
1467.0823166,115.069999694824
1467.0979416,215.660003662109
1467.1135666,300.059997558594
1467.1291916,327.670013427734
1467.1448166,327.670013427734
1467.1604416,304.089996337891
1467.1760666,247.699996948242
1467.1916916,193.070007324219
1467.2073166,151.520004272461
1467.2229416,124.529998779297
1467.2385666,106.769996643066
1467.2541916,90.870002746582
1467.2698166,71.3600006103516
1467.2854416,46.25
1467.3010666,17.1599998474121
1467.3166916,-11.460000038147
1467.3323166,-34.4199981689453
1467.3479416,-48.2700004577637
1467.3635666,-52.9900016784668
1467.3791916,-51.5800018310547
1467.3948166,-48.1300010681152
1467.4104416,-45.689998626709
1467.4260666,-45.560001373291
1467.4416916,-47.8400001525879
1467.4573166,-52.2599983215332
1467.4729416,-58.4900016784668
1467.4885666,-65.9300003051758
1467.5041916,-73.7099990844727
1467.5198166,-80.8000030517578
1467.5354416,-86.3199996948242
1467.5510666,-89.8000030517578
1467.5666916,-91.3300018310547
1467.5823166,-91.4700012207031
1467.5979416,-91.0100021362305
1467.6135666,-90.7300033569336
1467.6291916,-90.9599990844727
1467.6448166,-91.25
1467.6604416,-90.7399978637695
1467.6760666,-88.7399978637695
1467.6916916,-85.1399993896484
1467.7073166,-80.0500030517578
1467.7229416,-71.9800033569336
1467.7385666,-55.2000007629395
1467.7541916,-20.0499992370605
1467.7698166,40.4599990844727
1467.7854416,121.959999084473
1467.8010666,206.880004882813
1467.8166916,272.510009765625
1467.8323166,302.739990234375
1467.8479416,294.890014648438
1467.8635666,258.679992675781
1467.8791916,209.699996948242
1467.8948166,162.059997558594
1467.9104416,123.76000213623
1467.9260666,95.7699966430664
1467.9416916,74.1399993896484
1467.9573166,53.310001373291
1467.9729416,29.2900009155273
1467.9885666,1.69000005722046
1468.0041916,-26.2399997711182
1468.0198166,-49.5099983215332
1468.0354416,-64.0899963378906
1468.0510666,-68.7200012207031
1468.0666916,-65.2600021362305
1468.0823166,-57.7299995422363
1468.0979416,-50.5900001525879
1468.1135666,-46.9799995422363
1468.1291916,-47.7400016784668
1468.1448166,-51.7099990844727
1468.1604416,-56.8899993896484
1468.1760666,-61.7000007629395
1468.1916916,-65.6399993896484
1468.2073166,-69.0800018310547
1468.2229416,-72.5299987792969
1468.2385666,-76.2600021362305
1468.2541916,-80.2300033569336
1468.2698166,-84.4499969482422
1468.2854416,-89.0
1468.3010666,-93.9800033569336
1468.3166916,-99.0800018310547
1468.3323166,-103.339996337891
1468.3479416,-105.400001525879
1468.3635666,-104.279998779297
1468.3791916,-99.9300003051758
1468.3948166,-93.0999984741211
1468.4104416,-84.2399978637695
1468.4260666,-71.3899993896484
1468.4416916,-48.0900001525879
1468.4573166,-5.0
1468.4729416,62.6599998474121
1468.4885666,147.309997558594
1468.5041916,229.210006713867
1468.5198166,285.950012207031
1468.5354416,303.920013427734
1468.5510666,284.070007324219
1468.5666916,239.339996337891
1468.5823166,187.199996948242
1468.5979416,141.899993896484
1468.6135666,110.019996643066
1468.6291916,90.1800003051758
1468.6448166,75.8300018310547
1468.6604416,59.4599990844727
1468.6760666,36.060001373291
1468.6916916,5.03999996185303
1468.7073166,-29.8199996948242
1468.7229416,-62.2599983215332
1468.7385666,-86.2900009155273
1468.7541916,-98.7300033569336
1468.7698166,-100.25
1468.7854416,-94.6900024414063
1468.8010666,-87.1900024414063
1468.8166916,-81.9400024414063
1468.8323166,-80.7399978637695
1468.8479416,-82.9700012207031
1468.8635666,-86.7699966430664
1468.8791916,-90.4000015258789
1468.8948166,-93.1600036621094
1468.9104416,-95.3600006103516
1468.9260666,-97.5400009155273
1468.9416916,-99.7300033569336
1468.9573166,-101.230003356934
1468.9729416,-100.949996948242
1468.9885666,-98.3499984741211
1469.0041916,-94.1600036621094
1469.0198166,-90.2900009155273
1469.0354416,-88.5699996948242
1469.0510666,-89.5699996948242
1469.0666916,-92.2900009155273
1469.0823166,-94.6900024414063
1469.0979416,-94.8099975585938
1469.1135666,-91.2900009155273
1469.1291916,-82.5100021362305
1469.1448166,-64.129997253418
1469.1604416,-27.8600006103516
1469.1760666,34.0200004577637
1469.1916916,119.620002746582
1469.2073166,212.75
1469.2229416,289.040008544922
1469.2385666,327.670013427734
1469.2541916,325.119995117188
1469.2698166,287.630004882813
1469.2854416,233.039993286133
1469.3010666,177.960006713867
1469.3166916,132.839996337891
1469.3323166,100.620002746582
1469.3479416,78.4400024414063
1469.3635666,60.4799995422363
1469.3791916,40.9500007629395
1469.3948166,16.7099990844727
1469.4104416,-11.2700004577637
1469.4260666,-38.6199989318848
1469.4416916,-60.0299987792969
1469.4573166,-72.0599975585938
1469.4729416,-74.620002746582
1469.4885666,-70.7200012207031
1469.5041916,-64.8499984741211
1469.5198166,-60.8400001525879
1469.5354416,-60.5200004577637
1469.5510666,-63.5900001525879
1469.5666916,-68.4100036621094
1469.5823166,-73.129997253418
1469.5979416,-76.370002746582
1469.6135666,-77.5400009155273
1469.6291916,-76.7200012207031
1469.6448166,-74.5400009155273
1469.6604416,-72.0999984741211
1469.6760666,-70.6800003051758
1469.6916916,-71.1900024414063
1469.7073166,-73.6699981689453
1469.7229416,-77.3499984741211
1469.7385666,-81.25
1469.7541916,-84.8600006103516
1469.7698166,-88.4300003051758
1469.7854416,-92.3499984741211
1469.8010666,-95.3899993896484
1469.8166916,-92.2399978637695
1469.8323166,-73.3899993896484
1469.8479416,-30.4099998474121
1469.8635666,35.560001373291
1469.8791916,110.269996643066
1469.8948166,172.179992675781
1469.9104416,203.899993896484
1469.9260666,200.419998168945
1469.9416916,169.509994506836
1469.9573166,125.629997253418
1469.9729416,82.3899993896484
1469.9885666,47.7999992370605
1470.0041916,23.5100002288818
1470.0198166,6.38000011444092
1470.0354416,-8.89000034332275
1470.0510666,-26.8199996948242
1470.0666916,-48.5
1470.0823166,-70.8899993896484
1470.0979416,-88.5500030517578
1470.1135666,-96.9700012207031
1470.1291916,-95.3899993896484
1470.1448166,-87.0899963378906
1470.1604416,-77.2799987792969
1470.1760666,-70.1900024414063
1470.1916916,-67.3399963378906
1470.2073166,-67.8600006103516
1470.2229416,-69.8399963378906
1470.2385666,-71.870002746582
1470.2541916,-73.5400009155273
1470.2698166,-75.0899963378906
1470.2854416,-76.7600021362305
1470.3010666,-78.7900009155273
1470.3166916,-81.3199996948242
1470.3323166,-84.1600036621094
1470.3479416,-86.6500015258789
1470.3635666,-88.4800033569336
1470.3791916,-90.0500030517578
1470.3948166,-91.6699981689453
1470.4104416,-92.4800033569336
1470.4260666,-90.8300018310547
1470.4416916,-85.4100036621094
1470.4573166,-74.9300003051758
1470.4729416,-55.6399993896484
1470.4885666,-20.0799999237061
1470.5041916,39.0499992370605
1470.5198166,120.959999084473
1470.5354416,211.960006713867
1470.5510666,289.820007324219
1470.5666916,327.670013427734
1470.5823166,327.670013427734
1470.5979416,303.670013427734
1470.6135666,248.490005493164
1470.6291916,189.539993286133
1470.6448166,139.580001831055
1470.6604416,102.919998168945
1470.6760666,76.5800018310547
1470.6916916,54.2599983215332
1470.7073166,30.3299999237061
1470.7229416,2.24000000953674
1470.7385666,-28.75
1470.7541916,-58.3400001525879
1470.7698166,-81.1800003051758
1470.7854416,-93.4899978637695
1470.8010666,-94.8499984741211
1470.8166916,-88.3899993896484
1470.8323166,-79.2600021362305
1470.8479416,-72.1500015258789
1470.8635666,-69.1699981689453
1470.8791916,-69.6999969482422
1470.8948166,-71.8399963378906
1470.9104416,-73.9800033569336
1470.9260666,-75.5
1470.9416916,-76.4000015258789
1470.9573166,-76.6699981689453
1470.9729416,-75.9400024414063
1470.9885666,-74.0
1471.0041916,-71.4400024414063
1471.0198166,-69.6399993896484
1471.0354416,-69.7600021362305
1471.0510666,-71.620002746582
1471.0666916,-73.879997253418
1471.0823166,-75.2300033569336
1471.0979416,-74.9700012207031
1471.1135666,-70.9100036621094
1471.1291916,-56.25
1471.1448166,-19.9200000762939
1471.1604416,46.1699981689453
1471.1760666,137.470001220703
1471.1916916,234.210006713867
1471.2073166,309.779998779297
1471.2229416,327.670013427734
1471.2385666,327.670013427734
1471.2541916,283.959991455078
1471.2698166,219.490005493164
1471.2854416,156.399993896484
1471.3010666,105.76000213623
1471.3166916,70.4599990844727
1471.3323166,47.1599998474121
1471.3479416,29.0799999237061
1471.3635666,9.27000045776367
1471.3791916,-15.8199996948242
1471.3948166,-44.5699996948242
1471.4104416,-71.5599975585938
1471.4260666,-91.1999969482422
1471.4416916,-100.550003051758
1471.4573166,-100.309997558594
1471.4729416,-93.9899978637695
1471.4885666,-86.1900024414063
1471.5041916,-80.7799987792969
1471.5198166,-79.6699981689453
1471.5354416,-82.629997253418
1471.5510666,-87.9899978637695
1471.5666916,-93.5
1471.5823166,-97.2900009155273
1471.5979416,-98.4499969482422
1471.6135666,-97.1399993896484
1471.6291916,-94.3099975585938
1471.6448166,-91.4100036621094
1471.6604416,-89.879997253418
1471.6760666,-90.4199981689453
1471.6916916,-92.629997253418
1471.7073166,-94.9300003051758
1471.7229416,-94.7900009155273
1471.7385666,-88.6800003051758
1471.7541916,-70.9599990844727
1471.7698166,-33.6599998474121
1471.7854416,29.3899993896484
1471.8010666,115.220001220703
1471.8166916,208.039993286133
1471.8323166,284.859985351563
1471.8479416,326.700012207031
1471.8635666,327.269989013672
1471.8791916,293.799987792969
1471.8948166,241.380004882813
1471.9104416,185.139999389648
1471.9260666,134.850006103516
1471.9416916,93.6600036621094
1471.9573166,60.0699996948242
1471.9729416,30.7399997711182
1471.9885666,2.5
1472.0041916,-26.5400009155273
1472.0198166,-56.1100006103516
1472.0354416,-83.5400009155273
1472.0510666,-104.98999786377
1472.0666916,-117.589996337891
1472.0823166,-120.860000610352
1472.0979416,-116.519996643066
1472.1135666,-107.480003356934
1472.1291916,-97.0800018310547
1472.1448166,-88.620002746582
1472.1604416,-84.6600036621094
1472.1760666,-86.0299987792969
1472.1916916,-91.2900009155273
1472.2073166,-97.3099975585938
1472.2229416,-100.75
1472.2385666,-99.5199966430664
1472.2541916,-93.5299987792969
1472.2698166,-84.5599975585938
1472.2854416,-75.379997253418
1472.3010666,-68.620002746582
1472.3166916,-66.0100021362305
1472.3323166,-68.1900024414063
1472.3479416,-74.7900009155273
1472.3635666,-84.8300018310547
1472.3791916,-96.4899978637695
1472.3948166,-105.680000305176
1472.4104416,-103.779998779297
1472.4260666,-78.4100036621094
1472.4416916,-20.2900009155273
1472.4573166,67.2099990844727
1472.4729416,165.020004272461
1472.4885666,246.149993896484
1472.5041916,289.420013427734
1472.5198166,289.040008544922
1472.5354416,255.0
1472.5510666,205.720001220703
1472.5666916,158.389999389648
1472.5823166,122.480003356934
1472.5979416,98.7300033569336
1472.6135666,81.9800033569336
1472.6291916,65.2200012207031
1472.6448166,42.8600006103516
1472.6604416,12.6899995803833
1472.6760666,-23.4200000762939
1472.6916916,-60.2099990844727
1472.7073166,-91.0199966430664
1472.7229416,-110.870002746582
1472.7385666,-118.309997558594
1472.7541916,-115.300003051758
1472.7698166,-105.889999389648
1472.7854416,-94.8300018310547
1472.8010666,-86.3499984741211
1472.8166916,-83.3600006103516
1472.8323166,-86.9899978637695
1472.8479416,-96.3399963378906
1472.8635666,-108.73999786377
1472.8791916,-120.819999694824
1472.8948166,-129.880004882813
1472.9104416,-134.669998168945
1472.9260666,-135.360000610352
1472.9416916,-133.309997558594
1472.9573166,-130.610000610352
1472.9729416,-129.160003662109
1472.9885666,-129.240005493164
1473.0041916,-129.029998779297
1473.0198166,-125.889999389648
1473.0354416,-118.069999694824
1473.0510666,-104.419998168945
1473.0666916,-81.25
1473.0823166,-40.1300010681152
1473.0979416,28.2399997711182
1473.1135666,124.339996337891
1473.1291916,232.570007324219
1473.1448166,325.890014648438
1473.1604416,327.670013427734
1473.1760666,327.670013427734
1473.1916916,327.670013427734
1473.2073166,295.839996337891
1473.2229416,231.830001831055
1473.2385666,174.210006713867
1473.2541916,127.709999084473
1473.2698166,90.5400009155273
1473.2854416,57.5999984741211
1473.3010666,23.9099998474121
1473.3166916,-12.6499996185303
1473.3323166,-50.1800003051758
1473.3479416,-83.5599975585938
1473.3635666,-107.279998779297
1473.3791916,-118.639999389648
1473.3948166,-119.129997253418
1473.4104416,-113.040000915527
1473.4260666,-104.940002441406
1473.4416916,-97.7900009155273
1473.4573166,-92.5699996948242
1473.4729416,-88.8499984741211
1473.4885666,-85.5400009155273
1473.5041916,-81.7099990844727
1473.5198166,-77.3899993896484
1473.5354416,-73.6900024414063
1473.5510666,-72.1100006103516
1473.5666916,-73.5199966430664
1473.5823166,-77.4700012207031
1473.5979416,-82.379997253418
1473.6135666,-86.2900009155273
1473.6291916,-87.9700012207031
1473.6448166,-87.4700012207031
1473.6604416,-85.7600021362305
1473.6760666,-83.6900024414063
1473.6916916,-79.8099975585938
1473.7073166,-67.629997253418
1473.7229416,-35.4199981689453
1473.7385666,27.7600002288818
1473.7541916,121.769996643066
1473.7698166,229.539993286133
1473.7854416,322.799987792969
1473.8010666,327.670013427734
1473.8166916,327.670013427734
1473.8323166,327.670013427734
1473.8479416,266.209991455078
1473.8635666,190.559997558594
1473.8791916,124.199996948242
1473.8948166,73.5800018310547
1473.9104416,36.7999992370605
1473.9260666,7.65000009536743
1473.9416916,-19.4500007629395
1473.9573166,-45.9099998474121
1473.9729416,-68.9000015258789
1473.9885666,-84.120002746582
1474.0041916,-89.0800018310547
1474.0198166,-84.75
1474.0354416,-75.2300033569336
1474.0510666,-65.9400024414063
1474.0666916,-61.310001373291
1474.0823166,-62.9900016784668
1474.0979416,-69.7900009155273
1474.1135666,-78.8300018310547
1474.1291916,-86.9599990844727
1474.1448166,-91.7600021362305
1474.1604416,-92.379997253418
1474.1760666,-89.6900024414063
1474.1916916,-85.5899963378906
1474.2073166,-81.9800033569336
1474.2229416,-80.0999984741211
1474.2385666,-80.5100021362305
1474.2541916,-83.4199981689453
1474.2698166,-88.7699966430664
1474.2854416,-96.0199966430664
1474.3010666,-103.860000610352
1474.3166916,-109.639999389648
1474.3323166,-107.849998474121
1474.3479416,-88.1399993896484
1474.3635666,-37.439998626709
1474.3791916,50.7900009155273
1474.3948166,166.259994506836
1474.4104416,281.290008544922
1474.4260666,327.670013427734
1474.4416916,327.670013427734
1474.4573166,327.670013427734
1474.4729416,327.670013427734
1474.4885666,276.579986572266
1474.5041916,213.729995727539
1474.5198166,157.940002441406
1474.5354416,111.620002746582
1474.5510666,73.2300033569336
1474.5666916,38.9900016784668
1474.5823166,4.65000009536743
1474.5979416,-32.0900001525879
1474.6135666,-69.4499969482422
1474.6291916,-101.819999694824
1474.6448166,-122.690002441406
1474.6604416,-128.289993286133
1474.6760666,-119.800003051758
1474.6916916,-102.709999084473
1474.7073166,-84.3600006103516
1474.7229416,-71.0100021362305
1474.7385666,-66.1900024414063
1474.7541916,-70.3399963378906
1474.7698166,-81.5199966430664
1474.7854416,-96.7099990844727
1474.8010666,-112.849998474121
1474.8166916,-127.23999786377
1474.8323166,-137.910003662109
1474.8479416,-144.169998168945
1474.8635666,-146.990005493164
1474.8791916,-148.550003051758
1474.8948166,-151.210006713867
1474.9104416,-156.039993286133
1474.9260666,-161.929992675781
1474.9416916,-166.100006103516
1474.9573166,-165.660003662109
1474.9729416,-157.490005493164
1474.9885666,-134.910003662109
1475.0041916,-86.0800018310547
1475.0198166,-0.740000009536743
1475.0354416,116.98999786377
1475.0510666,242.940002441406
1475.0666916,327.670013427734
1475.0823166,327.670013427734
1475.0979416,327.670013427734
1475.1135666,327.670013427734
1475.1291916,291.440002441406
1475.1448166,227.779998779297
1475.1604416,171.240005493164
1475.1760666,125.0
1475.1916916,87.3600006103516
1475.2073166,53.9099998474121
1475.2229416,19.6200008392334
1475.2385666,-18.7099990844727
1475.2541916,-60.0800018310547
1475.2698166,-98.9400024414063
1475.2854416,-128.169998168945
1475.3010666,-143.350006103516
1475.3166916,-145.020004272461
1475.3323166,-137.679992675781
1475.3479416,-127.139999389648
1475.3635666,-118.25
1475.3791916,-113.599998474121
1475.3948166,-113.23999786377
1475.4104416,-115.290000915527
1475.4260666,-117.059997558594
1475.4416916,-116.430000305176
1475.4573166,-113.069999694824
1475.4729416,-108.559997558594
1475.4885666,-105.330001831055
1475.5041916,-104.959999084473
1475.5198166,-107.389999389648
1475.5354416,-111.190002441406
1475.5510666,-114.629997253418
1475.5666916,-116.680000305176
1475.5823166,-117.220001220703
1475.5979416,-115.430000305176
1475.6135666,-105.910003662109
1475.6291916,-76.0400009155273
1475.6448166,-11.3100004196167
1475.6604416,90.8399963378906
1475.6760666,211.220001220703
1475.6916916,315.980010986328
1475.7073166,327.670013427734
1475.7229416,327.670013427734
1475.7385666,327.670013427734
1475.7541916,295.910003662109
1475.7698166,231.330001831055
1475.7854416,169.619995117188
1475.8010666,116.349998474121
1475.8166916,72.5999984741211
1475.8323166,35.8899993896484
1475.8479416,1.99000000953674
1475.8635666,-32.0800018310547
1475.8791916,-65.6900024414063
1475.8948166,-94.6900024414063
1475.9104416,-114.360000610352
1475.9260666,-122.830001831055
1475.9416916,-122.360000610352
1475.9573166,-117.889999389648
1475.9729416,-114.220001220703
1475.9885666,-114.120002746582
1476.0041916,-118.040000915527
1476.0198166,-124.919998168945
1476.0354416,-133.149993896484
1476.0510666,-141.080001831055
1476.0666916,-147.149993896484
1476.0823166,-149.720001220703
1476.0979416,-147.380004882813
1476.1135666,-140.070007324219
1476.1291916,-129.699996948242
1476.1448166,-119.180000305176
1476.1604416,-110.75
1476.1760666,-105.349998474121
1476.1916916,-103.040000915527
1476.2073166,-102.76000213623
1476.2229416,-100.150001525879
1476.2385666,-84.4100036621094
1476.2541916,-39.2700004577637
1476.2698166,46.4099998474121
1476.2854416,163.75
1476.3010666,281.730010986328
