Time(s),Value(%)
1099.0154789,-43.4900016784668
1099.0311039,-42.6800003051758
1099.0467289,-39.7700004577637
1099.0623539,-35.9599990844727
1099.0779789,-32.3400001525879
1099.0936039,-29.5200004577637
1099.1092289,-27.6200008392334
1099.1248539,-26.5799999237061
1099.1404789,-26.1800003051758
1099.1561039,-25.9400005340576
1099.1717289,-25.2700004577637
1099.1873539,-24.0
1099.2029789,-22.4099998474121
1099.2186039,-21.0499992370605
1099.2342289,-20.3799991607666
1099.2498539,-20.4200000762939
1099.2654789,-20.6399993896484
1099.2811039,-20.1000003814697
1099.2967289,-17.2900009155273
1099.3123539,-10.2399997711182
1099.3279789,2.88000011444092
1099.3436039,22.75
1099.3592289,48.5499992370605
1099.3748539,78.1800003051758
1099.3904789,108.230003356934
1099.4061039,134.300003051758
1099.4217289,152.399993896484
1099.4373539,160.490005493164
1099.4529789,158.869995117188
1099.4686039,149.399993896484
1099.4842289,134.580001831055
1099.4998539,116.699996948242
1099.5154789,97.5599975585938
1099.5311039,78.3199996948242
1099.5467289,59.5900001525879
1099.5623539,41.6399993896484
1099.5779789,24.7600002288818
1099.5936039,9.42000007629395
1099.6092289,-3.79999995231628
1099.6248539,-14.5799999237061
1099.6404789,-23.0200004577637
1099.6561039,-29.6700000762939
1099.6717289,-35.2700004577637
1099.6873539,-40.4700012207031
1099.7029789,-45.7400016784668
1099.7186039,-51.4000015258789
1099.7342289,-57.7200012207031
1099.7498539,-64.6800003051758
1099.7654789,-71.8399963378906
1099.7811039,-78.5199966430664
1099.7967289,-84.1600036621094
1099.8123539,-88.5500030517578
1099.8279789,-91.7799987792969
1099.8436039,-94.120002746582
1099.8592289,-95.9599990844727
1099.8748539,-97.7699966430664
1099.8904789,-99.6399993896484
1099.9061039,-100.889999389648
1099.9217289,-99.9899978637695
1099.9373539,-94.6100006103516
1099.9529789,-82.3099975585938
1099.9686039,-61.4599990844727
1099.9842289,-31.9699993133545
1099.9998539,3.79999995231628
1100.0154789,40.8800010681152
1100.0311039,73.3099975585938
1100.0467289,96.5100021362305
1100.0623539,108.529998779297
1100.0779789,109.98999786377
1100.0936039,103.110000610352
1100.1092289,90.6800003051758
1100.1248539,75.1800003051758
1100.1404789,58.3499984741211
1100.1561039,41.1699981689453
1100.1717289,24.1700000762939
1100.1873539,7.88000011444092
1100.2029789,-7.1399998664856
1100.2186039,-20.5499992370605
1100.2342289,-32.2400016784668
1100.2498539,-42.0999984741211
1100.2654789,-49.8600006103516
1100.2811039,-55.3899993896484
1100.2967289,-59.0499992370605
1100.3123539,-61.5200004577637
1100.3279789,-63.5299987792969
1100.3436039,-65.6600036621094
1100.3592289,-68.2799987792969
1100.3748539,-71.6100006103516
1100.3904789,-75.5
1100.4061039,-79.370002746582
1100.4217289,-82.5299987792969
1100.4373539,-84.5999984741211
1100.4529789,-85.5400009155273
1100.4686039,-85.5800018310547
1100.4842289,-85.1800003051758
1100.4998539,-84.6900024414063
1100.5154789,-83.9800033569336
1100.5311039,-82.4899978637695
1100.5467289,-79.379997253418
1100.5623539,-73.4400024414063
1100.5779789,-62.9000015258789
1100.5936039,-46.0099983215332
1100.6092289,-21.9500007629395
1100.6248539,8.38000011444092
1100.6404789,42.060001373291
1100.6561039,74.379997253418
1100.6717289,100.519996643066
1100.6873539,117.440002441406
1100.7029789,124.580001831055
1100.7186039,123.330001831055
1100.7342289,116.019996643066
1100.7498539,105.139999389648
1100.7654789,92.6900024414063
1100.7811039,79.6699981689453
1100.7967289,66.2699966430664
1100.8123539,52.5200004577637
1100.8279789,38.8499984741211
1100.8436039,26.1299991607666
1100.8592289,15.2399997711182
1100.8748539,6.55000019073486
1100.8904789,-0.100000001490116
1100.9061039,-5.09999990463257
1100.9217289,-8.77999973297119
1100.9373539,-11.6099996566772
1100.9529789,-14.1099996566772
1100.9686039,-16.7199993133545
1100.9842289,-19.7000007629395
1100.9998539,-23.0100002288818
1101.0154789,-26.2900009155273
1101.0311039,-29.0799999237061
1101.0467289,-31.1800003051758
1101.0623539,-32.7000007629395
1101.0779789,-33.8699989318848
1101.0936039,-34.7799987792969
1101.1092289,-35.4700012207031
1101.1248539,-36.0999984741211
1101.1404789,-36.7999992370605
1101.1561039,-37.2400016784668
1101.1717289,-36.3699989318848
1101.1873539,-32.7000007629395
1101.2029789,-24.7199993133545
1101.2186039,-11.4700002670288
1101.2342289,6.88000011444092
1101.2498539,28.6200008392334
1101.2654789,50.5900001525879
1101.2811039,69.4199981689453
1101.2967289,82.7300033569336
1101.3123539,89.7099990844727
1101.3279789,90.9100036621094
1101.3436039,87.7600021362305
1101.3592289,81.8000030517578
1101.3748539,74.2900009155273
1101.3904789,66.1100006103516
1101.4061039,57.6599998474121
1101.4217289,49.0099983215332
1101.4373539,40.1399993896484
1101.4529789,31.25
1101.4686039,22.7800006866455
1101.4842289,15.1300001144409
1101.4998539,8.46000003814697
1101.5154789,2.82999992370605
1101.5311039,-1.74000000953674
1101.5467289,-5.32999992370605
1101.5623539,-8.22000026702881
1101.5779789,-10.8000001907349
1101.5936039,-13.3599996566772
1101.6092289,-16.0200004577637
1101.6248539,-18.7299995422363
1101.6404789,-21.4500007629395
1101.6561039,-24.1000003814697
1101.6717289,-26.5100002288818
1101.6873539,-28.5400009155273
1101.7029789,-30.2000007629395
1101.7186039,-31.5799999237061
1101.7342289,-32.7299995422363
1101.7498539,-33.7099990844727
1101.7654789,-34.2700004577637
1101.7811039,-33.4700012207031
1101.7967289,-29.8500003814697
1101.8123539,-21.9400005340576
1101.8279789,-9.11999988555908
1101.8436039,7.57000017166138
1101.8592289,25.3700008392334
1101.8748539,40.8300018310547
1101.8904789,51.5400009155273
1101.9061039,57.2099990844727
1101.9217289,59.1500015258789
1101.9373539,58.8600006103516
1101.9529789,57.2400016784668
1101.9686039,54.5499992370605
1101.9842289,50.7000007629395
1101.9998539,45.4199981689453
1102.0154789,38.5800018310547
1102.0311039,30.4300003051758
1102.0467289,21.7199993133545
1102.0623539,13.4499998092651
1102.0779789,6.40999984741211
1102.0936039,0.920000016689301
1102.1092289,-3.19000005722046
1102.1248539,-6.36999988555908
1102.1404789,-9.06999969482422
1102.1561039,-11.6499996185303
1102.1717289,-14.25
1102.1873539,-16.9899997711182
1102.2029789,-19.9899997711182
1102.2186039,-23.2999992370605
1102.2342289,-26.8999996185303
1102.2498539,-30.6900005340576
1102.2654789,-34.5900001525879
1102.2811039,-38.5
1102.2967289,-42.2299995422363
1102.3123539,-45.4599990844727
1102.3279789,-47.939998626709
1102.3436039,-49.4300003051758
1102.3592289,-49.4000015258789
1102.3748539,-46.6699981689453
1102.3904789,-39.4799995422363
1102.4061039,-26.4300003051758
1102.4217289,-8.02999973297119
1102.4373539,12.8199996948242
1102.4529789,32.060001373291
1102.4686039,46.2599983215332
1102.4842289,53.8300018310547
1102.4998539,55.1199989318848
1102.5154789,51.7700004577637
1102.5311039,45.7700004577637
1102.5467289,38.7799987792969
1102.5623539,31.7700004577637
1102.5779789,24.8999996185303
1102.5936039,17.7700004577637
1102.6092289,10.0
1102.6248539,1.58000004291534
1102.6404789,-7.03999996185303
1102.6561039,-15.25
1102.6717289,-22.3500003814697
1102.6873539,-27.8400001525879
1102.7029789,-31.6900005340576
1102.7186039,-34.25
1102.7342289,-35.9199981689453
1102.7498539,-37.0299987792969
1102.7654789,-37.9500007629395
1102.7811039,-38.939998626709
1102.7967289,-40.0699996948242
1102.8123539,-41.2700004577637
1102.8279789,-42.4599990844727
1102.8436039,-43.5800018310547
1102.8592289,-44.5299987792969
1102.8748539,-45.1699981689453
1102.8904789,-45.4700012207031
1102.9061039,-45.5699996948242
1102.9217289,-45.5800018310547
1102.9373539,-45.1699981689453
1102.9529789,-43.3499984741211
1102.9686039,-38.4099998474121
1102.9842289,-28.5799999237061
1102.9998539,-13.1599998474121
1103.0154789,6.76999998092651
1103.0311039,28.2199993133545
1103.0467289,47.2000007629395
1103.0623539,60.4000015258789
1103.0779789,66.4300003051758
1103.0936039,65.9700012207031
1103.1092289,61.0699996948242
1103.1248539,54.0499992370605
1103.1404789,46.6800003051758
1103.1561039,39.7799987792969
1103.1717289,33.4799995422363
1103.1873539,27.5599994659424
1103.2029789,21.75
1103.2186039,15.8900003433228
1103.2342289,10.1000003814697
1103.2498539,4.71999979019165
1103.2654789,-0.0199999995529652
1103.2811039,-4.17000007629395
1103.2967289,-7.88000011444092
1103.3123539,-11.1999998092651
1103.3279789,-14.1400003433228
1103.3436039,-16.75
1103.3592289,-19.2000007629395
1103.3748539,-21.6599998474121
1103.3904789,-24.2299995422363
1103.4061039,-26.8799991607666
1103.4217289,-29.4200000762939
1103.4373539,-31.5799999237061
1103.4529789,-33.1399993896484
1103.4686039,-33.9900016784668
1103.4842289,-34.1100006103516
1103.4998539,-33.560001373291
1103.5154789,-32.6100006103516
1103.5311039,-31.2600002288818
1103.5467289,-28.7600002288818
1103.5623539,-23.6000003814697
1103.5779789,-14.2299995422363
1103.5936039,-0.159999996423721
1103.6092289,17.3199996948242
1103.6248539,35.3600006103516
1103.6404789,50.6699981689453
1103.6561039,60.7299995422363
1103.6717289,64.5
1103.6873539,62.4500007629395
1103.7029789,56.2900009155273
1103.7186039,48.0499992370605
1103.7342289,39.4000015258789
1103.7498539,31.1900005340576
1103.7654789,23.5100002288818
1103.7811039,16.0799999237061
1103.7967289,8.81999969482422
1103.8123539,2.04999995231628
1103.8279789,-3.73000001907349
1103.8436039,-8.1899995803833
1103.8592289,-11.2700004577637
1103.8748539,-13.0900001525879
1103.8904789,-13.9399995803833
1103.9061039,-14.3699998855591
1103.9217289,-14.9799995422363
1103.9373539,-16.1200008392334
1103.9529789,-17.75
1103.9686039,-19.5499992370605
1103.9842289,-21.1700000762939
1103.9998539,-22.5
1104.0154789,-23.6499996185303
1104.0311039,-24.7399997711182
1104.0467289,-25.75
1104.0623539,-26.6499996185303
1104.0779789,-27.4400005340576
1104.0936039,-28.1200008392334
1104.1092289,-28.5100002288818
1104.1248539,-28.0900001525879
1104.1404789,-25.5799999237061
1104.1561039,-18.8999996185303
1104.1717289,-6.53000020980835
1104.1873539,10.8699998855591
1104.2029789,30.2900009155273
1104.2186039,47.7299995422363
1104.2342289,59.9199981689453
1104.2498539,65.3000030517578
1104.2654789,64.2399978637695
1104.2811039,58.4799995422363
1104.2967289,50.2099990844727
1104.3123539,41.2200012207031
1104.3279789,32.4900016784668
1104.3436039,24.3700008392334
1104.3592289,16.8299999237061
1104.3748539,9.82999992370605
1104.3904789,3.38000011444092
1104.4061039,-2.26999998092651
1104.4217289,-6.71999979019165
1104.4373539,-9.55000019073486
1104.4529789,-10.6300001144409
1104.4686039,-10.3500003814697
1104.4842289,-9.51000022888184
1104.4998539,-8.89000034332275
1104.5154789,-8.92000007629395
1104.5311039,-9.53999996185303
1104.5467289,-10.3699998855591
1104.5623539,-10.8900003433228
1104.5779789,-10.6899995803833
1104.5936039,-9.55000019073486
1104.6092289,-7.34000015258789
1104.6248539,-4.03999996185303
1104.6404789,0.0700000002980232
1104.6561039,4.32999992370605
1104.6717289,7.80000019073486
1104.6873539,9.72000026702881
1104.7029789,9.85999965667725
1104.7186039,8.72999954223633
1104.7342289,7.42000007629395
1104.7498539,7.07999992370605
1104.7654789,8.46000003814697
1104.7811039,11.3599996566772
1104.7967289,14.5799999237061
1104.8123539,16.5300006866455
1104.8279789,16.0200004577637
1104.8436039,12.7600002288818
1104.8592289,7.46000003814697
1104.8748539,1.20000004768372
1104.8904789,-5.23000001907349
1104.9061039,-11.5299997329712
1104.9217289,-17.6100006103516
1104.9373539,-23.4799995422363
1104.9529789,-29.2000007629395
1104.9686039,-34.75
1104.9842289,-39.8400001525879
1104.9998539,-44.0499992370605
1105.0154789,-47.0400009155273
1105.0311039,-48.7700004577637
1105.0467289,-49.3600006103516
1105.0623539,-48.9700012207031
1105.0779789,-47.7700004577637
1105.0936039,-45.9700012207031
1105.1092289,-43.810001373291
1105.1248539,-41.6300010681152
1105.1404789,-39.7799987792969
1105.1561039,-38.5999984741211
1105.1717289,-38.2599983215332
1105.1873539,-38.560001373291
1105.2029789,-38.9599990844727
1105.2186039,-38.9000015258789
1105.2342289,-38.0299987792969
1105.2498539,-36.1699981689453
1105.2654789,-33.2299995422363
1105.2811039,-28.9799995422363
1105.2967289,-22.9400005340576
1105.3123539,-14.6199998855591
1105.3279789,-4.01999998092651
1105.3436039,8.02000045776367
1105.3592289,20.0200004577637
1105.3748539,30.3099994659424
1105.3904789,37.7200012207031
1105.4061039,42.0099983215332
1105.4217289,43.8400001525879
1105.4373539,44.2099990844727
1105.4529789,43.8600006103516
1105.4686039,43.1800003051758
1105.4842289,42.3199996948242
1105.4998539,41.3300018310547
1105.5154789,40.1800003051758
1105.5311039,38.7599983215332
1105.5467289,36.9599990844727
1105.5623539,34.7599983215332
1105.5779789,32.2200012207031
1105.5936039,29.5699996948242
1105.6092289,27.0599994659424
1105.6248539,24.8099994659424
1105.6404789,22.8299999237061
1105.6561039,21.0900001525879
1105.6717289,19.6399993896484
1105.6873539,18.4899997711182
1105.7029789,17.4500007629395
1105.7186039,16.25
1105.7342289,14.75
1105.7498539,13.1199998855591
1105.7654789,11.6099996566772
1105.7811039,10.3299999237061
1105.7967289,9.14999961853027
1105.8123539,7.90999984741211
1105.8279789,6.73000001907349
1105.8436039,6.19000005722046
1105.8592289,7.09999990463257
1105.8748539,10.0699996948242
1105.8904789,15.0200004577637
1105.9061039,21.2800006866455
1105.9217289,28.2700004577637
1105.9373539,35.8199996948242
1105.9529789,43.560001373291
1105.9686039,50.3300018310547
1105.9842289,54.7099990844727
1105.9998539,55.9199981689453
1106.0154789,54.0800018310547
1106.0311039,50.0299987792969
1106.0467289,44.8300018310547
1106.0623539,39.189998626709
1106.0779789,33.3600006103516
1106.0936039,27.3500003814697
1106.1092289,21.3400001525879
1106.1248539,15.7200002670288
1106.1404789,11.0200004577637
1106.1561039,7.48000001907349
1106.1717289,4.75
1106.1873539,2.04999995231628
1106.2029789,-1.22000002861023
1106.2186039,-5.17000007629395
1106.2342289,-9.53999996185303
1106.2498539,-13.9799995422363
1106.2654789,-18.1900005340576
1106.2811039,-22.0599994659424
1106.2967289,-25.6499996185303
1106.3123539,-29.0499992370605
1106.3279789,-32.189998626709
1106.3436039,-34.9700012207031
1106.3592289,-37.3300018310547
1106.3748539,-39.2400016784668
1106.3904789,-40.3800010681152
1106.4061039,-39.9199981689453
1106.4217289,-36.3400001525879
1106.4373539,-28.0100002288818
1106.4529789,-14.7200002670288
1106.4686039,1.38999998569489
1106.4842289,16.75
1106.4998539,28.0900001525879
1106.5154789,33.8699989318848
1106.5311039,34.3400001525879
1106.5467289,30.8199996948242
1106.5623539,24.9300003051758
1106.5779789,18.0400009155273
1106.5936039,10.9399995803833
1106.6092289,3.9300000667572
1106.6248539,-2.96000003814697
1106.6404789,-9.72999954223633
1106.6561039,-16.2399997711182
1106.6717289,-22.2199993133545
1106.6873539,-27.3899993896484
1106.7029789,-31.5200004577637
1106.7186039,-34.5499992370605
1106.7342289,-36.5800018310547
1106.7498539,-37.9300003051758
1106.7654789,-38.8899993896484
1106.7811039,-39.810001373291
1106.7967289,-40.939998626709
1106.8123539,-42.3400001525879
1106.8279789,-43.8499984741211
1106.8436039,-45.2599983215332
1106.8592289,-46.4000015258789
1106.8748539,-47.1599998474121
1106.8904789,-47.560001373291
1106.9061039,-47.7299995422363
1106.9217289,-47.7599983215332
1106.9373539,-47.6599998474121
1106.9529789,-47.0999984741211
1106.9686039,-45.1800003051758
1106.9842289,-40.6599998474121
1106.9998539,-32.6300010681152
1107.0154789,-21.2299995422363
1107.0311039,-7.78999996185303
1107.0467289,5.71000003814697
1107.0623539,17.3199996948242
1107.0779789,25.5
1107.0936039,29.4699993133545
1107.1092289,29.3600006103516
1107.1248539,26.0499992370605
1107.1404789,20.8299999237061
1107.1561039,14.9399995803833
1107.1717289,9.15999984741211
1107.1873539,3.69000005722046
1107.2029789,-1.52999997138977
1107.2186039,-6.48999977111816
1107.2342289,-10.9099998474121
1107.2498539,-14.4700002670288
1107.2654789,-17.0
1107.2811039,-18.5699996948242
1107.2967289,-19.5
1107.3123539,-20.2299995422363
1107.3279789,-21.0400009155273
1107.3436039,-21.9699993133545
1107.3592289,-22.9400005340576
1107.3748539,-23.8099994659424
1107.3904789,-24.4400005340576
1107.4061039,-24.6299991607666
1107.4217289,-24.3400001525879
1107.4373539,-23.8199996948242
1107.4529789,-23.5400009155273
1107.4686039,-23.7099990844727
1107.4842289,-23.75
1107.4998539,-22.2000007629395
1107.5154789,-17.3700008392334
1107.5311039,-7.8899998664856
1107.5467289,6.67000007629395
1107.5623539,25.1200008392334
1107.5779789,44.4000015258789
1107.5936039,60.8199996948242
1107.6092289,71.7600021362305
1107.6248539,76.4199981689453
1107.6404789,75.6800003051758
1107.6561039,71.2900009155273
1107.6717289,65.0100021362305
1107.6873539,58.0699996948242
1107.7029789,51.0900001525879
1107.7186039,44.2700004577637
1107.7342289,37.5800018310547
1107.7498539,31.0900001525879
1107.7654789,24.9400005340576
1107.7811039,19.3199996948242
1107.7967289,14.3999996185303
1107.8123539,10.289999961853
1107.8279789,7.01000022888184
1107.8436039,4.40999984741211
1107.8592289,2.23000001907349
1107.8748539,0.150000005960464
1107.8904789,-2.0699999332428
1107.9061039,-4.53000020980835
1107.9217289,-7.21000003814697
1107.9373539,-10.210000038147
1107.9529789,-13.5900001525879
1107.9686039,-17.2399997711182
1107.9842289,-20.8999996185303
1107.9998539,-24.2600002288818
1108.0154789,-27.0900001525879
1108.0311039,-29.3199996948242
1108.0467289,-31.1100006103516
1108.0623539,-32.4799995422363
1108.0779789,-33.0200004577637
1108.0936039,-32.0299987792969
1108.1092289,-29.0100002288818
1108.1248539,-23.9799995422363
1108.1404789,-17.2600002288818
1108.1561039,-9.44999980926514
1108.1717289,-1.39999997615814
1108.1873539,5.78000020980835
1108.2029789,11.1899995803833
1108.2186039,14.5100002288818
1108.2342289,15.9899997711182
1108.2498539,16.1299991607666
1108.2654789,15.3999996185303
1108.2811039,14.1599998474121
1108.2967289,12.5799999237061
1108.3123539,10.6400003433228
1108.3279789,8.28999996185303
1108.3436039,5.65000009536743
1108.3592289,2.99000000953674
1108.3748539,0.610000014305115
1108.3904789,-1.26999998092651
1108.4061039,-2.64000010490417
1108.4217289,-3.57999992370605
1108.4373539,-4.21999979019165
1108.4529789,-4.78999996185303
1108.4686039,-5.44000005722046
1108.4842289,-6.19000005722046
1108.4998539,-7.03000020980835
1108.5154789,-7.8899998664856
1108.5311039,-8.67000007629395
1108.5467289,-9.35999965667725
1108.5623539,-10.1199998855591
1108.5779789,-10.9799995422363
1108.5936039,-11.6999998092651
1108.6092289,-11.9399995803833
1108.6248539,-11.6199998855591
1108.6404789,-10.9099998474121
1108.6561039,-10.0900001525879
1108.6717289,-9.18000030517578
1108.6873539,-7.78999996185303
1108.7029789,-5.32999992370605
1108.7186039,-1.37999999523163
1108.7342289,4.32000017166138
1108.7498539,12.0100002288818
1108.7654789,21.5
1108.7811039,31.7099990844727
1108.7967289,40.8499984741211
1108.8123539,47.3199996948242
1108.8279789,50.310001373291
1108.8436039,50.0
1108.8592289,47.2999992370605
1108.8748539,43.2999992370605
1108.8904789,38.8899993896484
1108.9061039,34.5200004577637
1108.9217289,30.3199996948242
1108.9373539,26.2000007629395
1108.9529789,22.1299991607666
1108.9686039,18.1700000762939
1108.9842289,14.3900003433228
1108.9998539,10.8900003433228
1109.0154789,7.73999977111816
1109.0311039,5.01999998092651
1109.0467289,2.69000005722046
1109.0623539,0.600000023841858
1109.0779789,-1.46000003814697
1109.0936039,-3.69000005722046
1109.1092289,-6.01000022888184
1109.1248539,-8.26000022888184
1109.1404789,-10.289999961853
1109.1561039,-12.0699996948242
1109.1717289,-13.5799999237061
1109.1873539,-14.8199996948242
1109.2029789,-15.8100004196167
1109.2186039,-16.6800003051758
1109.2342289,-17.5200004577637
1109.2498539,-18.3600006103516
1109.2654789,-19.1700000762939
1109.2811039,-19.7900009155273
1109.2967289,-20.0100002288818
1109.3123539,-19.4300003051758
1109.3279789,-17.25
1109.3436039,-12.3999996185303
1109.3592289,-4.34999990463257
1109.3748539,6.1100001335144
