Time(s),Value(%)
679.0047644,58.4300003051758
679.0203894,54.7299995422363
679.0360144,50.6300010681152
679.0516394,46.6399993896484
679.0672644,42.2400016784668
679.0828894,36.3499984741211
679.0985144,28.4200000762939
679.1141394,19.0900001525879
679.1297644,9.86999988555908
679.1453894,2.17000007629395
679.1610144,-3.38000011444092
679.1766394,-7.01999998092651
679.1922644,-9.44999980926514
679.2078894,-11.5100002288818
679.2235144,-13.8999996185303
679.2391394,-16.8899993896484
679.2547644,-20.3700008392334
679.2703894,-24.0599994659424
679.2860144,-27.5200004577637
679.3016394,-30.0400009155273
679.3172644,-30.9899997711182
679.3328894,-30.4300003051758
679.3485144,-29.2600002288818
679.3641394,-28.5400009155273
679.3797644,-28.6499996185303
679.3953894,-29.0
679.4110144,-28.6100006103516
679.4266394,-26.8099994659424
679.4422644,-23.5300006866455
679.4578894,-19.2900009155273
679.4735144,-15.1999998092651
679.4891394,-12.5299997329712
679.5047644,-11.7600002288818
679.5203894,-11.8199996948242
679.5360144,-10.5200004577637
679.5516394,-5.65999984741211
679.5672644,3.66000008583069
679.5828894,16.5699996948242
679.5985144,30.7700004577637
679.6141394,43.5499992370605
679.6297644,52.7999992370605
679.6453894,57.6199989318848
679.6610144,58.4199981689453
679.6766394,56.4000015258789
679.6922644,52.7799987792969
679.7078894,48.1199989318848
679.7235144,42.2099990844727
679.7391394,34.5499992370605
679.7547644,25.0900001525879
679.7703894,14.7299995422363
679.7860144,4.96000003814697
679.8016394,-2.85999989509583
679.8172644,-8.14000034332275
679.8328894,-10.9399995803833
679.8485144,-11.8199996948242
679.8641394,-11.8199996948242
679.8797644,-12.1499996185303
679.8953894,-13.5100002288818
679.9110144,-15.7200002670288
679.9266394,-18.0699996948242
679.9422644,-20.1000003814697
679.9578894,-21.8600006103516
679.9735144,-23.5599994659424
679.9891394,-25.1599998474121
680.0047644,-26.3199996948242
680.0203894,-26.8199996948242
680.0360144,-26.75
680.0516394,-26.5
680.0672644,-26.4699993133545
680.0828894,-26.6000003814697
680.0985144,-26.5200004577637
680.1141394,-25.9500007629395
680.1297644,-24.8700008392334
680.1453894,-23.0499992370605
680.1610144,-19.9400005340576
680.1766394,-14.8800001144409
680.1922644,-7.51999998092651
680.2078894,1.94000005722046
680.2235144,12.8999996185303
680.2391394,24.3199996948242
680.2547644,34.75
680.2703894,42.9099998474121
680.2860144,48.1100006103516
680.3016394,50.2900009155273
680.3172644,49.6399993896484
680.3328894,46.5900001525879
680.3485144,41.9900016784668
680.3641394,36.7099990844727
680.3797644,31.0200004577637
680.3953894,24.6399993896484
680.4110144,17.3700008392334
680.4266394,9.44999980926514
680.4422644,1.49000000953674
680.4578894,-5.82000017166138
680.4735144,-11.8000001907349
680.4891394,-15.8400001525879
680.5047644,-17.6800003051758
680.5203894,-17.6599998474121
680.5360144,-16.6200008392334
680.5516394,-15.6800003051758
680.5672644,-15.8299999237061
680.5828894,-17.4500007629395
680.5985144,-20.1700000762939
680.6141394,-23.1700000762939
680.6297644,-25.5400009155273
680.6453894,-26.5900001525879
680.6610144,-26.1499996185303
680.6766394,-24.7399997711182
680.6922644,-23.3500003814697
680.7078894,-22.8199996948242
680.7235144,-23.3899993896484
680.7391394,-24.6000003814697
680.7547644,-25.3700008392334
680.7703894,-24.7000007629395
680.7860144,-22.1499996185303
680.8016394,-17.5400009155273
680.8172644,-10.3299999237061
680.8328894,0.0299999993294477
680.8485144,13.3699998855591
680.8641394,28.2900009155273
680.8797644,42.4099998474121
680.8953894,53.1500015258789
680.9110144,58.8699989318848
680.9266394,59.3899993896484
680.9422644,55.8499984741211
680.9578894,49.9599990844727
680.9735144,43.3899993896484
680.9891394,37.4099998474121
681.0047644,32.5099983215332
681.0203894,28.1299991607666
681.0360144,22.9899997711182
681.0516394,16.1299991607666
681.0672644,7.94000005722046
681.0828894,0.0799999982118607
681.0985144,-5.73999977111816
681.1141394,-9.02999973297119
681.1297644,-10.789999961853
681.1453894,-12.7600002288818
681.1610144,-16.0699996948242
681.1766394,-20.3999996185303
681.1922644,-24.4599990844727
681.2078894,-27.0799999237061
681.2235144,-27.9799995422363
681.2391394,-27.8099994659424
681.2547644,-27.6200008392334
681.2703894,-28.1399993896484
681.2860144,-29.4099998474121
681.3016394,-30.8299999237061
681.3172644,-31.6800003051758
681.3328894,-31.7099990844727
681.3485144,-31.1200008392334
681.3641394,-30.1599998474121
681.3797644,-28.9300003051758
681.3953894,-27.4500007629395
681.4110144,-25.6000003814697
681.4266394,-22.6900005340576
681.4422644,-17.5699996948242
681.4578894,-9.36999988555908
681.4735144,1.87000000476837
681.4891394,15.1199998855591
681.5047644,28.6700000762939
681.5203894,40.689998626709
681.5360144,49.5699996948242
681.5516394,54.4099998474121
681.5672644,55.3199996948242
681.5828894,53.4300003051758
681.5985144,50.2799987792969
681.6141394,46.9599990844727
681.6297644,43.6599998474121
681.6453894,39.6699981689453
681.6610144,33.8800010681152
681.6766394,25.6700000762939
681.6922644,15.6499996185303
681.7078894,5.40999984741211
681.7235144,-3.35999989509583
681.7391394,-9.73999977111816
681.7547644,-13.9899997711182
681.7703894,-17.2999992370605
681.7860144,-20.9500007629395
681.8016394,-25.5200004577637
681.8172644,-30.4899997711182
681.8328894,-34.5999984741211
681.8485144,-36.7299995422363
681.8641394,-36.7299995422363
681.8797644,-35.4199981689453
681.8953894,-33.7799987792969
681.9110144,-32.3300018310547
681.9266394,-31.3400001525879
681.9422644,-31.0900001525879
681.9578894,-31.8500003814697
681.9735144,-33.3800010681152
681.9891394,-34.9799995422363
682.0047644,-35.9199981689453
682.0203894,-35.75
682.0360144,-34.1500015258789
682.0516394,-30.6700000762939
682.0672644,-24.7399997711182
682.0828894,-15.8500003814697
682.0985144,-3.95000004768372
682.1141394,10.039999961853
682.1297644,24.1200008392334
682.1453894,35.9000015258789
682.1610144,43.8199996948242
682.1766394,47.7799987792969
682.1922644,48.9700012207031
682.2078894,49.0
682.2235144,48.7200012207031
682.2391394,47.810001373291
682.2547644,45.4000015258789
682.2703894,40.8499984741211
682.2860144,33.9199981689453
682.3016394,24.5100002288818
682.3172644,12.9799995422363
682.3328894,0.550000011920929
682.3485144,-10.7200002670288
682.3641394,-18.7800006866455
682.3797644,-22.5699996948242
682.3953894,-22.5400009155273
682.4110144,-20.4200000762939
682.4266394,-18.3299999237061
682.4422644,-17.7099990844727
682.4578894,-18.9400005340576
682.4735144,-21.5900001525879
682.4891394,-24.8999996185303
682.5047644,-28.0300006866455
682.5203894,-30.2700004577637
682.5360144,-31.2099990844727
682.5516394,-30.9699993133545
682.5672644,-30.0100002288818
682.5828894,-28.8400001525879
682.5985144,-27.7999992370605
682.6141394,-27.1100006103516
682.6297644,-26.7800006866455
682.6453894,-26.4500007629395
682.6610144,-25.4500007629395
682.6766394,-23.0599994659424
682.6922644,-18.4300003051758
682.7078894,-10.8000001907349
682.7235144,-0.0199999995529652
682.7391394,12.9300003051758
682.7547644,26.2900009155273
682.7703894,38.0999984741211
682.7860144,47.0400009155273
682.8016394,52.75
682.8172644,55.6199989318848
682.8328894,56.25
682.8485144,54.9500007629395
682.8641394,51.6500015258789
682.8797644,46.2400016784668
682.8953894,39.0299987792969
682.9110144,30.5699996948242
682.9266394,21.4699993133545
682.9422644,12.4899997711182
682.9578894,4.48999977111816
682.9735144,-1.80999994277954
682.9891394,-6.09999990463257
683.0047644,-8.36999988555908
683.0203894,-9.01000022888184
683.0360144,-8.98999977111816
683.0516394,-9.56999969482422
683.0672644,-11.6199998855591
683.0828894,-15.2299995422363
683.0985144,-19.7399997711182
683.1141394,-24.0
683.1297644,-26.8099994659424
683.1453894,-27.5300006866455
683.1610144,-26.3899993896484
683.1766394,-24.3700008392334
683.1922644,-22.5400009155273
683.2078894,-21.5900001525879
683.2235144,-21.6900005340576
683.2391394,-22.5799999237061
683.2547644,-23.6800003051758
683.2703894,-24.3099994659424
683.2860144,-23.9699993133545
683.3016394,-22.3500003814697
683.3172644,-18.7999992370605
683.3328894,-12.2200002670288
683.3485144,-1.87999999523163
683.3641394,11.6700000762939
683.3797644,26.4500007629395
683.3953894,39.8600006103516
683.4110144,49.8300018310547
683.4266394,55.560001373291
683.4422644,57.4599990844727
683.4578894,56.5299987792969
683.4735144,53.6800003051758
683.4891394,49.5099983215332
683.5047644,44.2599983215332
683.5203894,37.9300003051758
683.5360144,30.5699996948242
683.5516394,22.4500007629395
683.5672644,14.0500001907349
683.5828894,5.82999992370605
683.5985144,-1.72000002861023
683.6141394,-8.10000038146973
683.6297644,-12.8500003814697
683.6453894,-15.8800001144409
683.6610144,-17.7299995422363
683.6766394,-19.3799991607666
683.6922644,-21.7099990844727
683.7078894,-24.8500003814697
683.7235144,-28.2700004577637
683.7391394,-31.2999992370605
683.7547644,-33.5800018310547
683.7703894,-34.9099998474121
683.7860144,-35.2200012207031
683.8016394,-34.939998626709
683.8172644,-34.8699989318848
683.8328894,-35.5299987792969
683.8485144,-36.6699981689453
683.8641394,-37.3800010681152
683.8797644,-36.8899993896484
683.8953894,-34.9000015258789
683.9110144,-31.2199993133545
683.9266394,-25.1499996185303
683.9422644,-15.6400003433228
683.9578894,-2.17000007629395
683.9735144,14.4200000762939
683.9891394,31.8899993896484
684.0047644,47.2700004577637
684.0203894,58.1300010681152
684.0360144,63.4300003051758
684.0516394,63.7900009155273
684.0672644,61.0200004577637
684.0828894,57.0499992370605
684.0985144,53.1699981689453
684.1141394,49.6399993896484
684.1297644,45.7799987792969
684.1453894,40.4000015258789
684.1610144,32.6199989318848
684.1766394,22.5300006866455
684.1922644,11.2700004577637
684.2078894,0.419999986886978
684.2235144,-8.61999988555908
684.2391394,-14.9799995422363
684.2547644,-18.4599990844727
684.2703894,-19.75
684.2860144,-20.2000007629395
684.3016394,-21.1900005340576
684.3172644,-23.3400001525879
684.3328894,-26.2099990844727
684.3485144,-28.8700008392334
684.3641394,-30.6000003814697
684.3797644,-31.2900009155273
684.3953894,-31.3500003814697
684.4110144,-31.4099998474121
684.4266394,-31.9799995422363
684.4422644,-33.1100006103516
684.4578894,-34.3600006103516
684.4735144,-35.0
684.4891394,-34.4099998474121
684.5047644,-32.4900016784668
684.5203894,-29.3500003814697
684.5360144,-24.7099990844727
684.5516394,-17.8700008392334
684.5672644,-8.30000019073486
684.5828894,3.60999989509583
684.5985144,16.6599998474121
684.6141394,29.4899997711182
684.6297644,41.0499992370605
684.6453894,50.5
684.6610144,56.9900016784668
684.6766394,59.8699989318848
684.6922644,59.1800003051758
684.7078894,55.8699989318848
684.7235144,51.2400016784668
684.7391394,46.1699981689453
684.7547644,40.5900001525879
684.7703894,33.7900009155273
684.7860144,25.1200008392334
684.8016394,14.6599998474121
684.8172644,3.52999997138977
684.8328894,-6.51000022888184
684.8485144,-14.1000003814697
684.8641394,-18.8700008392334
684.8797644,-21.3899993896484
684.8953894,-22.5900001525879
684.9110144,-23.1800003051758
684.9266394,-23.4799995422363
684.9422644,-23.8099994659424
684.9578894,-24.6700000762939
684.9735144,-26.3700008392334
684.9891394,-28.5200004577637
685.0047644,-30.3700008392334
685.0203894,-31.4899997711182
685.0360144,-31.9899997711182
685.0516394,-32.2799987792969
685.0672644,-32.7599983215332
685.0828894,-33.6500015258789
685.0985144,-34.8600006103516
685.1141394,-35.9000015258789
685.1297644,-36.0999984741211
685.1453894,-34.6699981689453
685.1610144,-30.8299999237061
685.1766394,-23.7900009155273
685.1922644,-12.8999996185303
685.2078894,1.75999999046326
685.2235144,18.7000007629395
685.2391394,35.1699981689453
685.2547644,48.5800018310547
685.2703894,57.6100006103516
685.2860144,62.3600006103516
685.3016394,63.75
685.3172644,62.7299995422363
685.3328894,59.8600006103516
685.3485144,55.439998626709
685.3641394,49.5900001525879
685.3797644,42.0699996948242
685.3953894,32.3899993896484
685.4110144,20.5499992370605
685.4266394,7.55999994277954
685.4422644,-4.80999994277954
685.4578894,-14.7700004577637
685.4735144,-21.0900001525879
685.4891394,-23.4099998474121
685.5047644,-22.4200000762939
685.5203894,-19.5100002288818
685.5360144,-16.3899993896484
685.5516394,-14.6000003814697
685.5672644,-15.0699996948242
685.5828894,-17.9200000762939
685.5985144,-22.4799995422363
685.6141394,-27.7099990844727
685.6297644,-32.5400009155273
685.6453894,-36.0699996948242
685.6610144,-37.7700004577637
685.6766394,-37.6800003051758
685.6922644,-36.2400016784668
685.7078894,-34.1199989318848
685.7235144,-31.8600006103516
685.7391394,-29.7299995422363
685.7547644,-27.3899993896484
685.7703894,-23.6299991607666
685.7860144,-16.7700004577637
685.8016394,-5.76999998092651
685.8172644,8.69999980926514
685.8328894,24.4200000762939
685.8485144,38.6100006103516
685.8641394,49.2900009155273
685.8797644,55.8199996948242
685.8953894,58.6300010681152
685.9110144,58.6399993896484
685.9266394,57.0
685.9422644,54.7799987792969
685.9578894,52.2900009155273
685.9735144,48.7299995422363
685.9891394,42.6800003051758
686.0047644,33.3800010681152
686.0203894,21.5900001525879
686.0360144,9.46000003814697
686.0516394,-0.699999988079071
686.0672644,-7.55999994277954
686.0828894,-11.1300001144409
686.0985144,-12.4799995422363
686.1141394,-13.1999998092651
686.1297644,-14.6899995803833
686.1453894,-17.6599998474121
686.1610144,-21.8999996185303
686.1766394,-26.6599998474121
686.1922644,-31.0100002288818
686.2078894,-34.189998626709
686.2235144,-35.9099998474121
686.2391394,-36.4799995422363
686.2547644,-36.6699981689453
686.2703894,-37.060001373291
686.2860144,-37.7099990844727
686.3016394,-38.3300018310547
686.3172644,-38.5400009155273
686.3328894,-37.8699989318848
686.3485144,-35.8800010681152
686.3641394,-32.3800010681152
686.3797644,-27.2199993133545
686.3953894,-19.7700004577637
686.4110144,-9.1899995803833
686.4266394,4.55999994277954
686.4422644,20.1800003051758
686.4578894,35.4099998474121
686.4735144,48.0499992370605
686.4891394,56.6300010681152
686.5047644,60.5
686.5203894,59.8899993896484
686.5360144,56.1199989318848
686.5516394,51.0699996948242
686.5672644,46.0999984741211
686.5828894,41.189998626709
686.5985144,35.2200012207031
686.6141394,27.1499996185303
686.6297644,17.0
686.6453894,5.90000009536743
686.6610144,-4.63000011444092
686.6766394,-13.4200000762939
686.6922644,-19.8799991607666
686.7078894,-24.0400009155273
686.7235144,-26.4899997711182
686.7391394,-28.0400009155273
686.7547644,-29.3700008392334
686.7703894,-30.7299995422363
686.7860144,-31.9599990844727
686.8016394,-32.7400016784668
686.8172644,-32.9300003051758
686.8328894,-32.7000007629395
686.8485144,-32.5699996948242
686.8641394,-33.0099983215332
686.8797644,-34.25
686.8953894,-36.0999984741211
686.9110144,-38.0200004577637
686.9266394,-39.2599983215332
686.9422644,-39.0800018310547
686.9578894,-36.7200012207031
686.9735144,-31.3299999237061
686.9891394,-22.0400009155273
687.0047644,-8.48999977111816
687.0203894,8.47000026702881
687.0360144,26.7000007629395
687.0516394,43.2000007629395
687.0672644,55.3600006103516
687.0828894,62.0099983215332
687.0985144,63.7599983215332
687.1141394,62.4000015258789
687.1297644,59.7799987792969
687.1453894,56.8899993896484
687.1610144,53.8600006103516
687.1766394,50.2400016784668
687.1922644,45.2200012207031
687.2078894,38.0299987792969
687.2235144,28.6499996185303
687.2391394,18.1100006103516
687.2547644,7.8899998664856
687.2703894,-0.649999976158142
687.2860144,-6.80999994277954
687.3016394,-10.6999998092651
687.3172644,-13.25
687.3328894,-15.8299999237061
687.3485144,-19.6299991607666
687.3641394,-25.25
687.3797644,-32.4799995422363
687.3953894,-40.3499984741211
687.4110144,-47.3600006103516
687.4266394,-51.9500007629395
687.4422644,-53.1800003051758
687.4578894,-51.0099983215332
687.4735144,-46.4799995422363
687.4891394,-41.3800010681152
687.5047644,-37.5299987792969
687.5203894,-35.6500015258789
687.5360144,-34.8499984741211
687.5516394,-33.1199989318848
687.5672644,-28.3299999237061
687.5828894,-19.2600002288818
687.5985144,-6.01999998092651
687.6141394,10.1700000762939
687.6297644,27.4599990844727
687.6453894,43.7700004577637
687.6610144,57.1300010681152
687.6766394,65.8199996948242
687.6922644,68.9599990844727
687.7078894,66.9300003051758
687.7235144,61.3400001525879
687.7391394,54.1500015258789
687.7547644,46.8699989318848
687.7703894,39.939998626709
687.7860144,32.7200012207031
687.8016394,24.3299999237061
687.8172644,14.7299995422363
687.8328894,4.84999990463257
687.8485144,-4.1100001335144
687.8641394,-11.3900003433228
687.8797644,-16.7199993133545
687.8953894,-20.3999996185303
687.9110144,-23.2800006866455
687.9266394,-26.3600006103516
687.9422644,-30.1100006103516
687.9578894,-34.1399993896484
687.9735144,-37.4700012207031
687.9891394,-39.3499984741211
688.0047644,-39.9099998474121
688.0203894,-40.0499992370605
688.0360144,-40.5099983215332
688.0516394,-41.3899993896484
688.0672644,-42.4700012207031
688.0828894,-43.7099990844727
688.0985144,-45.1800003051758
688.1141394,-46.5099983215332
688.1297644,-46.5400009155273
688.1453894,-43.4099998474121
688.1610144,-35.3499984741211
688.1766394,-21.8500003814697
688.1922644,-4.15999984741211
688.2078894,15.0
688.2235144,32.4199981689453
688.2391394,45.439998626709
688.2547644,52.8600006103516
688.2703894,55.189998626709
688.2860144,54.0299987792969
688.3016394,51.2099990844727
688.3172644,48.0499992370605
688.3328894,45.0499992370605
688.3485144,41.7000007629395
688.3641394,37.0299987792969
688.3797644,30.3099994659424
688.3953894,21.6000003814697
688.4110144,11.7799997329712
688.4266394,2.05999994277954
688.4422644,-6.32000017166138
688.4578894,-12.5
688.4735144,-16.2700004577637
688.4891394,-18.1900005340576
688.5047644,-19.3700008392334
688.5203894,-20.9899997711182
688.5360144,-23.7999992370605
688.5516394,-27.8099994659424
688.5672644,-32.4099998474121
688.5828894,-36.6599998474121
688.5985144,-39.8600006103516
688.6141394,-41.7400016784668
688.6297644,-42.3699989318848
688.6453894,-41.8600006103516
688.6610144,-40.4599990844727
688.6766394,-38.5900001525879
688.6922644,-36.4900016784668
688.7078894,-33.689998626709
688.7235144,-28.9400005340576
688.7391394,-20.8700008392334
688.7547644,-8.94999980926514
688.7703894,6.05000019073486
688.7860144,22.3500003814697
688.8016394,37.689998626709
688.8172644,49.9700012207031
688.8328894,57.810001373291
688.8485144,60.9300003051758
688.8641394,60.1800003051758
688.8797644,57.0999984741211
688.8953894,53.1199989318848
688.9110144,48.939998626709
688.9266394,44.2400016784668
688.9422644,38.1399993896484
688.9578894,30.0
688.9735144,20.0
688.9891394,9.23999977111816
689.0047644,-0.709999978542328
689.0203894,-8.39999961853027
689.0360144,-13.0799999237061
689.0516394,-15.0900001525879
689.0672644,-15.6899995803833
689.0828894,-16.3500003814697
689.0985144,-18.0599994659424
689.1141394,-20.8500003814697
689.1297644,-23.8999996185303
689.1453894,-26.1200008392334
689.1610144,-26.9899997711182
689.1766394,-26.8099994659424
689.1922644,-26.3199996948242
689.2078894,-26.2700004577637
689.2235144,-26.9300003051758
689.2391394,-27.9400005340576
689.2547644,-28.3899993896484
689.2703894,-27.2199993133545
689.2860144,-23.4599990844727
689.3016394,-16.3400001525879
689.3172644,-5.42999982833862
689.3328894,8.96000003814697
689.3485144,25.3899993896484
689.3641394,41.3899993896484
689.3797644,54.4900016784668
689.3953894,63.310001373291
689.4110144,67.8600006103516
689.4266394,69.1800003051758
689.4422644,68.629997253418
689.4578894,67.1500015258789
689.4735144,65.0199966430664
689.4891394,62.0
689.5047644,57.6800003051758
689.5203894,51.5699996948242
689.5360144,43.189998626709
689.5516394,32.4700012207031
689.5672644,20.1000003814697
689.5828894,7.51999998092651
689.5985144,-3.4300000667572
689.6141394,-11.2700004577637
689.6297644,-15.539999961853
689.6453894,-17.1800003051758
689.6610144,-17.9300003051758
689.6766394,-19.2999992370605
