Time(s),Value(%)
939.0125088,44.5499992370605
939.0281338,72.2200012207031
939.0437588,95.2600021362305
939.0593838,111.830001831055
939.0750088,121.589996337891
939.0906338,125.529998779297
939.1062588,125.230003356934
939.1218838,121.919998168945
939.1375088,116.150001525879
939.1531338,108.089996337891
939.1687588,97.8399963378906
939.1843838,85.7900009155273
939.2000088,72.6800003051758
939.2156338,59.4599990844727
939.2312588,46.9799995422363
939.2468838,35.6599998474121
939.2625088,25.4200000762939
939.2781338,15.8199996948242
939.2937588,6.46000003814697
939.3093838,-2.91000008583069
939.3250088,-12.4200000762939
939.3406338,-22.0900001525879
939.3562588,-31.75
939.3718838,-41.0299987792969
939.3875088,-49.4900016784668
939.4031338,-56.7999992370605
939.4187588,-62.7900009155273
939.4343838,-67.4800033569336
939.4500088,-71.1699981689453
939.4656338,-74.1699981689453
939.4812588,-76.5999984741211
939.4968838,-78.370002746582
939.5125088,-79.3399963378906
939.5281338,-79.4700012207031
939.5437588,-78.9400024414063
939.5593838,-77.9700012207031
939.5750088,-76.5899963378906
939.5906338,-74.5899963378906
939.6062588,-71.4599990844727
939.6218838,-66.2799987792969
939.6375088,-57.8800010681152
939.6531338,-44.9500007629395
939.6687588,-26.3500003814697
939.6843838,-1.72000002861023
939.7000088,28.0499992370605
939.7156338,60.2400016784668
939.7312588,90.370002746582
939.7468838,113.959999084473
939.7625088,128.470001220703
939.7781338,134.100006103516
939.7937588,133.100006103516
939.8093838,128.259994506836
939.8250088,121.309997558594
939.8406338,112.589996337891
939.8562588,101.790000915527
939.8718838,89.0400009155273
939.8875088,75.1699981689453
939.9031338,61.0900001525879
939.9187588,47.5299987792969
939.9343838,34.9300003051758
939.9500088,23.4099998474121
939.9656338,12.8000001907349
939.9812588,2.84999990463257
939.9968838,-6.57000017166138
940.0125088,-15.6400003433228
940.0281338,-24.6000003814697
940.0437588,-33.6199989318848
940.0593838,-42.7099990844727
940.0750088,-51.5200004577637
940.0906338,-59.1699981689453
940.1062588,-64.5699996948242
940.1218838,-66.8399963378906
940.1375088,-65.7799987792969
940.1531338,-62.2900009155273
940.1687588,-58.4900016784668
940.1843838,-57.6800003051758
940.2000088,-63.3300018310547
940.2156338,-77.2099990844727
940.2312588,-98.2300033569336
940.2468838,-123.48999786377
940.2625088,-150.25
940.2781338,-177.229995727539
940.2937588,-204.330001831055
940.3093838,-231.550003051758
940.3250088,-257.5
940.3406338,-278.540008544922
940.3562588,-290.209991455078
940.3718838,-290.5
940.3875088,-280.880004882813
940.4031338,-264.279998779297
940.4187588,-242.990005493164
940.4343838,-218.190002441406
940.4500088,-190.570007324219
940.4656338,-161.199996948242
940.4812588,-131.5
940.4968838,-102.680000305176
940.5125088,-75.4499969482422
940.5281338,-50.1199989318848
940.5437588,-26.5900001525879
940.5593838,-4.44999980926514
940.5750088,16.8199996948242
940.5906338,37.5099983215332
940.6062588,57.4099998474121
940.6218838,76.1699981689453
940.6375088,93.870002746582
940.6531338,110.730003356934
940.6687588,126.620002746582
940.6843838,140.800003051758
940.7000088,151.720001220703
940.7156338,157.199996948242
940.7312588,155.929992675781
940.7468838,149.139999389648
940.7625088,140.539993286133
940.7781338,134.850006103516
940.7937588,135.75
940.8093838,143.539993286133
940.8250088,154.740005493164
940.8406338,164.550003051758
940.8562588,168.179992675781
940.8718838,159.580001831055
940.8875088,131.860000610352
940.9031338,80.4100036621094
940.9187588,7.5
940.9343838,-74.3199996948242
940.9500088,-145.520004272461
940.9656338,-188.850006103516
940.9812588,-197.630004882813
940.9968838,-176.660003662109
941.0125088,-137.199996948242
941.0281338,-90.6999969482422
941.0437588,-44.5499992370605
941.0593838,-0.779999971389771
941.0750088,42.4799995422363
941.0906338,88.9800033569336
941.1062588,143.440002441406
941.1218838,210.369995117188
941.1375088,289.450012207031
941.1531338,327.670013427734
941.1687588,327.670013427734
941.1843838,327.670013427734
941.2000088,327.670013427734
941.2156338,327.670013427734
941.2312588,327.670013427734
941.2468838,327.670013427734
941.2625088,327.670013427734
941.2781338,327.670013427734
941.2937588,327.670013427734
941.3093838,327.670013427734
941.3250088,327.670013427734
941.3406338,327.670013427734
941.3562588,327.670013427734
941.3718838,299.390014648438
941.3875088,268.380004882813
941.4031338,244.410003662109
941.4187588,225.779998779297
941.4343838,209.360000610352
941.4500088,191.960006713867
941.4656338,171.449996948242
941.4812588,147.009994506836
941.4968838,118.559997558594
941.5125088,86.6600036621094
941.5281338,52.6699981689453
941.5437588,18.5799999237061
941.5593838,-13.789999961853
941.5750088,-43.2799987792969
941.5906338,-69.3399963378906
941.6062588,-91.9300003051758
941.6218838,-111.470001220703
941.6375088,-128.660003662109
941.6531338,-144.25
941.6687588,-158.990005493164
941.6843838,-173.419998168945
941.7000088,-187.690002441406
941.7156338,-201.679992675781
941.7312588,-215.220001220703
941.7468838,-228.169998168945
941.7625088,-240.25
941.7781338,-250.919998168945
941.7937588,-259.309997558594
941.8093838,-264.190002441406
941.8250088,-264.070007324219
941.8406338,-257.940002441406
941.8562588,-246.020004272461
941.8718838,-229.880004882813
941.8875088,-212.320007324219
941.9031338,-196.630004882813
941.9187588,-185.410003662109
941.9343838,-179.479995727539
941.9500088,-178.070007324219
941.9656338,-179.830001831055
941.9812588,-183.929992675781
941.9968838,-190.520004272461
942.0125088,-200.240005493164
942.0281338,-213.300003051758
942.0437588,-228.440002441406
942.0593838,-242.610000610352
942.0750088,-251.589996337891
942.0906338,-252.190002441406
942.1062588,-244.929992675781
942.1218838,-234.559997558594
942.1375088,-227.399993896484
942.1531338,-227.839996337891
942.1687588,-236.520004272461
942.1843838,-250.449996948242
942.2000088,-265.010009765625
942.2156338,-276.350006103516
942.2312588,-283.040008544922
942.2468838,-285.540008544922
942.2625088,-284.769989013672
942.2781338,-281.230010986328
942.2937588,-274.950012207031
942.3093838,-265.75
942.3250088,-253.559997558594
942.3406338,-238.660003662109
942.3562588,-221.830001831055
942.3718838,-204.110000610352
942.3875088,-186.25
942.4031338,-168.419998168945
942.4187588,-150.470001220703
942.4343838,-132.259994506836
942.4500088,-113.769996643066
942.4656338,-95.1800003051758
942.4812588,-76.9300003051758
942.4968838,-59.2799987792969
942.5125088,-41.5699996948242
942.5281338,-21.9699993133545
942.5437588,1.66999995708466
942.5593838,30.4599990844727
942.5750088,63.6800003051758
942.5906338,98.9499969482422
942.6062588,132.970001220703
942.6218838,162.580001831055
942.6375088,185.550003051758
942.6531338,200.990005493164
942.6687588,209.669998168945
942.6843838,213.679992675781
942.7000088,215.289993286133
942.7156338,215.889999389648
942.7312588,215.679992675781
942.7468838,213.990005493164
942.7625088,210.009994506836
942.7781338,203.479995727539
942.7937588,194.970001220703
942.8093838,185.470001220703
942.8250088,176.110000610352
942.8406338,167.820007324219
942.8562588,161.240005493164
942.8718838,156.589996337891
942.8875088,153.470001220703
942.9031338,150.820007324219
942.9187588,147.440002441406
942.9343838,142.639999389648
942.9500088,136.570007324219
942.9656338,129.860000610352
942.9812588,123.190002441406
942.9968838,117.019996643066
943.0125088,111.650001525879
943.0281338,107.449996948242
943.0437588,104.930000305176
943.0593838,104.410003662109
943.0750088,105.629997253418
943.0906338,107.730003356934
943.1062588,109.639999389648
943.1218838,110.430000305176
943.1375088,109.360000610352
943.1531338,105.720001220703
943.1687588,99.0400009155273
943.1843838,89.379997253418
943.2000088,77.629997253418
943.2156338,65.8600006103516
943.2312588,57.189998626709
943.2468838,54.810001373291
943.2625088,60.7099990844727
943.2781338,74.7200012207031
943.2937588,94.2399978637695
943.3093838,115.0
943.3250088,132.479995727539
943.3406338,143.289993286133
943.3562588,146.009994506836
943.3718838,141.279998779297
943.3875088,130.929992675781
943.4031338,116.819999694824
943.4187588,100.220001220703
943.4343838,81.8399963378906
943.4500088,62.0999984741211
943.4656338,41.4000015258789
943.4812588,20.2700004577637
943.4968838,-0.540000021457672
943.5125088,-20.3199996948242
943.5281338,-38.439998626709
943.5437588,-54.4900016784668
943.5593838,-68.3600006103516
943.5750088,-80.25
943.5906338,-90.6399993896484
943.6062588,-100.110000610352
943.6218838,-109.110000610352
943.6375088,-117.76000213623
943.6531338,-125.870002746582
943.6687588,-133.100006103516
943.6843838,-139.199996948242
943.7000088,-144.240005493164
943.7156338,-148.440002441406
943.7312588,-152.070007324219
943.7468838,-155.210006713867
943.7625088,-157.75
943.7781338,-159.550003051758
943.7937588,-160.550003051758
943.8093838,-160.809997558594
943.8250088,-160.289993286133
943.8406338,-158.960006713867
943.8562588,-156.779998779297
943.8718838,-153.830001831055
943.8875088,-150.229995727539
943.9031338,-146.160003662109
943.9187588,-141.649993896484
943.9343838,-136.570007324219
943.9500088,-130.419998168945
943.9656338,-122.220001220703
943.9812588,-110.23999786377
943.9968838,-92.1900024414063
944.0125088,-66.7399978637695
944.0281338,-35.2299995422363
944.0437588,-1.50999999046326
944.0593838,29.8799991607666
944.0750088,55.6399993896484
944.0906338,74.5599975585938
944.1062588,86.9700012207031
944.1218838,93.5999984741211
944.1375088,95.5599975585938
944.1531338,95.3399963378906
944.1687588,96.120002746582
944.1843838,99.8199996948242
944.2000088,106.26000213623
944.2156338,113.389999389648
944.2312588,118.209999084473
944.2468838,117.779998779297
944.2625088,110.430000305176
944.2781338,96.379997253418
944.2937588,77.4899978637695
944.3093838,56.5999984741211
944.3250088,36.6100006103516
944.3406338,19.4699993133545
944.3562588,5.59000015258789
944.3718838,-5.96000003814697
944.3875088,-16.3899993896484
944.4031338,-26.1399993896484
944.4187588,-34.8800010681152
944.4343838,-42.4799995422363
944.4500088,-49.6399993896484
944.4656338,-57.7799987792969
944.4812588,-68.3399963378906
944.4968838,-82.1600036621094
944.5125088,-99.379997253418
944.5281338,-119.050003051758
944.5437588,-138.929992675781
944.5593838,-156.240005493164
944.5750088,-168.949996948242
944.5906338,-176.449996948242
944.6062588,-179.369995117188
944.6218838,-179.020004272461
944.6375088,-176.919998168945
944.6531338,-174.600006103516
944.6687588,-172.990005493164
944.6843838,-171.639999389648
944.7000088,-168.800003051758
944.7156338,-162.460006713867
944.7312588,-151.070007324219
944.7468838,-134.149993896484
944.7625088,-112.540000915527
944.7781338,-88.370002746582
944.7937588,-64.1900024414063
944.8093838,-42.1599998474121
944.8250088,-23.6100006103516
944.8406338,-8.81999969482422
944.8562588,2.72000002861023
944.8718838,11.9799995422363
944.8875088,19.7399997711182
944.9031338,26.3099994659424
944.9187588,31.6700000762939
944.9343838,35.9700012207031
944.9500088,39.5800018310547
944.9656338,42.9500007629395
944.9812588,46.5800018310547
944.9968838,50.9799995422363
945.0125088,56.5499992370605
945.0281338,63.7299995422363
945.0437588,73.0
945.0593838,84.5599975585938
945.0750088,97.8499984741211
945.0906338,111.779998779297
945.1062588,125.279998779297
945.1218838,137.830001831055
945.1375088,149.460006713867
945.1531338,160.419998168945
945.1687588,170.720001220703
945.1843838,180.220001220703
945.2000088,188.940002441406
945.2156338,197.009994506836
945.2312588,204.470001220703
945.2468838,211.130004882813
945.2625088,216.520004272461
945.2781338,220.149993896484
945.2937588,221.740005493164
945.3093838,221.419998168945
945.3250088,219.470001220703
945.3406338,216.199996948242
945.3562588,211.850006103516
945.3718838,206.789993286133
945.3875088,201.600006103516
945.4031338,197.369995117188
945.4187588,195.550003051758
945.4343838,197.149993896484
945.4500088,202.0
945.4656338,208.490005493164
945.4812588,214.210006713867
945.4968838,216.949996948242
945.5125088,215.630004882813
945.5281338,210.330001831055
945.5437588,201.779998779297
945.5593838,190.960006713867
945.5750088,178.809997558594
945.5906338,165.940002441406
945.6062588,152.539993286133
945.6218838,138.490005493164
945.6375088,123.51000213623
945.6531338,107.379997253418
945.6687588,90.0599975585938
945.6843838,71.8300018310547
945.7000088,53.2599983215332
945.7156338,34.9599990844727
945.7312588,17.2900009155273
945.7468838,0.170000001788139
945.7625088,-16.6399993896484
945.7781338,-33.3699989318848
945.7937588,-49.9799995422363
945.8093838,-66.2399978637695
945.8250088,-81.8199996948242
945.8406338,-96.5
945.8562588,-110.129997253418
945.8718838,-122.589996337891
945.8875088,-133.770004272461
945.9031338,-143.669998168945
945.9187588,-152.399993896484
945.9343838,-160.110000610352
945.9500088,-166.899993896484
945.9656338,-172.949996948242
945.9812588,-178.550003051758
945.9968838,-183.850006103516
946.0125088,-188.800003051758
946.0281338,-193.270004272461
946.0437588,-197.070007324219
946.0593838,-200.020004272461
946.0750088,-201.729995727539
946.0906338,-201.559997558594
946.1062588,-198.539993286133
946.1218838,-191.580001831055
946.1375088,-179.800003051758
946.1531338,-163.050003051758
946.1687588,-142.759994506836
946.1843838,-122.099998474121
946.2000088,-104.550003051758
946.2156338,-92.3000030517578
946.2312588,-85.4800033569336
946.2468838,-82.6100006103516
946.2625088,-81.5699996948242
946.2781338,-80.7399978637695
946.2937588,-79.7099990844727
946.3093838,-79.1699981689453
946.3250088,-80.0899963378906
946.3406338,-82.9899978637695
946.3562588,-87.5400009155273
946.3718838,-92.7900009155273
946.3875088,-97.5999984741211
946.4031338,-101.099998474121
946.4187588,-103.0
946.4343838,-103.589996337891
946.4500088,-103.379997253418
946.4656338,-102.889999389648
946.4812588,-102.449996948242
946.4968838,-102.199996948242
946.5125088,-102.199996948242
946.5281338,-102.389999389648
946.5437588,-102.5
946.5593838,-102.050003051758
946.5750088,-100.550003051758
946.5906338,-97.7699966430664
946.6062588,-93.8600006103516
946.6218838,-89.1800003051758
946.6375088,-84.0800018310547
946.6531338,-78.6800003051758
946.6687588,-73.0199966430664
946.6843838,-67.0500030517578
946.7000088,-60.7599983215332
946.7156338,-54.2099990844727
946.7312588,-47.5400009155273
946.7468838,-40.8400001525879
946.7625088,-34.0900001525879
946.7781338,-27.1599998474121
946.7937588,-19.6000003814697
946.8093838,-10.4200000762939
946.8250088,1.72000002861023
946.8406338,17.9300003051758
946.8562588,37.9900016784668
946.8718838,60.1800003051758
946.8875088,81.7399978637695
946.9031338,99.7600021362305
946.9187588,112.220001220703
946.9343838,118.860000610352
946.9500088,121.069999694824
946.9656338,120.910003662109
946.9812588,120.050003051758
946.9968838,119.169998168945
947.0125088,118.0
947.0281338,115.870002746582
947.0437588,112.129997253418
947.0593838,106.440002441406
947.0750088,98.8600006103516
947.0906338,89.9899978637695
947.1062588,80.8000030517578
947.1218838,72.2799987792969
947.1375088,65.1399993896484
947.1531338,59.5099983215332
947.1687588,54.939998626709
947.1843838,50.8499984741211
947.2000088,46.8899993896484
947.2156338,42.9099998474121
947.2312588,38.8499984741211
947.2468838,34.689998626709
947.2625088,30.5100002288818
947.2781338,26.3799991607666
947.2937588,22.3999996185303
947.3093838,18.7399997711182
947.3250088,15.5699996948242
947.3406338,13.0100002288818
947.3562588,11.1000003814697
947.3718838,9.81999969482422
947.3875088,9.11999988555908
947.4031338,9.0
947.4187588,9.35999965667725
947.4343838,9.89999961853027
947.4500088,10.289999961853
947.4656338,10.4300003051758
947.4812588,10.3900003433228
947.4968838,10.2399997711182
947.5125088,10.0299997329712
947.5281338,9.96000003814697
947.5437588,10.6700000762939
947.5593838,13.3299999237061
947.5750088,19.2399997711182
947.5906338,29.0
947.6062588,41.8800010681152
947.6218838,55.8499984741211
947.6375088,68.2900009155273
947.6531338,77.0500030517578
947.6687588,81.2099990844727
947.6843838,81.1900024414063
947.7000088,78.2300033569336
947.7156338,73.7399978637695
947.7312588,68.7300033569336
947.7468838,63.5900001525879
947.7625088,58.1199989318848
947.7781338,51.8699989318848
947.7937588,44.6500015258789
947.8093838,36.7599983215332
947.8250088,28.8500003814697
947.8406338,21.5499992370605
947.8562588,15.1400003433228
947.8718838,9.47999954223633
947.8875088,4.32000017166138
947.9031338,-0.509999990463257
947.9187588,-5.07000017166138
947.9343838,-9.46000003814697
947.9500088,-13.789999961853
947.9656338,-17.9599990844727
947.9812588,-21.8199996948242
947.9968838,-25.5100002288818
948.0125088,-29.3700008392334
948.0281338,-33.6300010681152
948.0437588,-38.1800003051758
948.0593838,-42.5099983215332
948.0750088,-46.0200004577637
948.0906338,-48.2999992370605
948.1062588,-49.2900009155273
948.1218838,-49.1800003051758
948.1375088,-48.3800010681152
948.1531338,-47.3699989318848
948.1687588,-46.5299987792969
948.1843838,-46.0200004577637
948.2000088,-45.7799987792969
948.2156338,-45.4700012207031
948.2312588,-44.5
948.2468838,-41.9900016784668
948.2625088,-36.8800010681152
948.2781338,-28.0900001525879
948.2937588,-14.8800001144409
948.3093838,2.13000011444092
948.3250088,20.5200004577637
948.3406338,37.0099983215332
948.3562588,49.0200004577637
948.3718838,55.5999984741211
948.3875088,57.310001373291
948.4031338,55.6100006103516
948.4187588,52.0900001525879
948.4343838,47.9599990844727
948.4500088,43.7000007629395
948.4656338,39.0999984741211
948.4812588,33.6699981689453
948.4968838,27.2399997711182
948.5125088,20.1299991607666
948.5281338,13.0200004577637
948.5437588,6.57000017166138
948.5593838,1.14999997615814
948.5750088,-3.29999995231628
948.5906338,-7.19999980926514
948.6062588,-11.0699996948242
948.6218838,-15.3800001144409
948.6375088,-20.2999992370605
948.6531338,-25.7000007629395
948.6687588,-31.2299995422363
948.6843838,-36.4300003051758
948.7000088,-40.8300018310547
948.7156338,-44.0400009155273
948.7312588,-45.9000015258789
948.7468838,-46.6199989318848
948.7625088,-46.6699981689453
948.7781338,-46.5400009155273
948.7937588,-46.5099983215332
948.8093838,-46.6300010681152
948.8250088,-46.7700004577637
948.8406338,-46.7099990844727
948.8562588,-46.3600006103516
948.8718838,-45.7799987792969
948.8875088,-45.1100006103516
948.9031338,-44.3400001525879
948.9187588,-43.189998626709
948.9343838,-41.0800018310547
948.9500088,-37.189998626709
948.9656338,-30.6100006103516
948.9812588,-20.7800006866455
948.9968838,-8.02999973297119
949.0125088,6.26999998092651
949.0281338,20.1399993896484
949.0437588,31.7099990844727
949.0593838,39.8699989318848
949.0750088,44.3199996948242
949.0906338,45.3300018310547
949.1062588,43.6599998474121
949.1218838,40.3400001525879
949.1375088,36.2900009155273
949.1531338,32.0299987792969
949.1687588,27.7700004577637
949.1843838,23.6200008392334
949.2000088,19.6399993896484
949.2156338,15.6300001144409
949.2312588,11.2700004577637
949.2468838,6.21000003814697
949.2625088,0.259999990463257
949.2781338,-6.61999988555908
949.2937588,-14.5500001907349
949.3093838,-23.5100002288818
949.3250088,-33.1699981689453
949.3406338,-42.939998626709
949.3562588,-52.0299987792969
949.3718838,-59.4599990844727
949.3875088,-64.4599990844727
949.4031338,-67.0100021362305
949.4187588,-68.0299987792969
949.4343838,-68.9000015258789
949.4500088,-70.6500015258789
949.4656338,-73.2600021362305
949.4812588,-75.7900009155273
949.4968838,-77.1100006103516
949.5125088,-76.5999984741211
949.5281338,-74.2699966430664
949.5437588,-70.5
949.5593838,-65.5
949.5750088,-59.0900001525879
949.5906338,-51.0999984741211
949.6062588,-41.7599983215332
949.6218838,-31.4699993133545
949.6375088,-20.3799991607666
949.6531338,-8.05000019073486
949.6687588,6.63000011444092
949.6843838,24.8899993896484
949.7000088,46.7700004577637
949.7156338,70.5199966430664
949.7312588,93.2600021362305
