Time(s),Value(%)
1401.0120582,-12.5200004577637
1401.0276832,-10.3599996566772
1401.0433082,-8.71000003814697
1401.0589332,-7.48000001907349
1401.0745582,-6.59000015258789
1401.0901832,-5.94000005722046
1401.1058082,-5.46999979019165
1401.1214332,-5.07000017166138
1401.1370582,-4.71999979019165
1401.1526832,-4.46000003814697
1401.1683082,-4.3600001335144
1401.1839332,-4.44999980926514
1401.1995582,-4.67999982833862
1401.2151832,-4.96999979019165
1401.2308082,-5.21999979019165
1401.2464332,-5.40999984741211
1401.2620582,-5.59000015258789
1401.2776832,-5.8899998664856
1401.2933082,-6.44000005722046
1401.3089332,-7.30000019073486
1401.3245582,-8.4399995803833
1401.3401832,-9.97000026702881
1401.3558082,-11.8599996566772
1401.3714332,-14.1000003814697
1401.3870582,-16.5799999237061
1401.4026832,-18.9200000762939
1401.4183082,-20.7600002288818
1401.4339332,-21.8700008392334
1401.4495582,-22.2000007629395
1401.4651832,-21.7999992370605
1401.4808082,-20.6800003051758
1401.4964332,-18.8999996185303
1401.5120582,-16.5799999237061
1401.5276832,-13.9300003051758
1401.5433082,-11.1700000762939
1401.5589332,-8.46000003814697
1401.5745582,-5.78999996185303
1401.5901832,-2.96000003814697
1401.6058082,0.259999990463257
1401.6214332,3.97000002861023
1401.6370582,8.03999996185303
1401.6526832,12.3000001907349
1401.6683082,16.5499992370605
1401.6839332,20.6599998474121
1401.6995582,24.3999996185303
1401.7151832,27.4799995422363
1401.7308082,29.6399993896484
1401.7464332,30.8400001525879
1401.7620582,31.25
1401.7776832,31.1499996185303
1401.7933082,30.7700004577637
1401.8089332,30.2900009155273
1401.8245582,29.8099994659424
1401.8401832,29.3600006103516
1401.8558082,28.8799991607666
1401.8714332,28.25
1401.8870582,27.3700008392334
1401.9026832,26.2099990844727
1401.9183082,24.7700004577637
1401.9339332,23.0699996948242
1401.9495582,21.0799999237061
1401.9651832,18.8600006103516
1401.9808082,16.6100006103516
1401.9964332,14.5600004196167
1402.0120582,12.8400001525879
1402.0276832,11.3000001907349
1402.0433082,9.69999980926514
1402.0589332,7.96999979019165
1402.0745582,6.23999977111816
1402.0901832,4.71000003814697
1402.1058082,3.52999997138977
1402.1214332,2.66000008583069
1402.1370582,2.04999995231628
1402.1526832,1.62999999523163
1402.1683082,1.38999998569489
1402.1839332,1.29999995231628
1402.1995582,1.35000002384186
1402.2151832,1.47000002861023
1402.2308082,1.62999999523163
1402.2464332,1.86000001430511
1402.2620582,2.39000010490417
1402.2776832,3.73000001907349
1402.2933082,6.34000015258789
1402.3089332,10.289999961853
1402.3245582,15.2700004577637
1402.3401832,20.8500003814697
1402.3558082,26.6299991607666
1402.3714332,32.3199996948242
1402.3870582,37.5800018310547
1402.4026832,41.9700012207031
1402.4183082,45.2200012207031
1402.4339332,47.439998626709
1402.4495582,48.9700012207031
1402.4651832,50.0999984741211
1402.4808082,51.0099983215332
1402.4964332,51.8699989318848
1402.5120582,52.8499984741211
1402.5276832,54.0400009155273
1402.5433082,55.2999992370605
1402.5589332,56.3499984741211
1402.5745582,56.9799995422363
1402.5901832,57.189998626709
1402.6058082,57.1300010681152
1402.6214332,56.8499984741211
1402.6370582,56.2999992370605
1402.6526832,55.4000015258789
1402.6683082,54.1500015258789
1402.6839332,52.689998626709
1402.6995582,51.1500015258789
1402.7151832,49.6599998474121
1402.7308082,48.2900009155273
1402.7464332,47.0400009155273
1402.7620582,45.9599990844727
1402.7776832,45.189998626709
1402.7933082,44.8699989318848
1402.8089332,44.9799995422363
1402.8245582,45.2999992370605
1402.8401832,45.4700012207031
1402.8558082,45.4099998474121
1402.8714332,45.4500007629395
1402.8870582,46.0800018310547
1402.9026832,47.4099998474121
1402.9183082,49.0999984741211
1402.9339332,50.6399993896484
1402.9495582,51.6599998474121
1402.9651832,52.1100006103516
1402.9808082,52.2200012207031
1402.9964332,52.3899993896484
1403.0120582,52.9500007629395
1403.0276832,54.0299987792969
1403.0433082,55.6300010681152
1403.0589332,57.8300018310547
1403.0745582,60.7299995422363
1403.0901832,64.1500015258789
1403.1058082,67.4700012207031
1403.1214332,69.620002746582
1403.1370582,69.8199996948242
1403.1526832,68.0999984741211
1403.1683082,65.1100006103516
1403.1839332,61.4700012207031
1403.1995582,57.4799995422363
1403.2151832,53.1699981689453
1403.2308082,48.5900001525879
1403.2464332,43.8499984741211
1403.2620582,39.2000007629395
1403.2776832,34.9199981689453
1403.2933082,31.2000007629395
1403.3089332,28.1000003814697
1403.3245582,25.5599994659424
1403.3401832,23.5699996948242
1403.3558082,22.1499996185303
1403.3714332,21.1700000762939
1403.3870582,20.2399997711182
1403.4026832,18.7600002288818
1403.4183082,16.3899993896484
1403.4339332,13.460000038147
1403.4495582,10.6800003051758
1403.4651832,8.52999973297119
1403.4808082,7.28000020980835
1403.4964332,7.19000005722046
1403.5120582,8.52999973297119
1403.5276832,11.1899995803833
1403.5433082,14.4499998092651
1403.5589332,17.2099990844727
1403.5745582,18.75
1403.5901832,19.2600002288818
1403.6058082,19.3199996948242
1403.6214332,19.1399993896484
1403.6370582,18.3199996948242
1403.6526832,16.4500007629395
1403.6683082,13.4899997711182
1403.6839332,9.80000019073486
1403.6995582,5.8899998664856
1403.7151832,2.25
1403.7308082,-0.899999976158142
1403.7464332,-3.55999994277954
1403.7620582,-5.69999980926514
1403.7776832,-7.17000007629395
1403.7933082,-7.78000020980835
1403.8089332,-7.57999992370605
1403.8245582,-7.17999982833862
1403.8401832,-7.57000017166138
1403.8558082,-9.52000045776367
1403.8714332,-12.9799995422363
1403.8870582,-17.3099994659424
1403.9026832,-21.9300003051758
1403.9183082,-26.6100006103516
1403.9339332,-31.3999996185303
1403.9495582,-36.310001373291
1403.9651832,-41.25
1403.9808082,-46.0499992370605
1403.9964332,-50.4799995422363
1404.0120582,-54.3899993896484
1404.0276832,-57.689998626709
1404.0433082,-60.1800003051758
1404.0589332,-61.3600006103516
1404.0745582,-60.7799987792969
1404.0901832,-58.4799995422363
1404.1058082,-55.2099990844727
1404.1214332,-52.0999984741211
1404.1370582,-49.8199996948242
1404.1526832,-48.1300010681152
1404.1683082,-46.3600006103516
1404.1839332,-44.3699989318848
1404.1995582,-42.7099990844727
1404.2151832,-41.9799995422363
1404.2308082,-42.3699989318848
1404.2464332,-43.5900001525879
1404.2620582,-45.0699996948242
1404.2776832,-46.1800003051758
1404.2933082,-46.5699996948242
1404.3089332,-46.1699981689453
1404.3245582,-45.0299987792969
1404.3401832,-43.060001373291
1404.3558082,-40.1399993896484
1404.3714332,-36.4199981689453
1404.3870582,-32.6699981689453
1404.4026832,-30.1800003051758
1404.4183082,-29.9400005340576
1404.4339332,-31.9400005340576
1404.4495582,-35.3199996948242
1404.4651832,-39.2599983215332
1404.4808082,-43.3899993896484
1404.4964332,-47.6199989318848
1404.5120582,-51.9500007629395
1404.5276832,-56.2900009155273
1404.5433082,-60.4300003051758
1404.5589332,-64.1399993896484
1404.5745582,-67.25
1404.5901832,-69.6999969482422
1404.6058082,-71.4100036621094
1404.6214332,-72.1800003051758
1404.6370582,-71.8000030517578
1404.6526832,-70.3499984741211
1404.6683082,-68.3899993896484
1404.6839332,-66.7900009155273
1404.6995582,-65.9899978637695
1404.7151832,-65.6100006103516
1404.7308082,-64.8399963378906
1404.7464332,-63.310001373291
1404.7620582,-61.3600006103516
1404.7776832,-59.5800018310547
1404.7933082,-58.3499984741211
1404.8089332,-57.6599998474121
1404.8245582,-57.0400009155273
1404.8401832,-55.689998626709
1404.8558082,-52.9700012207031
1404.8714332,-48.7200012207031
1404.8870582,-43.0999984741211
1404.9026832,-36.2999992370605
1404.9183082,-28.3899993896484
1404.9339332,-19.7700004577637
1404.9495582,-11.4700002670288
1404.9651832,-5.15000009536743
1404.9808082,-2.04999995231628
1404.9964332,-2.03999996185303
1405.0120582,-3.9300000667572
1405.0276832,-6.61999988555908
1405.0433082,-9.57999992370605
1405.0589332,-12.7700004577637
1405.0745582,-16.2099990844727
1405.0901832,-19.8199996948242
1405.1058082,-23.3799991607666
1405.1214332,-26.6399993896484
1405.1370582,-29.4200000762939
1405.1526832,-31.6800003051758
1405.1683082,-33.3800010681152
1405.1839332,-34.4500007629395
1405.1995582,-34.7799987792969
1405.2151832,-34.4900016784668
1405.2308082,-34.0299987792969
1405.2464332,-34.189998626709
1405.2620582,-35.4300003051758
1405.2776832,-37.4799995422363
1405.2933082,-39.560001373291
1405.3089332,-41.0800018310547
1405.3245582,-42.0
1405.3401832,-42.6100006103516
1405.3558082,-43.2200012207031
1405.3714332,-43.9599990844727
1405.3870582,-44.6199989318848
1405.4026832,-44.7599983215332
1405.4183082,-43.9599990844727
1405.4339332,-42.060001373291
1405.4495582,-38.9500007629395
1405.4651832,-34.3499984741211
1405.4808082,-27.9799995422363
1405.4964332,-20.0799999237061
1405.5120582,-11.6599998474121
1405.5276832,-4.28000020980835
1405.5433082,1.0
1405.5589332,4.42000007629395
1405.5745582,6.90999984741211
1405.5901832,9.02000045776367
1405.6058082,10.5799999237061
1405.6214332,11.1899995803833
1405.6370582,10.7700004577637
1405.6526832,9.57999992370605
1405.6683082,8.14000034332275
1405.6839332,6.88000011444092
1405.6995582,6.07000017166138
1405.7151832,5.75
1405.7308082,5.98999977111816
1405.7464332,7.07999992370605
1405.7620582,9.28999996185303
1405.7776832,12.5600004196167
1405.7933082,16.1399993896484
1405.8089332,18.7999992370605
1405.8245582,19.6100006103516
1405.8401832,18.6200008392334
1405.8558082,16.6000003814697
1405.8714332,14.25
1405.8870582,11.960000038147
1405.9026832,10.0600004196167
1405.9183082,8.88000011444092
1405.9339332,8.53999996185303
1405.9495582,8.6899995803833
1405.9651832,8.60999965667725
1405.9808082,7.71000003814697
1405.9964332,5.94000005722046
1406.0120582,3.63000011444092
1406.0276832,0.990000009536743
1406.0433082,-2.01999998092651
1406.0589332,-5.46000003814697
1406.0745582,-9.25
1406.0901832,-13.0799999237061
1406.1058082,-16.5100002288818
1406.1214332,-19.0100002288818
1406.1370582,-20.1900005340576
1406.1526832,-19.9899997711182
1406.1683082,-18.4500007629395
1406.1839332,-15.3999996185303
1406.1995582,-10.6499996185303
1406.2151832,-4.3899998664856
1406.2308082,2.48000001907349
1406.2464332,8.65999984741211
1406.2620582,13.2700004577637
1406.2776832,16.5
1406.2933082,19.1000003814697
1406.3089332,21.3899993896484
1406.3245582,23.0799999237061
1406.3401832,23.75
1406.3558082,23.3199996948242
1406.3714332,22.1299991607666
1406.3870582,20.7099990844727
1406.4026832,19.5300006866455
1406.4183082,18.8400001525879
1406.4339332,18.6700000762939
1406.4495582,19.0200004577637
1406.4651832,20.0499992370605
1406.4808082,21.9599990844727
1406.4964332,24.6599998474121
1406.5120582,27.5200004577637
1406.5276832,29.4599990844727
1406.5433082,29.6399993896484
1406.5589332,28.1000003814697
1406.5745582,25.5100002288818
1406.5901832,22.5300006866455
1406.6058082,19.4300003051758
1406.6214332,16.2099990844727
1406.6370582,12.8599996566772
1406.6526832,9.46000003814697
1406.6683082,6.15000009536743
1406.6839332,3.05999994277954
1406.6995582,0.280000001192093
1406.7151832,-2.15000009536743
1406.7308082,-4.23000001907349
1406.7464332,-5.82999992370605
1406.7620582,-6.84999990463257
1406.7776832,-7.34000015258789
1406.7933082,-7.59999990463257
1406.8089332,-8.14999961853027
1406.8245582,-9.39999961853027
1406.8401832,-11.3800001144409
1406.8558082,-13.8199996948242
1406.8714332,-16.3999996185303
1406.8870582,-18.9599990844727
1406.9026832,-21.4099998474121
1406.9183082,-23.7399997711182
1406.9339332,-25.8500003814697
1406.9495582,-27.4300003051758
1406.9651832,-27.9099998474121
1406.9808082,-26.7700004577637
1406.9964332,-23.9699993133545
1407.0120582,-19.8500003814697
1407.0276832,-14.9200000762939
1407.0433082,-9.57999992370605
1407.0589332,-4.19000005722046
1407.0745582,0.720000028610229
1407.0901832,4.40000009536743
1407.1058082,6.13000011444092
1407.1214332,5.78999996185303
1407.1370582,3.75999999046326
1407.1526832,0.660000026226044
1407.1683082,-2.91000008583069
1407.1839332,-6.55000019073486
1407.1995582,-9.98999977111816
1407.2151832,-13.1199998855591
1407.2308082,-16.0699996948242
1407.2464332,-19.1200008392334
1407.2620582,-22.5900001525879
1407.2776832,-26.5799999237061
1407.2933082,-31.0100002288818
1407.3089332,-35.8699989318848
1407.3245582,-41.1199989318848
1407.3401832,-46.6199989318848
1407.3558082,-51.9199981689453
1407.3714332,-56.4099998474121
1407.3870582,-59.7000007629395
1407.4026832,-61.9599990844727
1407.4183082,-63.6199989318848
1407.4339332,-64.9199981689453
1407.4495582,-65.7699966430664
1407.4651832,-65.9599990844727
1407.4808082,-65.4400024414063
1407.4964332,-64.3499984741211
1407.5120582,-62.9700012207031
1407.5276832,-61.6599998474121
1407.5433082,-60.6300010681152
1407.5589332,-59.9300003051758
1407.5745582,-59.4599990844727
1407.5901832,-59.0999984741211
1407.6058082,-58.7599983215332
1407.6214332,-58.3499984741211
1407.6370582,-57.5499992370605
1407.6526832,-55.8300018310547
1407.6683082,-52.6599998474121
1407.6839332,-47.8600006103516
1407.6995582,-41.6800003051758
1407.7151832,-34.6100006103516
1407.7308082,-27.2000007629395
1407.7464332,-19.8400001525879
1407.7620582,-12.7799997329712
1407.7776832,-6.07000017166138
1407.7933082,0.360000014305115
1407.8089332,6.67999982833862
1407.8245582,13.0299997329712
1407.8401832,19.4300003051758
1407.8558082,25.7299995422363
1407.8714332,31.7099990844727
1407.8870582,37.1699981689453
1407.9026832,42.0099983215332
1407.9183082,46.2200012207031
1407.9339332,49.7599983215332
1407.9495582,52.5400009155273
1407.9651832,54.5400009155273
1407.9808082,55.9000015258789
1407.9964332,56.9099998474121
1408.0120582,57.8300018310547
1408.0276832,58.6599998474121
1408.0433082,59.2099990844727
1408.0589332,59.3600006103516
1408.0745582,59.1800003051758
1408.0901832,58.9199981689453
1408.1058082,58.7999992370605
1408.1214332,58.7900009155273
1408.1370582,58.8199996948242
1408.1526832,58.939998626709
1408.1683082,59.310001373291
1408.1839332,60.0900001525879
1408.1995582,61.2599983215332
1408.2151832,62.439998626709
1408.2308082,62.3800010681152
1408.2464332,58.8499984741211
1408.2620582,49.9000015258789
1408.2776832,34.6199989318848
1408.2933082,11.3000001907349
1408.3089332,-24.3299999237061
1408.3245582,-76.4100036621094
1408.3401832,-144.160003662109
1408.3558082,-220.399993896484
1408.3714332,-294.609985351563
1408.3870582,-327.679992675781
1408.4026832,-327.679992675781
1408.4183082,-327.679992675781
1408.4339332,-327.679992675781
1408.4495582,-327.679992675781
1408.4651832,-327.679992675781
1408.4808082,-327.679992675781
1408.4964332,-327.679992675781
1408.5120582,-327.679992675781
1408.5276832,-327.679992675781
1408.5433082,-327.679992675781
1408.5589332,-327.679992675781
1408.5745582,-317.769989013672
1408.5901832,-304.799987792969
1408.6058082,-294.850006103516
1408.6214332,-287.959991455078
1408.6370582,-282.070007324219
1408.6526832,-273.329986572266
1408.6683082,-258.730010986328
1408.6839332,-238.440002441406
1408.6995582,-214.910003662109
1408.7151832,-190.229995727539
1408.7308082,-164.910003662109
1408.7464332,-138.679992675781
1408.7620582,-111.5
1408.7776832,-83.8600006103516
1408.7933082,-56.7099990844727
1408.8089332,-31.0400009155273
1408.8245582,-7.51000022888184
1408.8401832,13.7200002670288
1408.8558082,32.560001373291
1408.8714332,48.5099983215332
1408.8870582,61.0499992370605
1408.9026832,70.4700012207031
1408.9183082,78.5800018310547
1408.9339332,88.3300018310547
1408.9495582,102.0
1408.9651832,119.639999389648
1408.9808082,139.639999389648
1408.9964332,160.529998779297
1409.0120582,181.729995727539
1409.0276832,203.149993896484
1409.0433082,224.649993896484
1409.0589332,245.770004272461
1409.0745582,265.910003662109
1409.0901832,284.519989013672
1409.1058082,301.290008544922
1409.1214332,316.160003662109
1409.1370582,327.670013427734
1409.1526832,327.670013427734
1409.1683082,327.670013427734
1409.1839332,327.670013427734
1409.1995582,327.670013427734
1409.2151832,327.670013427734
1409.2308082,327.670013427734
1409.2464332,327.670013427734
1409.2620582,327.670013427734
1409.2776832,327.670013427734
1409.2933082,327.670013427734
1409.3089332,327.670013427734
1409.3245582,327.670013427734
1409.3401832,327.670013427734
1409.3558082,327.670013427734
1409.3714332,327.670013427734
1409.3870582,327.670013427734
1409.4026832,327.670013427734
1409.4183082,327.670013427734
1409.4339332,327.670013427734
1409.4495582,327.670013427734
1409.4651832,327.670013427734
1409.4808082,327.670013427734
1409.4964332,327.670013427734
1409.5120582,327.670013427734
1409.5276832,327.670013427734
1409.5433082,327.670013427734
1409.5589332,327.670013427734
1409.5745582,327.670013427734
1409.5901832,327.670013427734
1409.6058082,327.670013427734
1409.6214332,327.670013427734
1409.6370582,-327.679992675781
1409.6526832,-327.679992675781
1409.6683082,-327.679992675781
1409.6839332,-327.679992675781
1409.6995582,-327.679992675781
1409.7151832,-327.679992675781
1409.7308082,-327.679992675781
1409.7464332,-327.679992675781
1409.7620582,-327.679992675781
1409.7776832,-327.679992675781
1409.7933082,-327.679992675781
1409.8089332,-327.679992675781
1409.8245582,-327.679992675781
1409.8401832,-327.679992675781
1409.8558082,-327.679992675781
1409.8714332,-327.679992675781
1409.8870582,-327.679992675781
1409.9026832,-327.679992675781
1409.9183082,-327.679992675781
1409.9339332,-327.679992675781
1409.9495582,-327.679992675781
1409.9651832,-327.679992675781
1409.9808082,-327.679992675781
1409.9964332,-327.679992675781
1410.0120582,-327.679992675781
1410.0276832,-327.679992675781
1410.0433082,-327.679992675781
1410.0589332,-327.679992675781
1410.0745582,-327.679992675781
1410.0901832,-327.679992675781
1410.1058082,-327.679992675781
1410.1214332,-327.679992675781
1410.1370582,-327.679992675781
1410.1526832,-327.679992675781
1410.1683082,-327.679992675781
1410.1839332,-327.679992675781
1410.1995582,-327.679992675781
1410.2151832,-327.679992675781
1410.2308082,-327.679992675781
1410.2464332,-327.679992675781
1410.2620582,-327.679992675781
1410.2776832,-327.679992675781
1410.2933082,-327.679992675781
1410.3089332,-327.679992675781
1410.3245582,-306.160003662109
1410.3401832,-267.679992675781
1410.3558082,-230.309997558594
1410.3714332,-193.960006713867
1410.3870582,-158.410003662109
1410.4026832,-123.589996337891
1410.4183082,-89.6100006103516
1410.4339332,-56.6399993896484
1410.4495582,-24.8799991607666
1410.4651832,5.55999994277954
1410.4808082,34.6300010681152
1410.4964332,62.3600006103516
1410.5120582,88.7699966430664
1410.5276832,113.919998168945
1410.5433082,137.809997558594
1410.5589332,160.399993896484
1410.5745582,181.630004882813
1410.5901832,201.520004272461
1410.6058082,220.139999389648
1410.6214332,237.600006103516
1410.6370582,253.979995727539
1410.6526832,269.299987792969
1410.6683082,283.529998779297
1410.6839332,296.670013427734
1410.6995582,308.690002441406
1410.7151832,319.559997558594
1410.7308082,327.670013427734
1410.7464332,327.670013427734
1410.7620582,327.670013427734
1410.7776832,327.670013427734
1410.7933082,327.670013427734
1410.8089332,327.670013427734
1410.8245582,327.670013427734
1410.8401832,327.670013427734
1410.8558082,327.670013427734
1410.8714332,327.670013427734
1410.8870582,327.670013427734
1410.9026832,327.670013427734
1410.9183082,327.670013427734
1410.9339332,327.670013427734
1410.9495582,327.670013427734
1410.9651832,327.670013427734
1410.9808082,327.670013427734
1410.9964332,327.670013427734
1411.0120582,327.670013427734
1411.0276832,327.670013427734
1411.0433082,327.670013427734
1411.0589332,327.670013427734
1411.0745582,327.670013427734
1411.0901832,327.670013427734
1411.1058082,327.459991455078
1411.1214332,323.019989013672
1411.1370582,319.049987792969
1411.1526832,315.690002441406
1411.1683082,312.839996337891
1411.1839332,310.380004882813
1411.1995582,308.730010986328
1411.2151832,309.100006103516
1411.2308082,312.769989013672
1411.2464332,320.040008544922
1411.2620582,327.670013427734
1411.2776832,327.670013427734
1411.2933082,327.670013427734
1411.3089332,327.670013427734
1411.3245582,327.670013427734
