Time(s),Value(%)
1196.0083798,5.1399998664856
1196.0240048,3.25999999046326
1196.0396298,1.27999997138977
1196.0552548,-0.850000023841858
1196.0708798,-3.4300000667572
1196.0865048,-6.71999979019165
1196.1021298,-10.8000001907349
1196.1177548,-15.6199998855591
1196.1333798,-21.1100006103516
1196.1490048,-27.25
1196.1646298,-33.8600006103516
1196.1802548,-40.5099983215332
1196.1958798,-46.6500015258789
1196.2115048,-52.0499992370605
1196.2271298,-57.0
1196.2427548,-61.9700012207031
1196.2583798,-66.9899978637695
1196.2740048,-71.6600036621094
1196.2896298,-75.5
1196.3052548,-78.3000030517578
1196.3208798,-80.1399993896484
1196.3365048,-80.9800033569336
1196.3521298,-80.4499969482422
1196.3677548,-78.0699996948242
1196.3833798,-73.8199996948242
1196.3990048,-68.2099990844727
1196.4146298,-62.0800018310547
1196.4302548,-56.1199989318848
1196.4458798,-50.689998626709
1196.4615048,-45.7599983215332
1196.4771298,-40.9500007629395
1196.4927548,-35.9199981689453
1196.5083798,-30.4799995422363
1196.5240048,-24.6200008392334
1196.5396298,-18.3700008392334
1196.5552548,-11.7700004577637
1196.5708798,-4.96999979019165
1196.5865048,1.63999998569489
1196.6021298,7.67999982833862
1196.6177548,12.6599998474121
1196.6333798,16.6200008392334
1196.6490048,19.9699993133545
1196.6646298,23.0799999237061
1196.6802548,26.1599998474121
1196.6958798,29.4300003051758
1196.7115048,33.1399993896484
1196.7271298,37.3499984741211
1196.7427548,41.7900009155273
1196.7583798,45.8899993896484
1196.7740048,49.2200012207031
1196.7896298,51.810001373291
1196.8052548,53.9199981689453
1196.8208798,55.6699981689453
1196.8365048,56.9099998474121
1196.8521298,57.4700012207031
1196.8677548,57.3600006103516
1196.8833798,56.7900009155273
1196.8990048,56.0800018310547
1196.9146298,55.5299987792969
1196.9302548,55.3199996948242
1196.9458798,55.5
1196.9615048,56.2900009155273
1196.9771298,58.1800003051758
1196.9927548,61.6800003051758
1197.0083798,66.7600021362305
1197.0240048,72.6800003051758
1197.0396298,78.3000030517578
1197.0552548,83.120002746582
1197.0708798,87.7300033569336
1197.0865048,93.0999984741211
1197.1021298,99.3499984741211
1197.1177548,105.580001831055
1197.1333798,110.680000305176
1197.1490048,114.069999694824
1197.1646298,115.889999389648
1197.1802548,116.580001831055
1197.1958798,116.569999694824
1197.2115048,116.029998779297
1197.2271298,115.059997558594
1197.2427548,113.860000610352
1197.2583798,112.839996337891
1197.2740048,112.400001525879
1197.2896298,112.559997558594
1197.3052548,112.639999389648
1197.3208798,111.349998474121
1197.3365048,107.629997253418
1197.3521298,101.410003662109
1197.3677548,93.5199966430664
1197.3833798,84.9599990844727
1197.3990048,76.3399963378906
1197.4146298,67.9000015258789
1197.4302548,59.6800003051758
1197.4458798,51.6500015258789
1197.4615048,43.7299995422363
1197.4771298,35.7900009155273
1197.4927548,27.7399997711182
1197.5083798,19.5900001525879
1197.5240048,11.4499998092651
1197.5396298,3.48000001907349
1197.5552548,-4.17999982833862
1197.5708798,-11.4799995422363
1197.5865048,-18.5400009155273
1197.6021298,-25.4500007629395
1197.6177548,-32.3899993896484
1197.6333798,-39.6100006103516
1197.6490048,-47.2400016784668
1197.6646298,-55.1300010681152
1197.6802548,-62.9799995422363
1197.6958798,-70.4300003051758
1197.7115048,-77.2900009155273
1197.7271298,-83.4899978637695
1197.7427548,-89.1100006103516
1197.7583798,-94.2600021362305
1197.7740048,-99.0199966430664
1197.7896298,-103.480003356934
1197.8052548,-107.879997253418
1197.8208798,-112.650001525879
1197.8365048,-118.220001220703
1197.8521298,-124.610000610352
1197.8677548,-131.330001831055
1197.8833798,-137.639999389648
1197.8990048,-143.25
1197.9146298,-148.600006103516
1197.9302548,-154.389999389648
1197.9458798,-160.660003662109
1197.9615048,-166.740005493164
1197.9771298,-171.809997558594
1197.9927548,-175.440002441406
1198.0083798,-177.740005493164
1198.0240048,-179.179992675781
1198.0396298,-180.350006103516
1198.0552548,-181.649993896484
1198.0708798,-183.220001220703
1198.0865048,-185.080001831055
1198.1021298,-187.380004882813
1198.1177548,-190.309997558594
1198.1333798,-193.710006713867
1198.1490048,-196.75
1198.1646298,-198.070007324219
1198.1802548,-196.639999389648
1198.1958798,-192.580001831055
1198.2115048,-186.919998168945
1198.2271298,-180.570007324219
1198.2427548,-173.929992675781
1198.2583798,-166.970001220703
1198.2740048,-159.630004882813
1198.2896298,-151.979995727539
1198.3052548,-144.350006103516
1198.3208798,-137.229995727539
1198.3365048,-131.059997558594
1198.3521298,-125.98999786377
1198.3677548,-122.120002746582
1198.3833798,-119.76000213623
1198.3990048,-119.23999786377
1198.4146298,-120.339996337891
1198.4302548,-122.01000213623
1198.4458798,-122.599998474121
1198.4615048,-120.860000610352
1198.4771298,-116.680000305176
1198.4927548,-110.720001220703
1198.5083798,-103.480003356934
1198.5240048,-95.0699996948242
1198.5396298,-85.620002746582
1198.5552548,-75.5199966430664
1198.5708798,-65.2600021362305
1198.5865048,-54.9799995422363
1198.6021298,-44.6500015258789
1198.6177548,-33.9000015258789
1198.6333798,-22.6200008392334
1198.6490048,-10.9899997711182
1198.6646298,0.660000026226044
1198.6802548,12.0900001525879
1198.6958798,23.1200008392334
1198.7115048,33.689998626709
1198.7271298,43.810001373291
1198.7427548,53.7200012207031
1198.7583798,63.8699989318848
1198.7740048,74.6699981689453
1198.7896298,86.1999969482422
1198.8052548,98.1999969482422
1198.8208798,110.319999694824
1198.8365048,122.26000213623
1198.8521298,133.789993286133
1198.8677548,144.539993286133
1198.8833798,154.029998779297
1198.8990048,161.949996948242
1198.9146298,168.389999389648
1198.9302548,173.770004272461
1198.9458798,178.419998168945
1198.9615048,182.460006713867
1198.9771298,185.899993896484
1198.9927548,188.75
1199.0083798,191.100006103516
1199.0240048,193.179992675781
1199.0396298,195.289993286133
1199.0552548,197.710006713867
1199.0708798,200.520004272461
1199.0865048,203.800003051758
1199.1021298,207.839996337891
1199.1177548,212.899993896484
1199.1333798,218.869995117188
1199.1490048,225.070007324219
1199.1646298,230.619995117188
1199.1802548,235.309997558594
1199.1958798,240.199996948242
1199.2115048,246.610000610352
1199.2271298,254.770004272461
1199.2427548,263.570007324219
1199.2583798,271.5
1199.2740048,277.559997558594
1199.2896298,281.619995117188
1199.3052548,284.329986572266
1199.3208798,286.739990234375
1199.3365048,289.679992675781
1199.3521298,293.420013427734
1199.3677548,297.709991455078
1199.3833798,302.209991455078
1199.3990048,306.640014648438
1199.4146298,310.600006103516
1199.4302548,312.940002441406
1199.4458798,311.670013427734
1199.4615048,305.029998779297
1199.4771298,292.799987792969
1199.4927548,276.420013427734
1199.5083798,257.940002441406
1199.5240048,239.130004882813
1199.5396298,220.970001220703
1199.5552548,203.779998779297
1199.5708798,187.429992675781
1199.5865048,170.220001220703
1199.6021298,153.869995117188
1199.6177548,138.350006103516
1199.6333798,123.660003662109
1199.6490048,109.730003356934
1199.6646298,96.370002746582
1199.6802548,83.4000015258789
1199.6958798,70.7099990844727
1199.7115048,58.2999992370605
1199.7271298,46.0699996948242
1199.7427548,33.4599990844727
1199.7583798,19.4099998474121
1199.7740048,3.02999997138977
1199.7896298,-15.5699996948242
1199.8052548,-35.2999992370605
1199.8208798,-54.689998626709
1199.8365048,-72.629997253418
1199.8521298,-88.8600006103516
1199.8677548,-104.449996948242
1199.8833798,-121.610000610352
1199.8990048,-142.360000610352
1199.9146298,-167.259994506836
1199.9302548,-195.809997558594
1199.9458798,-227.589996337891
1199.9615048,-262.359985351563
1199.9771298,-298.959991455078
1199.9927548,-327.679992675781
1200.0083798,-327.679992675781
1200.0240048,-327.679992675781
1200.0396298,-327.679992675781
1200.0552548,-327.679992675781
1200.0708798,-327.679992675781
1200.0865048,-327.679992675781
1200.1021298,-327.679992675781
1200.1177548,-327.679992675781
1200.1333798,-327.679992675781
1200.1490048,-327.679992675781
1200.1646298,-327.679992675781
1200.1802548,-327.679992675781
1200.1958798,-327.679992675781
1200.2115048,-327.679992675781
1200.2271298,-327.679992675781
1200.2427548,-327.679992675781
1200.2583798,-327.679992675781
1200.2740048,-327.679992675781
1200.2896298,-327.679992675781
1200.3052548,-327.679992675781
1200.3208798,-327.679992675781
1200.3365048,-316.760009765625
1200.3521298,-295.170013427734
1200.3677548,-273.679992675781
1200.3833798,-252.740005493164
1200.3990048,-232.289993286133
1200.4146298,-212.240005493164
1200.4302548,-192.889999389648
1200.4458798,-174.899993896484
1200.4615048,-158.929992675781
1200.4771298,-145.190002441406
1200.4927548,-133.520004272461
1200.5083798,-123.709999084473
1200.5240048,-115.620002746582
1200.5396298,-108.779998779297
1200.5552548,-102.059997558594
1200.5708798,-93.620002746582
1200.5865048,-80.7099990844727
1200.6021298,-64.8199996948242
1200.6177548,-46.8899993896484
1200.6333798,-28.1000003814697
1200.6490048,-9.27000045776367
1200.6646298,9.05000019073486
1200.6802548,26.5400009155273
1200.6958798,42.9799995422363
1200.7115048,58.2799987792969
1200.7271298,72.4599990844727
1200.7427548,85.5999984741211
1200.7583798,97.7799987792969
1200.7740048,108.870002746582
1200.7896298,118.529998779297
1200.8052548,126.430000305176
1200.8208798,132.589996337891
1200.8365048,137.419998168945
1200.8521298,141.490005493164
1200.8677548,145.199996948242
1200.8833798,148.589996337891
1200.8990048,151.600006103516
1200.9146298,154.419998168945
1200.9302548,157.389999389648
1200.9458798,160.699996948242
1200.9615048,164.25
1200.9771298,167.75
1200.9927548,171.029998779297
1201.0083798,174.169998168945
1201.0240048,177.330001831055
1201.0396298,180.509994506836
1201.0552548,183.509994506836
1201.0708798,186.169998168945
1201.0865048,188.380004882813
1201.1021298,190.179992675781
1201.1177548,191.619995117188
1201.1333798,192.759994506836
1201.1490048,193.619995117188
1201.1646298,194.190002441406
1201.1802548,194.460006713867
1201.1958798,194.429992675781
1201.2115048,194.110000610352
1201.2271298,193.550003051758
1201.2427548,192.770004272461
1201.2583798,191.809997558594
1201.2740048,190.729995727539
1201.2896298,189.679992675781
1201.3052548,188.960006713867
1201.3208798,188.970001220703
1201.3365048,189.970001220703
1201.3521298,191.820007324219
1201.3677548,194.059997558594
1201.3833798,196.110000610352
1201.3990048,197.559997558594
1201.4146298,198.309997558594
1201.4302548,198.630004882813
1201.4458798,199.119995117188
1201.4615048,200.320007324219
1201.4771298,202.389999389648
1201.4927548,205.169998168945
1201.5083798,208.470001220703
1201.5240048,212.130004882813
1201.5396298,215.869995117188
1201.5552548,218.949996948242
1201.5708798,220.25
1201.5865048,214.389999389648
1201.6021298,206.520004272461
1201.6177548,197.589996337891
1201.6333798,188.399993896484
1201.6490048,179.270004272461
1201.6646298,170.210006713867
1201.6802548,161.190002441406
1201.6958798,152.179992675781
1201.7115048,143.050003051758
1201.7271298,133.449996948242
1201.7427548,123.069999694824
1201.7583798,111.889999389648
1201.7740048,100.209999084473
1201.7896298,88.370002746582
1201.8052548,76.6600036621094
1201.8208798,65.3000030517578
1201.8365048,54.4799995422363
1201.8521298,44.4500007629395
1201.8677548,35.3600006103516
1201.8833798,27.2399997711182
1201.8990048,20.0100002288818
1201.9146298,13.5900001525879
1201.9302548,7.94000005722046
1201.9458798,2.9300000667572
1201.9615048,-1.61000001430511
1201.9771298,-5.86999988555908
1201.9927548,-9.94999980926514
1202.0083798,-13.8000001907349
1202.0240048,-17.3600006103516
1202.0396298,-20.5499992370605
1202.0552548,-23.2600002288818
1202.0708798,-25.2900009155273
1202.0865048,-26.4799995422363
1202.1021298,-26.8700008392334
1202.1177548,-26.7999992370605
1202.1333798,-26.6900005340576
1202.1490048,-26.7199993133545
1202.1646298,-26.6000003814697
1202.1802548,-25.9799995422363
1202.1958798,-24.8999996185303
1202.2115048,-23.8099994659424
1202.2271298,-23.2099990844727
1202.2427548,-23.3299999237061
1202.2583798,-24.0499992370605
1202.2740048,-25.0300006866455
1202.2896298,-25.8500003814697
1202.3052548,-26.2000007629395
1202.3208798,-25.9899997711182
1202.3365048,-25.1000003814697
1202.3521298,-23.1800003051758
1202.3677548,-19.8899993896484
1202.3833798,-15.3400001525879
1202.3990048,-10.3400001525879
1202.4146298,-6.17999982833862
1202.4302548,-3.75
1202.4458798,-3.0
1202.4615048,-3.30999994277954
1202.4771298,-4.26999998092651
1202.4927548,-6.0
1202.5083798,-8.6899995803833
1202.5240048,-12.289999961853
1202.5396298,-16.4500007629395
1202.5552548,-20.7600002288818
1202.5708798,-24.8700008392334
1202.5865048,-28.1900005340576
1202.6021298,-31.1100006103516
1202.6177548,-33.6800003051758
1202.6333798,-35.9300003051758
1202.6490048,-37.7900009155273
1202.6646298,-39.3400001525879
1202.6802548,-40.8699989318848
1202.6958798,-42.9799995422363
1202.7115048,-46.3600006103516
1202.7271298,-51.5200004577637
1202.7427548,-58.5299987792969
1202.7583798,-66.9400024414063
1202.7740048,-75.9899978637695
1202.7896298,-84.8899993896484
1202.8052548,-93.0699996948242
1202.8208798,-100.330001831055
1202.8365048,-106.769996643066
1202.8521298,-112.690002441406
1202.8677548,-118.370002746582
1202.8833798,-123.98999786377
1202.8990048,-129.770004272461
1202.9146298,-136.089996337891
1202.9302548,-143.300003051758
1202.9458798,-151.300003051758
1202.9615048,-159.360000610352
1202.9771298,-166.410003662109
1202.9927548,-171.789993286133
1203.0083798,-175.850006103516
1203.0240048,-179.389999389648
1203.0396298,-182.740005493164
1203.0552548,-185.589996337891
1203.0708798,-187.429992675781
1203.0865048,-188.039993286133
1203.1021298,-187.600006103516
1203.1177548,-186.490005493164
1203.1333798,-185.130004882813
1203.1490048,-183.740005493164
1203.1646298,-182.419998168945
1203.1802548,-181.270004272461
1203.1958798,-180.580001831055
1203.2115048,-180.630004882813
1203.2271298,-181.369995117188
1203.2427548,-182.139999389648
1203.2583798,-181.820007324219
1203.2740048,-179.619995117188
1203.2896298,-175.660003662109
1203.3052548,-170.699996948242
1203.3208798,-165.369995117188
1203.3365048,-159.970001220703
1203.3521298,-154.669998168945
1203.3677548,-149.639999389648
1203.3833798,-144.929992675781
1203.3990048,-140.300003051758
1203.4146298,-135.190002441406
1203.4302548,-129.169998168945
1203.4458798,-122.309997558594
1203.4615048,-115.029998779297
1203.4771298,-107.629997253418
1203.4927548,-100.169998168945
1203.5083798,-92.5699996948242
1203.5240048,-84.7900009155273
1203.5396298,-76.9199981689453
1203.5552548,-68.9599990844727
1203.5708798,-60.7799987792969
1203.5865048,-52.0699996948242
1203.6021298,-43.0299987792969
1203.6177548,-33.8400001525879
1203.6333798,-24.8400001525879
1203.6490048,-16.3099994659424
1203.6646298,-8.36999988555908
1203.6802548,-1.00999999046326
1203.6958798,5.88000011444092
1203.7115048,12.4099998474121
1203.7271298,18.6000003814697
1203.7427548,24.4300003051758
1203.7583798,29.9099998474121
1203.7740048,35.1100006103516
1203.7896298,40.1100006103516
1203.8052548,44.939998626709
1203.8208798,49.5999984741211
1203.8365048,54.0200004577637
1203.8521298,58.1300010681152
1203.8677548,61.8600006103516
1203.8833798,65.2099990844727
1203.8990048,68.2300033569336
1203.9146298,71.0199966430664
1203.9302548,73.6600036621094
1203.9458798,76.1800003051758
1203.9615048,78.5
1203.9771298,80.4800033569336
1203.9927548,81.9700012207031
1204.0083798,82.9400024414063
1204.0240048,83.4199981689453
1204.0396298,83.4400024414063
1204.0552548,83.0299987792969
1204.0708798,82.2699966430664
1204.0865048,81.4400024414063
1204.1021298,80.9499969482422
1204.1177548,81.129997253418
1204.1333798,81.9700012207031
1204.1490048,83.25
1204.1646298,84.7600021362305
1204.1802548,86.4199981689453
1204.1958798,88.2300033569336
1204.2115048,90.2099990844727
1204.2271298,92.3000030517578
1204.2427548,94.4199981689453
1204.2583798,96.5500030517578
1204.2740048,98.7399978637695
1204.2896298,101.129997253418
1204.3052548,103.730003356934
1204.3208798,106.449996948242
1204.3365048,109.040000915527
1204.3521298,111.309997558594
1204.3677548,113.150001525879
1204.3833798,114.589996337891
1204.3990048,115.699996948242
1204.4146298,116.540000915527
1204.4302548,117.139999389648
1204.4458798,117.519996643066
1204.4615048,117.720001220703
1204.4771298,117.839996337891
1204.4927548,117.970001220703
1204.5083798,118.129997253418
1204.5240048,118.199996948242
1204.5396298,118.01000213623
1204.5552548,117.410003662109
1204.5708798,116.389999389648
1204.5865048,115.019996643066
1204.6021298,113.400001525879
1204.6177548,111.599998474121
1204.6333798,109.620002746582
1204.6490048,107.48999786377
1204.6646298,105.23999786377
1204.6802548,102.870002746582
1204.6958798,100.330001831055
1204.7115048,97.5599975585938
1204.7271298,94.5299987792969
1204.7427548,91.2799987792969
1204.7583798,87.8300018310547
1204.7740048,84.1800003051758
1204.7896298,80.4000015258789
1204.8052548,76.5599975585938
1204.8208798,72.8099975585938
1204.8365048,69.1699981689453
1204.8521298,65.6100006103516
1204.8677548,62.0299987792969
1204.8833798,58.4300003051758
1204.8990048,54.9000015258789
1204.9146298,51.5499992370605
1204.9302548,48.4199981689453
1204.9458798,45.4900016784668
1204.9615048,42.8499984741211
1204.9771298,40.7000007629395
1204.9927548,39.2799987792969
1205.0083798,38.6199989318848
1205.0240048,38.5699996948242
1205.0396298,38.939998626709
1205.0552548,39.560001373291
1205.0708798,40.2799987792969
1205.0865048,40.8699989318848
1205.1021298,41.0499992370605
1205.1177548,40.6300010681152
1205.1333798,39.6300010681152
1205.1490048,38.2299995422363
1205.1646298,36.560001373291
1205.1802548,34.6300010681152
1205.1958798,32.439998626709
1205.2115048,30.0400009155273
1205.2271298,27.5300006866455
1205.2427548,25.0100002288818
1205.2583798,22.6100006103516
1205.2740048,20.3799991607666
1205.2896298,18.3400001525879
1205.3052548,16.4500007629395
1205.3208798,14.7200002670288
1205.3365048,13.1599998474121
1205.3521298,11.7600002288818
1205.3677548,10.3999996185303
1205.3833798,8.86999988555908
1205.3990048,7.03000020980835
1205.4146298,4.90000009536743
1205.4302548,2.60999989509583
1205.4458798,0.259999990463257
1205.4615048,-2.09999990463257
1205.4771298,-4.5
1205.4927548,-6.92999982833862
1205.5083798,-9.35999965667725
1205.5240048,-11.7700004577637
1205.5396298,-14.1000003814697
1205.5552548,-16.3600006103516
1205.5708798,-18.5100002288818
1205.5865048,-20.5100002288818
1205.6021298,-22.2399997711182
1205.6177548,-23.6100006103516
1205.6333798,-24.6100006103516
1205.6490048,-25.3700008392334
1205.6646298,-26.0900001525879
1205.6802548,-26.7900009155273
1205.6958798,-27.2600002288818
1205.7115048,-27.2000007629395
1205.7271298,-26.5599994659424
1205.7427548,-25.5
1205.7583798,-24.1399993896484
1205.7740048,-22.4899997711182
1205.7896298,-20.6100006103516
1205.8052548,-18.7600002288818
1205.8208798,-17.4099998474121
1205.8365048,-16.9300003051758
1205.8521298,-17.3099994659424
1205.8677548,-18.3099994659424
1205.8833798,-19.7000007629395
1205.8990048,-21.4200000762939
1205.9146298,-23.4599990844727
1205.9302548,-25.7399997711182
1205.9458798,-28.1299991607666
1205.9615048,-30.4500007629395
1205.9771298,-32.5400009155273
1205.9927548,-34.3199996948242
1206.0083798,-35.7700004577637
1206.0240048,-36.9199981689453
1206.0396298,-37.7000007629395
1206.0552548,-38.0499992370605
1206.0708798,-38.0200004577637
1206.0865048,-37.8300018310547
1206.1021298,-37.8400001525879
1206.1177548,-38.310001373291
1206.1333798,-39.1599998474121
1206.1490048,-40.1800003051758
1206.1646298,-41.2000007629395
1206.1802548,-42.2400016784668
1206.1958798,-43.3800010681152
1206.2115048,-44.6699981689453
1206.2271298,-46.0699996948242
1206.2427548,-47.4900016784668
1206.2583798,-48.8899993896484
1206.2740048,-50.25
1206.2896298,-51.5699996948242
1206.3052548,-52.7700004577637
1206.3208798,-53.6800003051758
1206.3365048,-54.1699981689453
1206.3521298,-54.2200012207031
