Time(s),Value(%)
377.0030367,10.2299995422363
377.0186617,-8.92000007629395
377.0342867,-33.7099990844727
377.0499117,-64.129997253418
377.0655367,-100.51000213623
377.0811617,-141.820007324219
377.0967867,-184.559997558594
377.1124117,-223.690002441406
377.1280367,-255.160003662109
377.1436617,-277.929992675781
377.1592867,-295.920013427734
377.1749117,-306.769989013672
377.1905367,-312.230010986328
377.2061617,-317.209991455078
377.2217867,-327.679992675781
377.2374117,-327.679992675781
377.2530367,-327.679992675781
377.2686617,-327.679992675781
377.2842867,-327.679992675781
377.2999117,-327.679992675781
377.3155367,-327.679992675781
377.3311617,-327.679992675781
377.3467867,-327.679992675781
377.3624117,-327.679992675781
377.3780367,-327.679992675781
377.3936617,-327.679992675781
377.4092867,-327.679992675781
377.4249117,-327.679992675781
377.4405367,-321.809997558594
377.4561617,-318.459991455078
377.4717867,-321.579986572266
377.4874117,-327.589996337891
377.5030367,-327.679992675781
377.5186617,-327.679992675781
377.5342867,-327.679992675781
377.5499117,-327.679992675781
377.5655367,-320.720001220703
377.5811617,-295.799987792969
377.5967867,-264.630004882813
377.6124117,-231.149993896484
377.6280367,-197.949996948242
377.6436617,-166.029998779297
377.6592867,-135.410003662109
377.6749117,-105.669998168945
377.6905367,-76.0599975585938
377.7061617,-45.5499992370605
377.7217867,-13.2799997329712
377.7374117,20.5699996948242
377.7530367,54.5499992370605
377.7686617,86.3300018310547
377.7842867,113.919998168945
377.7999117,136.710006713867
377.8155367,155.410003662109
377.8311617,171.160003662109
377.8467867,184.169998168945
377.8624117,193.259994506836
377.8780367,197.360000610352
377.8936617,197.210006713867
377.9092867,195.279998779297
377.9249117,194.130004882813
377.9405367,195.130004882813
377.9561617,197.830001831055
377.9717867,199.350006103516
377.9874117,194.869995117188
378.0030367,180.300003051758
378.0186617,155.059997558594
378.0342867,122.069999694824
378.0499117,85.5500030517578
378.0655367,48.9700012207031
378.0811617,14.9799995422363
378.0967867,-12.6700000762939
378.1124117,-28.1900005340576
378.1280367,-26.3299999237061
378.1436617,-6.21000003814697
378.1592867,27.75
378.1749117,68.5299987792969
378.1905367,110.190002441406
378.2061617,149.070007324219
378.2217867,183.800003051758
378.2374117,214.600006103516
378.2530367,242.139999389648
378.2686617,266.839996337891
378.2842867,288.739990234375
378.2999117,307.869995117188
378.3155367,324.380004882813
378.3311617,327.670013427734
378.3467867,327.670013427734
378.3624117,327.670013427734
378.3780367,327.670013427734
378.3936617,327.670013427734
378.4092867,327.670013427734
378.4249117,327.670013427734
378.4405367,327.670013427734
378.4561617,327.670013427734
378.4717867,327.670013427734
378.4874117,327.670013427734
378.5030367,327.670013427734
378.5186617,327.670013427734
378.5342867,327.670013427734
378.5499117,327.670013427734
378.5655367,327.670013427734
378.5811617,327.670013427734
378.5967867,327.670013427734
378.6124117,327.670013427734
378.6280367,327.670013427734
378.6436617,327.670013427734
378.6592867,327.670013427734
378.6749117,327.670013427734
378.6905367,327.670013427734
378.7061617,327.670013427734
378.7217867,327.670013427734
378.7374117,327.670013427734
378.7530367,327.670013427734
378.7686617,327.670013427734
378.7842867,327.670013427734
378.7999117,327.670013427734
378.8155367,327.670013427734
378.8311617,327.670013427734
378.8467867,327.670013427734
378.8624117,327.670013427734
378.8780367,327.670013427734
378.8936617,327.670013427734
378.9092867,327.670013427734
378.9249117,327.670013427734
378.9405367,327.670013427734
378.9561617,316.600006103516
378.9717867,238.360000610352
378.9874117,168.669998168945
379.0030367,105.610000610352
379.0186617,47.5200004577637
379.0342867,-6.34000015258789
379.0499117,-56.2999992370605
379.0655367,-102.76000213623
379.0811617,-146.429992675781
379.0967867,-188.399993896484
379.1124117,-229.979995727539
379.1280367,-272.200012207031
379.1436617,-315.140014648438
379.1592867,-327.679992675781
379.1749117,-327.679992675781
379.1905367,-327.679992675781
379.2061617,-327.679992675781
379.2217867,-327.679992675781
379.2374117,-327.679992675781
379.2530367,-327.679992675781
379.2686617,-327.679992675781
379.2842867,-327.679992675781
379.2999117,-327.679992675781
379.3155367,-327.679992675781
379.3311617,-327.679992675781
379.3467867,-327.679992675781
379.3624117,-327.679992675781
379.3780367,-327.679992675781
379.3936617,-327.679992675781
379.4092867,-327.679992675781
379.4249117,-327.679992675781
379.4405367,-327.679992675781
379.4561617,-327.679992675781
379.4717867,-327.679992675781
379.4874117,-327.679992675781
379.5030367,-327.679992675781
379.5186617,-327.679992675781
379.5342867,-327.679992675781
379.5499117,-327.679992675781
379.5655367,-327.679992675781
379.5811617,-327.679992675781
379.5967867,-327.679992675781
379.6124117,-327.679992675781
379.6280367,-327.679992675781
379.6436617,-327.679992675781
379.6592867,-327.679992675781
379.6749117,-327.679992675781
379.6905367,-327.679992675781
379.7061617,-327.679992675781
379.7217867,-327.679992675781
379.7374117,-327.679992675781
379.7530367,-327.679992675781
379.7686617,-327.679992675781
379.7842867,-327.679992675781
379.7999117,-327.679992675781
379.8155367,-327.679992675781
379.8311617,-327.679992675781
379.8467867,-327.679992675781
379.8624117,-327.679992675781
379.8780367,-327.679992675781
379.8936617,-327.679992675781
379.9092867,-327.679992675781
379.9249117,-327.679992675781
379.9405367,-327.679992675781
379.9561617,-327.679992675781
379.9717867,-327.679992675781
379.9874117,-327.679992675781
380.0030367,-327.679992675781
380.0186617,-327.679992675781
380.0342867,-327.679992675781
380.0499117,-327.679992675781
380.0655367,-327.679992675781
380.0811617,-327.679992675781
380.0967867,-327.679992675781
380.1124117,-324.200012207031
380.1280367,-312.529998779297
380.1436617,-302.489990234375
380.1592867,-297.829986572266
380.1749117,-292.950012207031
380.1905367,-287.179992675781
380.2061617,-280.170013427734
380.2217867,-271.769989013672
380.2374117,-261.779998779297
380.2530367,-250.009994506836
380.2686617,-236.470001220703
380.2842867,-221.550003051758
380.2999117,-205.899993896484
380.3155367,-190.179992675781
380.3311617,-174.809997558594
380.3467867,-159.899993896484
380.3624117,-145.419998168945
380.3780367,-131.520004272461
380.3936617,-118.790000915527
380.4092867,-107.839996337891
380.4249117,-98.8199996948242
380.4405367,-91.25
380.4561617,-84.3499984741211
380.4717867,-77.4199981689453
380.4874117,-70.0100021362305
380.5030367,-61.7299995422363
380.5186617,-52.1699981689453
380.5342867,-41.1699981689453
380.5499117,-29.2099990844727
380.5655367,-17.2099990844727
380.5811617,-5.92999982833862
380.5967867,4.42999982833862
380.6124117,14.1099996566772
380.6280367,23.5400009155273
380.6436617,33.0900001525879
380.6592867,43.25
380.6749117,54.6599998474121
380.6905367,67.8300018310547
380.7061617,82.8399963378906
380.7217867,99.6600036621094
380.7374117,118.629997253418
380.7530367,140.160003662109
380.7686617,163.960006713867
380.7842867,188.839996337891
380.7999117,213.160003662109
380.8155367,235.899993896484
380.8311617,257.089996337891
380.8467867,277.019989013672
380.8624117,295.200012207031
380.8780367,310.510009765625
380.8936617,322.239990234375
380.9092867,327.670013427734
380.9249117,327.670013427734
380.9405367,327.670013427734
380.9561617,327.670013427734
380.9717867,327.670013427734
380.9874117,327.670013427734
381.0030367,327.670013427734
381.0186617,327.670013427734
381.0342867,327.670013427734
381.0499117,327.670013427734
381.0655367,327.670013427734
381.0811617,327.670013427734
381.0967867,326.690002441406
381.1124117,305.260009765625
381.1280367,269.839996337891
381.1436617,221.029998779297
381.1592867,167.860000610352
381.1749117,111.889999389648
381.1905367,59.2000007629395
381.2061617,13.1999998092651
381.2217867,-23.1900005340576
381.2374117,-45.3400001525879
381.2530367,-48.810001373291
381.2686617,-33.7000007629395
381.2842867,-6.44000005722046
381.2999117,22.6200008392334
381.3155367,44.2799987792969
381.3311617,54.5200004577637
381.3467867,54.9300003051758
381.3624117,49.1399993896484
381.3780367,36.7999992370605
381.3936617,11.1300001144409
381.4092867,-35.0900001525879
381.4249117,-102.400001525879
381.4405367,-187.0
381.4561617,-288.0
381.4717867,-327.679992675781
381.4874117,-327.679992675781
381.5030367,-327.679992675781
381.5186617,-327.679992675781
381.5342867,-327.679992675781
381.5499117,-327.679992675781
381.5655367,-327.679992675781
381.5811617,-327.679992675781
381.5967867,-327.679992675781
381.6124117,-327.679992675781
381.6280367,-327.679992675781
381.6436617,-327.679992675781
381.6592867,-327.679992675781
381.6749117,-327.679992675781
381.6905367,-327.679992675781
381.7061617,-327.679992675781
381.7217867,-229.210006713867
381.7374117,-47.2000007629395
381.7530367,209.410003662109
381.7686617,327.670013427734
381.7842867,327.670013427734
381.7999117,327.670013427734
381.8155367,327.670013427734
381.8311617,327.670013427734
381.8467867,327.670013427734
381.8624117,327.670013427734
381.8780367,327.670013427734
381.8936617,327.670013427734
381.9092867,327.670013427734
381.9249117,327.670013427734
381.9405367,327.670013427734
381.9561617,327.670013427734
381.9717867,327.670013427734
381.9874117,327.670013427734
382.0030367,327.670013427734
382.0186617,327.670013427734
382.0342867,327.670013427734
382.0499117,327.670013427734
382.0655367,327.670013427734
382.0811617,327.670013427734
382.0967867,327.670013427734
382.1124117,327.670013427734
382.1280367,327.670013427734
382.1436617,327.670013427734
382.1592867,327.670013427734
382.1749117,327.670013427734
382.1905367,327.670013427734
382.2061617,327.670013427734
382.2217867,327.670013427734
382.2374117,327.670013427734
382.2530367,139.110000610352
382.2686617,-327.679992675781
382.2842867,-327.679992675781
382.2999117,-327.679992675781
382.3155367,-327.679992675781
382.3311617,-327.679992675781
382.3467867,-327.679992675781
382.3624117,-327.679992675781
382.3780367,-327.679992675781
382.3936617,-327.679992675781
382.4092867,-327.679992675781
382.4249117,110.610000610352
382.4405367,327.670013427734
382.4561617,327.670013427734
382.4717867,327.670013427734
382.4874117,327.670013427734
382.5030367,327.670013427734
382.5186617,327.670013427734
382.5342867,327.670013427734
382.5499117,327.670013427734
382.5655367,327.670013427734
382.5811617,327.670013427734
382.5967867,327.670013427734
382.6124117,327.670013427734
382.6280367,327.670013427734
382.6436617,327.670013427734
382.6592867,327.670013427734
382.6749117,327.670013427734
382.6905367,327.670013427734
382.7061617,327.670013427734
382.7217867,327.670013427734
382.7374117,327.670013427734
382.7530367,327.670013427734
382.7686617,327.670013427734
382.7842867,327.670013427734
382.7999117,327.670013427734
382.8155367,327.670013427734
382.8311617,327.670013427734
382.8467867,327.670013427734
382.8624117,327.670013427734
382.8780367,286.239990234375
382.8936617,139.25
382.9092867,-19.8099994659424
382.9249117,-182.0
382.9405367,-327.679992675781
382.9561617,-327.679992675781
382.9717867,-327.679992675781
382.9874117,-327.679992675781
383.0030367,-327.679992675781
383.0186617,-327.679992675781
383.0342867,-327.679992675781
383.0499117,-327.679992675781
383.0655367,-327.679992675781
383.0811617,-327.679992675781
383.0967867,-327.679992675781
383.1124117,-327.679992675781
383.1280367,-327.679992675781
383.1436617,-327.679992675781
383.1592867,-327.679992675781
383.1749117,-327.679992675781
383.1905367,-327.679992675781
383.2061617,-327.679992675781
383.2217867,-327.679992675781
383.2374117,-327.679992675781
383.2530367,-327.679992675781
383.2686617,-327.679992675781
383.2842867,-327.679992675781
383.2999117,-327.679992675781
383.3155367,-327.679992675781
383.3311617,-327.679992675781
383.3467867,-327.679992675781
383.3624117,-327.679992675781
383.3780367,-327.679992675781
383.3936617,-327.679992675781
383.4092867,-327.679992675781
383.4249117,-134.970001220703
383.4405367,59.5200004577637
383.4561617,237.350006103516
383.4717867,327.670013427734
383.4874117,327.670013427734
383.5030367,327.670013427734
383.5186617,327.670013427734
383.5342867,327.670013427734
383.5499117,327.670013427734
383.5655367,327.670013427734
383.5811617,246.529998779297
383.5967867,127.050003051758
383.6124117,8.44999980926514
383.6280367,-102.339996337891
383.6436617,-193.0
383.6592867,-253.229995727539
383.6749117,-283.149993896484
383.6905367,-291.160003662109
383.7061617,-285.399993896484
383.7217867,-269.720001220703
383.7374117,-245.660003662109
383.7530367,-215.139999389648
383.7686617,-180.570007324219
383.7842867,-142.509994506836
383.7999117,-98.2799987792969
383.8155367,-44.2799987792969
383.8311617,20.6499996185303
383.8467867,95.379997253418
383.8624117,178.809997558594
383.8780367,270.040008544922
383.8936617,327.670013427734
383.9092867,327.670013427734
383.9249117,327.670013427734
383.9405367,327.670013427734
383.9561617,327.670013427734
383.9717867,327.670013427734
383.9874117,327.670013427734
384.0030367,327.670013427734
384.0186617,327.670013427734
384.0342867,327.670013427734
384.0499117,327.670013427734
384.0655367,327.670013427734
384.0811617,327.670013427734
384.0967867,327.670013427734
384.1124117,327.670013427734
384.1280367,327.670013427734
384.1436617,327.670013427734
384.1592867,327.670013427734
384.1749117,327.670013427734
384.1905367,327.670013427734
384.2061617,327.670013427734
384.2217867,327.670013427734
384.2374117,327.670013427734
384.2530367,327.670013427734
384.2686617,327.670013427734
384.2842867,327.670013427734
384.2999117,327.670013427734
384.3155367,327.670013427734
384.3311617,327.670013427734
384.3467867,327.670013427734
384.3624117,327.670013427734
384.3780367,327.670013427734
384.3936617,327.670013427734
384.4092867,327.670013427734
384.4249117,327.670013427734
384.4405367,91.2099990844727
384.4561617,-153.0
384.4717867,-327.679992675781
384.4874117,-327.679992675781
384.5030367,-327.679992675781
384.5186617,-327.679992675781
384.5342867,-327.679992675781
384.5499117,-327.679992675781
384.5655367,-327.679992675781
384.5811617,-327.679992675781
384.5967867,-327.679992675781
384.6124117,-327.679992675781
384.6280367,-327.679992675781
384.6436617,-327.679992675781
384.6592867,-327.679992675781
384.6749117,-327.679992675781
384.6905367,-327.679992675781
384.7061617,-327.679992675781
384.7217867,-327.679992675781
384.7374117,-327.679992675781
384.7530367,-327.679992675781
384.7686617,-327.679992675781
384.7842867,-327.679992675781
384.7999117,-327.679992675781
384.8155367,-327.679992675781
384.8311617,-327.679992675781
384.8467867,-327.679992675781
384.8624117,-327.679992675781
384.8780367,-327.679992675781
384.8936617,-327.679992675781
384.9092867,-327.679992675781
384.9249117,-327.679992675781
384.9405367,-327.679992675781
384.9561617,-327.679992675781
384.9717867,-327.679992675781
384.9874117,-327.679992675781
385.0030367,-327.679992675781
385.0186617,-327.679992675781
385.0342867,-327.679992675781
385.0499117,-327.679992675781
385.0655367,-327.679992675781
385.0811617,-327.679992675781
385.0967867,-327.679992675781
385.1124117,-327.679992675781
385.1280367,-327.679992675781
385.1436617,-327.679992675781
385.1592867,-327.679992675781
385.1749117,-327.679992675781
385.1905367,-327.679992675781
385.2061617,-327.679992675781
385.2217867,-327.679992675781
385.2374117,-327.679992675781
385.2530367,-327.679992675781
385.2686617,-327.679992675781
385.2842867,-327.679992675781
385.2999117,-327.679992675781
385.3155367,-327.679992675781
385.3311617,-327.679992675781
385.3467867,-327.679992675781
385.3624117,-327.679992675781
385.3780367,-327.679992675781
385.3936617,-327.679992675781
385.4092867,-327.679992675781
385.4249117,-327.679992675781
385.4405367,-327.679992675781
385.4561617,-327.679992675781
385.4717867,-327.679992675781
385.4874117,-327.679992675781
385.5030367,-327.679992675781
385.5186617,-327.679992675781
385.5342867,-327.679992675781
385.5499117,-327.679992675781
385.5655367,-327.679992675781
385.5811617,-327.679992675781
385.5967867,-327.679992675781
385.6124117,-327.679992675781
385.6280367,-327.679992675781
385.6436617,-327.679992675781
385.6592867,-327.679992675781
385.6749117,-327.679992675781
385.6905367,-234.720001220703
385.7061617,-136.449996948242
385.7217867,-44.2900009155273
385.7374117,37.25
385.7530367,104.819999694824
385.7686617,158.460006713867
385.7842867,201.080001831055
385.7999117,236.139999389648
385.8155367,267.149993896484
385.8311617,298.309997558594
385.8467867,327.670013427734
385.8624117,327.670013427734
385.8780367,327.670013427734
385.8936617,327.670013427734
385.9092867,327.670013427734
385.9249117,327.670013427734
385.9405367,327.670013427734
385.9561617,327.670013427734
385.9717867,327.670013427734
385.9874117,327.670013427734
386.0030367,327.670013427734
386.0186617,327.670013427734
386.0342867,327.670013427734
386.0499117,327.670013427734
386.0655367,327.670013427734
386.0811617,327.670013427734
386.0967867,327.670013427734
386.1124117,327.670013427734
386.1280367,327.670013427734
386.1436617,327.670013427734
386.1592867,327.670013427734
386.1749117,327.670013427734
386.1905367,327.670013427734
386.2061617,327.670013427734
386.2217867,327.670013427734
386.2374117,327.670013427734
386.2530367,327.670013427734
386.2686617,327.670013427734
386.2842867,327.670013427734
386.2999117,327.670013427734
386.3155367,327.670013427734
386.3311617,327.670013427734
386.3467867,327.670013427734
386.3624117,327.670013427734
386.3780367,327.670013427734
386.3936617,327.670013427734
386.4092867,327.670013427734
386.4249117,327.670013427734
386.4405367,327.670013427734
386.4561617,327.670013427734
386.4717867,327.670013427734
386.4874117,327.670013427734
386.5030367,327.670013427734
386.5186617,327.670013427734
386.5342867,327.670013427734
386.5499117,327.670013427734
386.5655367,327.670013427734
386.5811617,327.670013427734
386.5967867,327.670013427734
386.6124117,327.670013427734
386.6280367,327.670013427734
386.6436617,327.670013427734
386.6592867,327.670013427734
386.6749117,327.670013427734
386.6905367,327.670013427734
386.7061617,327.670013427734
386.7217867,327.670013427734
386.7374117,327.670013427734
386.7530367,327.670013427734
386.7686617,327.670013427734
386.7842867,327.670013427734
386.7999117,327.670013427734
386.8155367,327.670013427734
386.8311617,327.670013427734
386.8467867,327.670013427734
386.8624117,283.970001220703
386.8780367,211.009994506836
386.8936617,143.360000610352
386.9092867,84.0400009155273
386.9249117,32.0999984741211
386.9405367,-15.3299999237061
386.9561617,-59.3400001525879
386.9717867,-98.5299987792969
386.9874117,-131.229995727539
387.0030367,-157.289993286133
387.0186617,-178.119995117188
387.0342867,-195.369995117188
387.0499117,-209.75
387.0655367,-221.119995117188
387.0811617,-229.300003051758
387.0967867,-234.440002441406
387.1124117,-236.880004882813
387.1280367,-237.029998779297
387.1436617,-235.339996337891
387.1592867,-231.720001220703
387.1749117,-225.050003051758
387.1905367,-212.800003051758
387.2061617,-191.889999389648
387.2217867,-160.889999389648
387.2374117,-121.75
387.2530367,-79.1100006103516
387.2686617,-37.8400001525879
387.2842867,-1.0
387.2999117,30.7000007629395
387.3155367,58.1500015258789
387.3311617,82.5699996948242
387.3467867,104.860000610352
387.3624117,125.480003356934
387.3780367,144.679992675781
387.3936617,162.759994506836
387.4092867,180.0
387.4249117,196.179992675781
387.4405367,209.729995727539
387.4561617,217.520004272461
387.4717867,216.570007324219
387.4874117,206.210006713867
387.5030367,188.470001220703
387.5186617,166.839996337891
387.5342867,144.589996337891
387.5499117,123.75
387.5655367,104.970001220703
387.5811617,88.1600036621094
387.5967867,73.8199996948242
387.6124117,63.6800003051758
387.6280367,59.5999984741211
387.6436617,61.9700012207031
387.6592867,69.5500030517578
