Time(s),Value(%)
1106.0042358,-51.5400009155273
1106.0198608,-49.9500007629395
1106.0354858,-48.3300018310547
1106.0511108,-46.6800003051758
1106.0667358,-44.4799995422363
1106.0823608,-40.5800018310547
1106.0979858,-33.4000015258789
1106.1136108,-21.6599998474121
1106.1292358,-5.28000020980835
1106.1448608,14.1700000762939
1106.1604858,33.9500007629395
1106.1761108,51.0900001525879
1106.1917358,63.689998626709
1106.2073608,71.5199966430664
1106.2229858,75.4100036621094
1106.2386108,76.4499969482422
1106.2542358,75.4599990844727
1106.2698608,72.8499984741211
1106.2854858,68.6600036621094
1106.3011108,62.7700004577637
1106.3167358,55.2000007629395
1106.3323608,46.310001373291
1106.3479858,36.7400016784668
1106.3636108,27.2800006866455
1106.3792358,18.6800003051758
1106.3948608,11.4399995803833
1106.4104858,5.71999979019165
1106.4261108,1.35000002384186
1106.4417358,-2.05999994277954
1106.4573608,-4.98000001907349
1106.4729858,-7.80000019073486
1106.4886108,-10.8100004196167
1106.5042358,-14.1899995803833
1106.5198608,-17.9099998474121
1106.5354858,-21.8700008392334
1106.5511108,-25.9099998474121
1106.5667358,-29.6599998474121
1106.5823608,-32.75
1106.5979858,-35.0
1106.6136108,-36.439998626709
1106.6292358,-37.2700004577637
1106.6448608,-37.8400001525879
1106.6604858,-38.4700012207031
1106.6761108,-39.1300010681152
1106.6917358,-39.5699996948242
1106.7073608,-39.5
1106.7229858,-38.6699981689453
1106.7386108,-36.8800010681152
1106.7542358,-33.8499984741211
1106.7698608,-28.9400005340576
1106.7854858,-20.9099998474121
1106.8011108,-8.72999954223633
1106.8167358,7.17000007629395
1106.8323608,24.7000007629395
1106.8479858,40.9199981689453
1106.8636108,53.3800010681152
1106.8792358,61.0999984741211
1106.8948608,64.5400009155273
1106.9104858,64.8399963378906
1106.9261108,63.0400009155273
1106.9417358,59.9500007629395
1106.9573608,56.2400016784668
1106.9729858,52.3699989318848
1106.9886108,48.5400009155273
1107.0042358,44.5699996948242
1107.0198608,39.9799995422363
1107.0354858,34.5499992370605
1107.0511108,28.7299995422363
1107.0667358,23.4500007629395
1107.0823608,19.3999996185303
1107.0979858,16.6599998474121
1107.1136108,14.7700004577637
1107.1292358,12.9200000762939
1107.1448608,10.3199996948242
1107.1604858,6.59999990463257
1107.1761108,1.86000001430511
1107.1917358,-3.50999999046326
1107.2073608,-9.03999996185303
1107.2229858,-14.1899995803833
1107.2386108,-18.6100006103516
1107.2542358,-22.3199996948242
1107.2698608,-25.5799999237061
1107.2854858,-28.7199993133545
1107.3011108,-31.8299999237061
1107.3167358,-34.7599983215332
1107.3323608,-37.2900009155273
1107.3479858,-39.2599983215332
1107.3636108,-40.7099990844727
1107.3792358,-41.8499984741211
1107.3948608,-42.9799995422363
1107.4104858,-44.060001373291
1107.4261108,-44.560001373291
1107.4417358,-43.5699996948242
1107.4573608,-39.8699989318848
1107.4729858,-32.0200004577637
1107.4886108,-18.8799991607666
1107.5042358,-0.439999997615814
1107.5198608,21.6700000762939
1107.5354858,44.7200012207031
1107.5511108,65.629997253418
1107.5667358,81.7799987792969
1107.5823608,91.8300018310547
1107.5979858,95.9400024414063
1107.6136108,95.2799987792969
1107.6292358,91.3000030517578
1107.6448608,85.0599975585938
1107.6604858,77.0400009155273
1107.6761108,67.1699981689453
1107.6917358,55.25
1107.7073608,41.3600006103516
1107.7229858,26.1399993896484
1107.7386108,10.7399997711182
1107.7542358,-3.55999994277954
1107.7698608,-15.8800001144409
1107.7854858,-25.9799995422363
1107.8011108,-34.1300010681152
1107.8167358,-40.75
1107.8323608,-46.1699981689453
1107.8479858,-50.5999984741211
1107.8636108,-54.25
1107.8792358,-57.3400001525879
1107.8948608,-60.2099990844727
1107.9104858,-63.0400009155273
1107.9261108,-65.7699966430664
1107.9417358,-68.1800003051758
1107.9573608,-70.0199966430664
1107.9729858,-71.129997253418
1107.9886108,-71.4899978637695
1108.0042358,-71.2900009155273
1108.0198608,-70.8099975585938
1108.0354858,-70.2799987792969
1108.0511108,-69.7600021362305
1108.0667358,-68.9700012207031
1108.0823608,-67.4899978637695
1108.0979858,-65.0599975585938
1108.1136108,-61.689998626709
1108.1292358,-57.3499984741211
1108.1448608,-51.6800003051758
1108.1604858,-43.6399993896484
1108.1761108,-31.8099994659424
1108.1917358,-15.3100004196167
1108.2073608,5.09000015258789
1108.2229858,26.9699993133545
1108.2386108,47.2400016784668
1108.2542358,63.5
1108.2698608,74.6999969482422
1108.2854858,81.1500015258789
1108.3011108,83.8199996948242
1108.3167358,83.6600036621094
1108.3323608,81.3499984741211
1108.3479858,77.1999969482422
1108.3636108,71.2900009155273
1108.3792358,63.5299987792969
1108.3948608,53.939998626709
1108.4104858,42.9300003051758
1108.4261108,31.4899997711182
1108.4417358,20.8400001525879
1108.4573608,11.8900003433228
1108.4729858,5.07000017166138
1108.4886108,0.349999994039536
1108.5042358,-2.61999988555908
1108.5198608,-4.36999988555908
1108.5354858,-5.51999998092651
1108.5511108,-6.57000017166138
1108.5667358,-7.98000001907349
1108.5823608,-10.0500001907349
1108.5979858,-12.8100004196167
1108.6136108,-16.0100002288818
1108.6292358,-19.3299999237061
1108.6448608,-22.5900001525879
1108.6604858,-25.7700004577637
1108.6761108,-28.8799991607666
1108.6917358,-31.8099994659424
1108.7073608,-34.2599983215332
1108.7229858,-35.8899993896484
1108.7386108,-36.5900001525879
1108.7542358,-36.4900016784668
1108.7698608,-35.8499984741211
1108.7854858,-34.9500007629395
1108.8011108,-34.0699996948242
1108.8167358,-33.2200012207031
1108.8323608,-31.9899997711182
1108.8479858,-29.5100002288818
1108.8636108,-24.5499992370605
1108.8792358,-15.6700000762939
1108.8948608,-1.57000005245209
1108.9104858,18.2199993133545
1108.9261108,42.1300010681152
1108.9417358,66.4499969482422
1108.9573608,86.9700012207031
1108.9729858,100.910003662109
1108.9886108,107.680000305176
1109.0042358,108.5
1109.0198608,105.400001525879
1109.0354858,100.150001525879
1109.0511108,93.8000030517578
1109.0667358,86.9300003051758
1109.0823608,79.8199996948242
1109.0979858,72.3399963378906
1109.1136108,64.129997253418
1109.1292358,54.9900016784668
1109.1448608,45.2200012207031
1109.1604858,35.439998626709
1109.1761108,26.1000003814697
1109.1917358,17.4200000762939
1109.2073608,9.44999980926514
1109.2229858,2.11999988555908
1109.2386108,-4.78999996185303
1109.2542358,-11.5200004577637
1109.2698608,-18.2299995422363
1109.2854858,-24.9599990844727
1109.3011108,-31.6000003814697
1109.3167358,-38.0200004577637
1109.3323608,-44.0200004577637
1109.3479858,-49.2799987792969
1109.3636108,-53.5099983215332
1109.3792358,-56.5900001525879
1109.3948608,-58.6399993896484
1109.4104858,-59.9900016784668
1109.4261108,-61.0900001525879
1109.4417358,-62.189998626709
1109.4573608,-63.0099983215332
1109.4729858,-63.0699996948242
1109.4886108,-62.0499992370605
1109.5042358,-59.9099998474121
1109.5198608,-56.8699989318848
1109.5354858,-53.25
1109.5511108,-48.7400016784668
1109.5667358,-42.0200004577637
1109.5823608,-31.4099998474121
1109.5979858,-16.25
1109.6136108,2.26999998092651
1109.6292358,21.3899993896484
1109.6448608,37.9000015258789
1109.6604858,49.6599998474121
1109.6761108,56.2700004577637
1109.6917358,58.6100006103516
1109.7073608,57.9900016784668
1109.7229858,55.6100006103516
1109.7386108,52.2599983215332
1109.7542358,48.1399993896484
1109.7698608,42.9799995422363
1109.7854858,36.4000015258789
1109.8011108,28.2399997711182
1109.8167358,18.7600002288818
1109.8323608,8.65999984741211
1109.8479858,-1.01999998092651
1109.8636108,-9.22999954223633
1109.8792358,-15.3500003814697
1109.8948608,-19.4400005340576
1109.9104858,-22.1399993896484
1109.9261108,-24.2900009155273
1109.9417358,-26.5300006866455
1109.9573608,-29.1200008392334
1109.9729858,-32.0099983215332
1109.9886108,-34.9900016784668
1110.0042358,-37.8600006103516
1110.0198608,-40.4300003051758
1110.0354858,-42.6300010681152
1110.0511108,-44.560001373291
1110.0667358,-46.4099998474121
1110.0823608,-48.2599983215332
1110.0979858,-49.9599990844727
1110.1136108,-51.2299995422363
1110.1292358,-51.8899993896484
1110.1448608,-51.8800010681152
1110.1604858,-51.2799987792969
1110.1761108,-50.3199996948242
1110.1917358,-49.1399993896484
1110.2073608,-47.6100006103516
1110.2229858,-45.1300010681152
1110.2386108,-40.5699996948242
1110.2542358,-32.2999992370605
1110.2698608,-18.8999996185303
1110.2854858,-0.280000001192093
1110.3011108,21.7800006866455
1110.3167358,44.25
1110.3323608,64.120002746582
1110.3479858,79.4100036621094
1110.3636108,89.5999984741211
1110.3792358,95.3199996948242
1110.3948608,97.5899963378906
1110.4104858,97.2699966430664
1110.4261108,94.8000030517578
1110.4417358,90.1800003051758
1110.4573608,83.1999969482422
1110.4729858,73.7099990844727
1110.4886108,62.0299987792969
1110.5042358,49.1100006103516
1110.5198608,36.2599983215332
1110.5354858,24.6399993896484
1110.5511108,14.8199996948242
1110.5667358,6.57999992370605
1110.5823608,-0.779999971389771
1110.5979858,-7.8899998664856
1110.6136108,-14.9399995803833
1110.6292358,-21.7800006866455
1110.6448608,-28.1200008392334
1110.6604858,-33.8600006103516
1110.6761108,-39.0800018310547
1110.6917358,-43.8699989318848
1110.7073608,-48.1199989318848
1110.7229858,-51.6500015258789
1110.7386108,-54.3499984741211
1110.7542358,-56.2400016784668
1110.7698608,-57.4500007629395
1110.7854858,-58.0499992370605
1110.8011108,-58.0999984741211
1110.8167358,-57.7200012207031
1110.8323608,-57.060001373291
1110.8479858,-56.0400009155273
1110.8636108,-54.4500007629395
1110.8792358,-52.1500015258789
1110.8948608,-49.0699996948242
1110.9104858,-44.8400001525879
1110.9261108,-38.3300018310547
1110.9417358,-27.9200000762939
1110.9573608,-12.5799999237061
1110.9729858,7.23000001907349
1110.9886108,29.5
1111.0042358,51.3199996948242
1111.0198608,69.9300003051758
1111.0354858,83.5299987792969
1111.0511108,91.5599975585938
1111.0667358,94.5800018310547
1111.0823608,93.6699981689453
1111.0979858,89.8300018310547
1111.1136108,83.7099990844727
1111.1292358,75.5599975585938
1111.1448608,65.4300003051758
1111.1604858,53.5800018310547
1111.1761108,40.5699996948242
1111.1917358,27.3199996948242
1111.2073608,14.960000038147
1111.2229858,4.48999977111816
1111.2386108,-3.71000003814697
1111.2542358,-9.97000026702881
1111.2698608,-14.9300003051758
1111.2854858,-19.1399993896484
1111.3011108,-22.8899993896484
1111.3167358,-26.3700008392334
1111.3323608,-29.6800003051758
1111.3479858,-32.7400016784668
1111.3636108,-35.3699989318848
1111.3792358,-37.4000015258789
1111.3948608,-38.7799987792969
1111.4104858,-39.6800003051758
1111.4261108,-40.5299987792969
1111.4417358,-41.7400016784668
1111.4573608,-43.4000015258789
1111.4729858,-45.2000007629395
1111.4886108,-46.6399993896484
1111.5042358,-47.3300018310547
1111.5198608,-46.9799995422363
1111.5354858,-45.5099983215332
1111.5511108,-42.8699989318848
1111.5667358,-38.9700012207031
1111.5823608,-33.439998626709
1111.5979858,-25.5
1111.6136108,-14.3500003814697
1111.6292358,0.140000000596046
1111.6448608,16.9699993133545
1111.6604858,34.25
1111.6761108,50.0999984741211
1111.6917358,63.1100006103516
1111.7073608,72.2699966430664
1111.7229858,77.0500030517578
1111.7386108,77.6100006103516
1111.7542358,74.7699966430664
1111.7698608,69.7200012207031
1111.7854858,63.4700012207031
1111.8011108,56.6500015258789
1111.8167358,49.4300003051758
1111.8323608,41.75
1111.8479858,33.5900001525879
1111.8636108,25.1299991607666
1111.8792358,16.7800006866455
1111.8948608,9.01000022888184
1111.9104858,2.22000002861023
1111.9261108,-3.38000011444092
1111.9417358,-7.92000007629395
1111.9573608,-11.7399997711182
1111.9729858,-15.0500001907349
1111.9886108,-17.8899993896484
1112.0042358,-20.2999992370605
1112.0198608,-22.5100002288818
1112.0354858,-24.8700008392334
1112.0511108,-27.7000007629395
1112.0667358,-31.1200008392334
1112.0823608,-35.1599998474121
1112.0979858,-39.6100006103516
1112.1136108,-43.9900016784668
1112.1292358,-47.5900001525879
1112.1448608,-49.7700004577637
1112.1604858,-50.2999992370605
1112.1761108,-49.3899993896484
1112.1917358,-47.5900001525879
1112.2073608,-45.4599990844727
1112.2229858,-43.2700004577637
1112.2386108,-41.0
1112.2542358,-38.2999992370605
1112.2698608,-34.4900016784668
1112.2854858,-28.4899997711182
1112.3011108,-19.2000007629395
1112.3167358,-6.55999994277954
1112.3323608,8.32999992370605
1112.3479858,24.4699993133545
1112.3636108,41.2200012207031
1112.3792358,57.4599990844727
1112.3948608,71.5199966430664
1112.4104858,81.8300018310547
1112.4261108,87.6399993896484
1112.4417358,89.3399963378906
1112.4573608,88.25
1112.4729858,85.7699966430664
1112.4886108,82.620002746582
1112.5042358,78.620002746582
1112.5198608,72.9300003051758
1112.5354858,64.7699966430664
1112.5511108,54.1599998474121
1112.5667358,41.8600006103516
1112.5823608,29.0200004577637
1112.5979858,16.5599994659424
1112.6136108,5.07999992370605
1112.6292358,-5.09999990463257
1112.6448608,-13.8900003433228
1112.6604858,-21.3600006103516
1112.6761108,-27.7900009155273
1112.6917358,-33.6199989318848
1112.7073608,-39.2599983215332
1112.7229858,-44.9199981689453
1112.7386108,-50.4900016784668
1112.7542358,-55.7099990844727
1112.7698608,-60.3899993896484
1112.7854858,-64.3199996948242
1112.8011108,-67.3899993896484
1112.8167358,-69.6100006103516
1112.8323608,-71.2600021362305
1112.8479858,-72.7200012207031
1112.8636108,-74.2200012207031
1112.8792358,-75.6999969482422
1112.8948608,-76.7799987792969
1112.9104858,-76.9599990844727
1112.9261108,-75.8300018310547
1112.9417358,-73.0800018310547
1112.9573608,-68.3899993896484
1112.9729858,-61.2599983215332
1112.9886108,-51.0499992370605
1113.0042358,-37.4000015258789
1113.0198608,-20.7600002288818
1113.0354858,-2.50999999046326
1113.0511108,15.5699996948242
1113.0667358,31.8400001525879
1113.0823608,45.2400016784668
1113.0979858,55.5900001525879
1113.1136108,63.189998626709
1113.1292358,68.3399963378906
1113.1448608,71.1100006103516
1113.1604858,71.4599990844727
1113.1761108,69.2600021362305
1113.1917358,64.2600021362305
1113.2073608,56.2900009155273
1113.2229858,45.6500015258789
1113.2386108,33.3499984741211
1113.2542358,20.8899993896484
1113.2698608,9.56999969482422
1113.2854858,0.0299999993294477
1113.3011108,-7.73000001907349
1113.3167358,-14.1000003814697
1113.3323608,-19.4200000762939
1113.3479858,-23.9300003051758
1113.3636108,-27.7600002288818
1113.3792358,-30.8400001525879
1113.3948608,-33.060001373291
1113.4104858,-34.4300003051758
1113.4261108,-35.0699996948242
1113.4417358,-35.1500015258789
1113.4573608,-34.8899993896484
1113.4729858,-34.5400009155273
1113.4886108,-34.3600006103516
1113.5042358,-34.5299987792969
1113.5198608,-35.0400009155273
1113.5354858,-35.6500015258789
1113.5511108,-35.9300003051758
1113.5667358,-35.5900001525879
1113.5823608,-34.5800018310547
1113.5979858,-33.1199989318848
1113.6136108,-31.3600006103516
1113.6292358,-28.8299999237061
1113.6448608,-24.2900009155273
1113.6604858,-16.2199993133545
1113.6761108,-3.8199999332428
1113.6917358,12.3800001144409
1113.7073608,30.7700004577637
1113.7229858,49.1199989318848
1113.7386108,65.2799987792969
1113.7542358,77.6500015258789
1113.7698608,85.6500015258789
1113.7854858,89.5299987792969
1113.8011108,90.0800018310547
1113.8167358,88.1800003051758
1113.8323608,84.3899993896484
1113.8479858,78.8300018310547
1113.8636108,71.4400024414063
1113.8792358,62.4300003051758
1113.8948608,52.4700012207031
1113.9104858,42.5200004577637
1113.9261108,33.560001373291
1113.9417358,26.2600002288818
1113.9573608,20.75
1113.9729858,16.6900005340576
1113.9886108,13.4200000762939
1114.0042358,10.3500003814697
1114.0198608,7.09999990463257
1114.0354858,3.49000000953674
1114.0511108,-0.509999990463257
1114.0667358,-4.80999994277954
1114.0823608,-9.18000030517578
1114.0979858,-13.4899997711182
1114.1136108,-17.7600002288818
1114.1292358,-21.9500007629395
1114.1448608,-25.9200000762939
1114.1604858,-29.4699993133545
1114.1761108,-32.4599990844727
1114.1917358,-34.8600006103516
1114.2073608,-36.75
1114.2229858,-38.1599998474121
1114.2386108,-38.9900016784668
1114.2542358,-38.9599990844727
1114.2698608,-37.5999984741211
1114.2854858,-34.1399993896484
1114.3011108,-27.5599994659424
1114.3167358,-17.0200004577637
1114.3323608,-2.50999999046326
1114.3479858,14.8000001907349
1114.3636108,32.7599983215332
1114.3792358,48.9000015258789
1114.3948608,61.3800010681152
1114.4104858,69.629997253418
1114.4261108,74.2200012207031
1114.4417358,76.4000015258789
1114.4573608,77.4100036621094
1114.4729858,77.7900009155273
1114.4886108,77.0400009155273
1114.5042358,74.1600036621094
1114.5198608,68.4800033569336
1114.5354858,60.0999984741211
1114.5511108,49.7400016784668
1114.5667358,38.4000015258789
1114.5823608,27.1700000762939
1114.5979858,16.8899993896484
1114.6136108,7.8600001335144
1114.6292358,-0.389999985694885
1114.6448608,-8.64000034332275
1114.6604858,-17.2600002288818
1114.6761108,-25.9899997711182
1114.6917358,-34.4799995422363
1114.7073608,-42.560001373291
1114.7229858,-49.9900016784668
1114.7386108,-56.1800003051758
1114.7542358,-60.5400009155273
1114.7698608,-63.0200004577637
1114.7854858,-64.2300033569336
1114.8011108,-65.0899963378906
1114.8167358,-66.3300018310547
1114.8323608,-68.2600021362305
1114.8479858,-70.7600021362305
1114.8636108,-73.2699966430664
1114.8792358,-74.870002746582
1114.8948608,-74.6500015258789
1114.9104858,-72.0699996948242
1114.9261108,-67.0299987792969
1114.9417358,-59.4300003051758
1114.9573608,-49.0200004577637
1114.9729858,-35.6800003051758
1114.9886108,-19.8099994659424
1115.0042358,-2.26999998092651
1115.0198608,15.8100004196167
1115.0354858,33.2099990844727
1115.0511108,48.75
1115.0667358,61.689998626709
1115.0823608,71.870002746582
1115.0979858,79.75
1115.1136108,85.7300033569336
1115.1292358,89.5500030517578
1115.1448608,90.6100006103516
1115.1604858,88.4800033569336
1115.1761108,83.0899963378906
1115.1917358,74.6699981689453
1115.2073608,63.7400016784668
1115.2229858,50.9799995422363
1115.2386108,37.1800003051758
1115.2542358,23.0200004577637
1115.2698608,9.02000045776367
1115.2854858,-4.46999979019165
1115.3011108,-17.2900009155273
1115.3167358,-29.2900009155273
1115.3323608,-40.4199981689453
1115.3479858,-50.5699996948242
1115.3636108,-59.3899993896484
1115.3792358,-66.5899963378906
1115.3948608,-72.3099975585938
1115.4104858,-77.0
1115.4261108,-81.0999984741211
1115.4417358,-84.7799987792969
1115.4573608,-88.0699996948242
1115.4729858,-90.9000015258789
1115.4886108,-93.1699981689453
1115.5042358,-94.6500015258789
1115.5198608,-95.1999969482422
1115.5354858,-94.7900009155273
1115.5511108,-93.4100036621094
1115.5667358,-91.0699996948242
1115.5823608,-87.7600021362305
1115.5979858,-83.2300033569336
1115.6136108,-76.9400024414063
1115.6292358,-68.4000015258789
1115.6448608,-57.5200004577637
1115.6604858,-44.810001373291
1115.6761108,-31.1700000762939
1115.6917358,-17.3899993896484
1115.7073608,-3.75999999046326
1115.7229858,9.88000011444092
1115.7386108,23.4799995422363
1115.7542358,36.3300018310547
1115.7698608,47.2599983215332
1115.7854858,55.2799987792969
1115.8011108,59.8800010681152
1115.8167358,61.0800018310547
1115.8323608,59.3699989318848
1115.8479858,55.5699996948242
1115.8636108,50.5200004577637
1115.8792358,44.7700004577637
1115.8948608,38.6699981689453
1115.9104858,32.5099983215332
1115.9261108,26.5200004577637
1115.9417358,20.75
1115.9573608,15.0299997329712
1115.9729858,8.94999980926514
1115.9886108,2.16000008583069
1116.0042358,-5.15000009536743
1116.0198608,-12.210000038147
1116.0354858,-18.1399993896484
1116.0511108,-22.4500007629395
1116.0667358,-25.2399997711182
1116.0823608,-26.9400005340576
1116.0979858,-28.0599994659424
1116.1136108,-28.8999996185303
1116.1292358,-29.5900001525879
1116.1448608,-30.0599994659424
1116.1604858,-30.0300006866455
1116.1761108,-29.1499996185303
1116.1917358,-27.2700004577637
1116.2073608,-24.5
1116.2229858,-21.1299991607666
1116.2386108,-17.3199996948242
1116.2542358,-12.7299995422363
1116.2698608,-6.38000011444092
1116.2854858,2.9300000667572
1116.3011108,16.0400009155273
1116.3167358,33.0
1116.3323608,52.7700004577637
1116.3479858,73.3399963378906
