Time(s),Value(%)
1106.0042358,-40.1300010681152
1106.0198608,-29.3700008392334
1106.0354858,-17.9699993133545
1106.0511108,-7.32999992370605
1106.0667358,1.51999998092651
1106.0823608,8.40999984741211
1106.0979858,13.75
1106.1136108,17.9599990844727
1106.1292358,20.9699993133545
1106.1448608,22.4400005340576
1106.1604858,22.2199993133545
1106.1761108,20.6299991607666
1106.1917358,18.1800003051758
1106.2073608,15.3800001144409
1106.2229858,12.5900001525879
1106.2386108,10.0100002288818
1106.2542358,7.67999982833862
1106.2698608,5.48000001907349
1106.2854858,3.15000009536743
1106.3011108,0.5
1106.3167358,-2.38000011444092
1106.3323608,-5.25
1106.3479858,-7.78999996185303
1106.3636108,-9.89000034332275
1106.3792358,-11.6000003814697
1106.3948608,-13.1999998092651
1106.4104858,-15.1300001144409
1106.4261108,-17.7000007629395
1106.4417358,-21.0100002288818
1106.4573608,-24.9400005340576
1106.4729858,-29.4200000762939
1106.4886108,-34.4099998474121
1106.5042358,-39.7299995422363
1106.5198608,-44.8800010681152
1106.5354858,-49.0099983215332
1106.5511108,-51.3400001525879
1106.5667358,-51.5099983215332
1106.5823608,-49.6199989318848
1106.5979858,-46.0699996948242
1106.6136108,-41.3199996948242
1106.6292358,-35.9199981689453
1106.6448608,-30.3600006103516
1106.6604858,-24.9200000762939
1106.6761108,-19.3999996185303
1106.6917358,-13.0500001907349
1106.7073608,-5.09000015258789
1106.7229858,4.65000009536743
1106.7386108,15.7399997711182
1106.7542358,27.4500007629395
1106.7698608,39.1699981689453
1106.7854858,50.3800010681152
1106.8011108,60.3600006103516
1106.8167358,68.0800018310547
1106.8323608,72.7300033569336
1106.8479858,74.3600006103516
1106.8636108,73.75
1106.8792358,71.9499969482422
1106.8948608,69.6900024414063
1106.9104858,67.3300018310547
1106.9261108,65.0100021362305
1106.9417358,62.7000007629395
1106.9573608,60.3400001525879
1106.9729858,57.8499984741211
1106.9886108,55.1500015258789
1107.0042358,52.2700004577637
1107.0198608,49.3199996948242
1107.0354858,46.4900016784668
1107.0511108,43.9099998474121
1107.0667358,41.6300010681152
1107.0823608,39.5699996948242
1107.0979858,37.6199989318848
1107.1136108,35.689998626709
1107.1292358,33.7700004577637
1107.1448608,31.9400005340576
1107.1604858,30.1900005340576
1107.1761108,28.4899997711182
1107.1917358,26.7900009155273
1107.2073608,25.1200008392334
1107.2229858,23.4799995422363
1107.2386108,21.8600006103516
1107.2542358,20.2900009155273
1107.2698608,19.1599998474121
1107.2854858,19.2999992370605
1107.3011108,21.5699996948242
1107.3167358,26.1000003814697
1107.3323608,32.1699981689453
1107.3479858,38.689998626709
1107.3636108,44.7000007629395
1107.3792358,49.8300018310547
1107.3948608,54.5400009155273
1107.4104858,60.0400009155273
1107.4261108,67.4599990844727
1107.4417358,77.1500015258789
1107.4573608,88.6699981689453
1107.4729858,101.360000610352
1107.4886108,114.680000305176
1107.5042358,127.919998168945
1107.5198608,139.649993896484
1107.5354858,147.649993896484
1107.5511108,150.179992675781
1107.5667358,147.380004882813
1107.5823608,140.949996948242
1107.5979858,132.820007324219
1107.6136108,124.190002441406
1107.6292358,115.519996643066
1107.6448608,106.879997253418
1107.6604858,98.2699966430664
1107.6761108,89.7600021362305
1107.6917358,81.5400009155273
1107.7073608,73.7600021362305
1107.7229858,66.5100021362305
1107.7386108,59.7599983215332
1107.7542358,53.4300003051758
1107.7698608,47.4300003051758
1107.7854858,41.6599998474121
1107.8011108,35.7599983215332
1107.8167358,29.1700000762939
1107.8323608,21.3700008392334
1107.8479858,12.3299999237061
1107.8636108,2.51999998092651
1107.8792358,-7.46999979019165
1107.8948608,-17.1399993896484
1107.9104858,-26.2099990844727
1107.9261108,-34.6500015258789
1107.9417358,-42.5200004577637
1107.9573608,-49.689998626709
1107.9729858,-55.7599983215332
1107.9886108,-60.3300018310547
1108.0042358,-63.2299995422363
1108.0198608,-64.2900009155273
1108.0354858,-63.0900001525879
1108.0511108,-59.2000007629395
1108.0667358,-52.8499984741211
1108.0823608,-45.2099990844727
1108.0979858,-37.9099998474121
1108.1136108,-32.0999984741211
1108.1292358,-27.8299999237061
1108.1448608,-24.6499996185303
1108.1604858,-22.6100006103516
1108.1761108,-22.2700004577637
1108.1917358,-24.0300006866455
1108.2073608,-27.6100006103516
1108.2229858,-32.0800018310547
1108.2386108,-35.9700012207031
1108.2542358,-37.5400009155273
1108.2698608,-35.5499992370605
1108.2854858,-29.8500003814697
1108.3011108,-20.8600006103516
1108.3167358,-8.67000007629395
1108.3323608,6.82000017166138
1108.3479858,24.9899997711182
1108.3636108,43.6100006103516
1108.3792358,59.4000015258789
1108.3948608,69.8899993896484
1108.4104858,75.0899963378906
1108.4261108,76.5999984741211
1108.4417358,75.5599975585938
1108.4573608,72.0400009155273
1108.4729858,65.9000015258789
1108.4886108,57.560001373291
1108.5042358,47.9900016784668
1108.5198608,38.3600006103516
1108.5354858,29.6200008392334
1108.5511108,22.2099990844727
1108.5667358,16.1200008392334
1108.5823608,11.3599996566772
1108.5979858,8.28999996185303
1108.6136108,7.38000011444092
1108.6292358,8.5
1108.6448608,10.3800001144409
1108.6604858,11.0500001907349
1108.6761108,9.40999984741211
1108.6917358,6.42999982833862
1108.7073608,4.09999990463257
1108.7229858,3.4300000667572
1108.7386108,3.78999996185303
1108.7542358,3.84999990463257
1108.7698608,2.65000009536743
1108.7854858,0.0599999986588955
1108.8011108,-3.29999995231628
1108.8167358,-6.46999979019165
1108.8323608,-8.65999984741211
1108.8479858,-9.64999961853027
1108.8636108,-9.61999988555908
1108.8792358,-8.93000030517578
1108.8948608,-7.8600001335144
1108.9104858,-6.80999994277954
1108.9261108,-6.90999984741211
1108.9417358,-10.2399997711182
1108.9573608,-18.7000007629395
1108.9729858,-32.75
1108.9886108,-51.060001373291
1109.0042358,-71.4300003051758
1109.0198608,-91.7699966430664
1109.0354858,-110.720001220703
1109.0511108,-127.819999694824
1109.0667358,-143.199996948242
1109.0823608,-157.210006713867
1109.0979858,-170.130004882813
1109.1136108,-182.059997558594
1109.1292358,-193.0
1109.1448608,-202.889999389648
1109.1604858,-211.720001220703
1109.1761108,-219.490005493164
1109.1917358,-226.259994506836
1109.2073608,-232.070007324219
1109.2229858,-236.889999389648
1109.2386108,-240.639999389648
1109.2542358,-243.330001831055
1109.2698608,-245.080001831055
1109.2854858,-246.130004882813
1109.3011108,-246.679992675781
1109.3167358,-246.729995727539
1109.3323608,-246.169998168945
1109.3479858,-244.919998168945
1109.3636108,-243.039993286133
1109.3792358,-240.589996337891
1109.3948608,-237.279998779297
1109.4104858,-232.199996948242
1109.4261108,-224.529998779297
1109.4417358,-214.259994506836
1109.4573608,-202.320007324219
1109.4729858,-190.009994506836
1109.4886108,-178.320007324219
1109.5042358,-167.600006103516
1109.5198608,-157.470001220703
1109.5354858,-147.039993286133
1109.5511108,-135.5
1109.5667358,-122.540000915527
1109.5823608,-108.230003356934
1109.5979858,-92.5599975585938
1109.6136108,-75.5199966430664
1109.6292358,-57.5299987792969
1109.6448608,-40.0499992370605
1109.6604858,-25.3500003814697
1109.6761108,-15.0500001907349
1109.6917358,-8.89000034332275
1109.7073608,-5.15000009536743
1109.7229858,-2.35999989509583
1109.7386108,0.0299999993294477
1109.7542358,1.9099999666214
1109.7698608,3.13000011444092
1109.7854858,3.72000002861023
1109.8011108,3.90000009536743
1109.8167358,3.84999990463257
1109.8323608,3.66000008583069
1109.8479858,3.42000007629395
1109.8636108,3.32999992370605
1109.8792358,3.77999997138977
1109.8948608,5.11999988555908
1109.9104858,7.32000017166138
1109.9261108,9.78999996185303
1109.9417358,11.5299997329712
1109.9573608,11.8500003814697
1109.9729858,10.9799995422363
1109.9886108,9.77000045776367
1110.0042358,8.89000034332275
1110.0198608,8.4399995803833
1110.0354858,8.1899995803833
1110.0511108,7.8600001335144
1110.0667358,7.5
1110.0823608,7.92999982833862
1110.0979858,10.7399997711182
1110.1136108,17.3899993896484
1110.1292358,28.1800003051758
1110.1448608,42.439998626709
1110.1604858,59.4300003051758
1110.1761108,78.6100006103516
1110.1917358,99.0400009155273
1110.2073608,118.699996948242
1110.2229858,134.619995117188
1110.2386108,144.580001831055
1110.2542358,148.600006103516
1110.2698608,148.360000610352
1110.2854858,145.509994506836
1110.3011108,140.809997558594
1110.3167358,134.580001831055
1110.3323608,127.230003356934
1110.3479858,119.349998474121
1110.3636108,111.620002746582
1110.3792358,104.610000610352
1110.3948608,98.6100006103516
1110.4104858,93.620002746582
1110.4261108,89.620002746582
1110.4417358,86.8499984741211
1110.4573608,85.5500030517578
1110.4729858,85.620002746582
1110.4886108,86.2200012207031
1110.5042358,86.0
1110.5198608,84.0599975585938
1110.5354858,80.6399993896484
1110.5511108,76.7099990844727
1110.5667358,72.9300003051758
1110.5823608,69.2399978637695
1110.5979858,65.2900009155273
1110.6136108,60.8400001525879
1110.6292358,55.9799995422363
1110.6448608,51.0099983215332
1110.6604858,46.2400016784668
1110.6761108,41.8499984741211
1110.6917358,37.9199981689453
1110.7073608,34.560001373291
1110.7229858,32.0400009155273
1110.7386108,30.6200008392334
1110.7542358,30.2399997711182
1110.7698608,30.2600002288818
1110.7854858,29.6100006103516
1110.8011108,27.6000003814697
1110.8167358,24.5200004577637
1110.8323608,21.2800006866455
1110.8479858,18.5
1110.8636108,16.0900001525879
1110.8792358,13.8199996948242
1110.8948608,11.3599996566772
1110.9104858,8.61999988555908
1110.9261108,5.57000017166138
1110.9417358,2.10999989509583
1110.9573608,-1.89999997615814
1110.9729858,-6.42999982833862
1110.9886108,-11.1700000762939
1111.0042358,-15.6899995803833
1111.0198608,-19.6399993896484
1111.0354858,-22.8799991607666
1111.0511108,-25.6299991607666
1111.0667358,-28.3099994659424
1111.0823608,-31.3199996948242
1111.0979858,-34.7200012207031
1111.1136108,-38.3499984741211
1111.1292358,-41.9199981689453
1111.1448608,-45.25
1111.1604858,-48.2599983215332
1111.1761108,-50.9300003051758
1111.1917358,-53.2700004577637
1111.2073608,-55.2700004577637
1111.2229858,-56.8699989318848
1111.2386108,-58.0400009155273
1111.2542358,-58.75
1111.2698608,-59.0900001525879
1111.2854858,-59.1500015258789
1111.3011108,-59.0200004577637
1111.3167358,-58.7599983215332
1111.3323608,-58.4500007629395
1111.3479858,-58.1699981689453
1111.3636108,-57.9500007629395
1111.3792358,-57.6599998474121
1111.3948608,-57.0900001525879
1111.4104858,-56.0900001525879
1111.4261108,-54.6599998474121
1111.4417358,-52.9099998474121
1111.4573608,-51.0
1111.4729858,-48.9599990844727
1111.4886108,-46.4199981689453
1111.5042358,-42.5299987792969
1111.5198608,-36.5200004577637
1111.5354858,-28.2600002288818
1111.5511108,-18.3299999237061
1111.5667358,-7.6100001335144
1111.5823608,3.17000007629395
1111.5979858,13.4700002670288
1111.6136108,22.6100006103516
1111.6292358,29.5799999237061
1111.6448608,33.5499992370605
1111.6604858,34.4700012207031
1111.6761108,33.0499992370605
1111.6917358,30.3299999237061
1111.7073608,27.1700000762939
1111.7229858,24.1000003814697
1111.7386108,21.2999992370605
1111.7542358,18.7999992370605
1111.7698608,16.5400009155273
1111.7854858,14.4700002670288
1111.8011108,12.4399995803833
1111.8167358,10.1800003051758
1111.8323608,7.42000007629395
1111.8479858,4.15000009536743
1111.8636108,0.600000023841858
1111.8792358,-2.83999991416931
1111.8948608,-5.90000009536743
1111.9104858,-8.44999980926514
1111.9261108,-10.460000038147
1111.9417358,-11.9799995422363
1111.9573608,-13.0200004577637
1111.9729858,-13.710000038147
1111.9886108,-14.4200000762939
1112.0042358,-15.8000001907349
1112.0198608,-18.4300003051758
1112.0354858,-22.3799991607666
1112.0511108,-27.0599994659424
1112.0667358,-31.5699996948242
1112.0823608,-35.1599998474121
1112.0979858,-37.5900001525879
1112.1136108,-38.8699989318848
1112.1292358,-38.9099998474121
1112.1448608,-37.5299987792969
1112.1604858,-34.75
1112.1761108,-30.9500007629395
1112.1917358,-26.5900001525879
1112.2073608,-21.6700000762939
1112.2229858,-15.539999961853
1112.2386108,-7.38000011444092
1112.2542358,2.98000001907349
1112.2698608,14.789999961853
1112.2854858,26.7900009155273
1112.3011108,37.8199996948242
1112.3167358,47.25
1112.3323608,54.75
1112.3479858,59.9099998474121
1112.3636108,62.2000007629395
1112.3792358,61.3400001525879
1112.3948608,57.6800003051758
1112.4104858,52.2700004577637
1112.4261108,46.4599990844727
1112.4417358,41.310001373291
1112.4573608,37.25
1112.4729858,34.2799987792969
1112.4886108,32.4300003051758
1112.5042358,32.2200012207031
1112.5198608,34.2299995422363
1112.5354858,38.6199989318848
1112.5511108,45.2000007629395
1112.5667358,53.8499984741211
1112.5823608,64.5299987792969
1112.5979858,76.8099975585938
1112.6136108,89.6500015258789
1112.6292358,101.809997558594
1112.6448608,112.48999786377
1112.6604858,121.790000915527
1112.6761108,130.110000610352
1112.6917358,137.259994506836
1112.7073608,142.539993286133
1112.7229858,145.5
1112.7386108,146.350006103516
1112.7542358,145.839996337891
1112.7698608,144.899993896484
1112.7854858,144.210006713867
1112.8011108,144.089996337891
1112.8167358,144.570007324219
1112.8323608,145.990005493164
1112.8479858,149.279998779297
1112.8636108,155.610000610352
1112.8792358,164.800003051758
1112.8948608,175.5
1112.9104858,185.539993286133
1112.9261108,193.410003662109
1112.9417358,199.160003662109
1112.9573608,203.529998779297
1112.9729858,206.580001831055
1112.9886108,207.520004272461
1113.0042358,205.720001220703
1113.0198608,201.339996337891
1113.0354858,195.320007324219
1113.0511108,188.990005493164
1113.0667358,183.570007324219
1113.0823608,179.75
1113.0979858,178.020004272461
1113.1136108,180.479995727539
1113.1292358,191.710006713867
1113.1448608,216.080001831055
1113.1604858,253.720001220703
1113.1761108,299.380004882813
1113.1917358,327.670013427734
1113.2073608,327.670013427734
1113.2229858,327.670013427734
1113.2386108,327.670013427734
1113.2542358,327.670013427734
1113.2698608,327.670013427734
1113.2854858,327.670013427734
1113.3011108,327.670013427734
1113.3167358,327.670013427734
1113.3323608,327.670013427734
1113.3479858,327.670013427734
1113.3636108,327.670013427734
1113.3792358,327.670013427734
1113.3948608,327.670013427734
1113.4104858,327.670013427734
1113.4261108,327.670013427734
1113.4417358,327.670013427734
1113.4573608,327.670013427734
1113.4729858,327.670013427734
1113.4886108,327.670013427734
1113.5042358,327.670013427734
1113.5198608,327.670013427734
1113.5354858,327.670013427734
1113.5511108,327.670013427734
1113.5667358,327.670013427734
1113.5823608,314.429992675781
1113.5979858,265.980010986328
1113.6136108,217.699996948242
1113.6292358,168.059997558594
1113.6448608,116.019996643066
1113.6604858,61.7200012207031
1113.6761108,6.30999994277954
1113.6917358,-48.8800010681152
1113.7073608,-102.930000305176
1113.7229858,-155.25
1113.7386108,-205.490005493164
1113.7542358,-253.580001831055
1113.7698608,-299.890014648438
1113.7854858,-327.679992675781
1113.8011108,-327.679992675781
1113.8167358,-327.679992675781
1113.8323608,-327.679992675781
1113.8479858,-327.679992675781
1113.8636108,-327.679992675781
1113.8792358,-327.679992675781
1113.8948608,-327.679992675781
1113.9104858,-327.679992675781
1113.9261108,-327.679992675781
1113.9417358,-327.679992675781
1113.9573608,-327.679992675781
1113.9729858,-327.679992675781
1113.9886108,-327.679992675781
1114.0042358,-327.679992675781
1114.0198608,-327.679992675781
1114.0354858,-327.679992675781
1114.0511108,-327.679992675781
1114.0667358,-327.679992675781
1114.0823608,-327.679992675781
1114.0979858,-327.679992675781
1114.1136108,-327.679992675781
1114.1292358,-327.679992675781
1114.1448608,-327.679992675781
1114.1604858,-327.679992675781
1114.1761108,-327.679992675781
1114.1917358,-327.679992675781
1114.2073608,-327.679992675781
1114.2229858,-327.679992675781
1114.2386108,-327.679992675781
1114.2542358,-327.679992675781
1114.2698608,-327.679992675781
1114.2854858,-327.679992675781
1114.3011108,-327.679992675781
1114.3167358,-327.679992675781
1114.3323608,-327.679992675781
1114.3479858,-327.679992675781
1114.3636108,-327.679992675781
1114.3792358,-327.679992675781
1114.3948608,-327.679992675781
1114.4104858,-327.679992675781
1114.4261108,-327.679992675781
1114.4417358,-327.679992675781
1114.4573608,-327.679992675781
1114.4729858,-327.679992675781
1114.4886108,-327.679992675781
1114.5042358,-327.679992675781
1114.5198608,-327.679992675781
1114.5354858,-327.679992675781
1114.5511108,-327.679992675781
1114.5667358,-327.679992675781
1114.5823608,-327.679992675781
1114.5979858,-327.679992675781
1114.6136108,-327.679992675781
1114.6292358,-327.679992675781
1114.6448608,-327.679992675781
1114.6604858,-327.679992675781
1114.6761108,-327.679992675781
1114.6917358,-321.410003662109
1114.7073608,-295.029998779297
1114.7229858,-271.510009765625
1114.7386108,-249.460006713867
1114.7542358,-226.759994506836
1114.7698608,-201.800003051758
1114.7854858,-174.350006103516
1114.8011108,-145.160003662109
1114.8167358,-114.730003356934
1114.8323608,-83.0999984741211
1114.8479858,-50.3199996948242
1114.8636108,-17.0400009155273
1114.8792358,16.8999996185303
1114.8948608,50.560001373291
1114.9104858,83.1600036621094
1114.9261108,114.269996643066
1114.9417358,143.830001831055
1114.9573608,171.759994506836
1114.9729858,197.690002441406
1114.9886108,221.139999389648
1115.0042358,242.139999389648
1115.0198608,261.630004882813
1115.0354858,281.119995117188
1115.0511108,301.619995117188
1115.0667358,322.859985351563
1115.0823608,327.670013427734
1115.0979858,327.670013427734
1115.1136108,327.670013427734
1115.1292358,327.670013427734
1115.1448608,327.670013427734
1115.1604858,327.670013427734
1115.1761108,327.670013427734
1115.1917358,327.670013427734
1115.2073608,327.670013427734
1115.2229858,327.670013427734
1115.2386108,327.670013427734
1115.2542358,327.670013427734
1115.2698608,327.670013427734
1115.2854858,327.670013427734
1115.3011108,327.670013427734
1115.3167358,327.670013427734
1115.3323608,327.670013427734
1115.3479858,327.670013427734
1115.3636108,327.670013427734
1115.3792358,327.670013427734
1115.3948608,327.670013427734
1115.4104858,327.670013427734
1115.4261108,327.670013427734
1115.4417358,327.670013427734
1115.4573608,327.670013427734
1115.4729858,327.670013427734
1115.4886108,327.670013427734
1115.5042358,327.670013427734
1115.5198608,327.670013427734
1115.5354858,327.670013427734
1115.5511108,327.670013427734
1115.5667358,327.670013427734
1115.5823608,327.670013427734
1115.5979858,327.670013427734
1115.6136108,327.670013427734
1115.6292358,327.670013427734
1115.6448608,327.670013427734
1115.6604858,327.670013427734
1115.6761108,327.670013427734
1115.6917358,327.670013427734
1115.7073608,327.670013427734
1115.7229858,327.670013427734
1115.7386108,327.670013427734
1115.7542358,327.670013427734
1115.7698608,327.670013427734
1115.7854858,327.670013427734
1115.8011108,327.670013427734
1115.8167358,327.670013427734
1115.8323608,327.670013427734
1115.8479858,327.670013427734
1115.8636108,327.670013427734
1115.8792358,327.670013427734
1115.8948608,327.670013427734
1115.9104858,327.670013427734
1115.9261108,327.670013427734
1115.9417358,327.670013427734
1115.9573608,327.670013427734
1115.9729858,327.670013427734
1115.9886108,327.670013427734
1116.0042358,327.670013427734
1116.0198608,327.670013427734
1116.0354858,327.670013427734
1116.0511108,327.670013427734
1116.0667358,327.670013427734
1116.0823608,327.670013427734
1116.0979858,327.670013427734
1116.1136108,327.670013427734
1116.1292358,327.670013427734
1116.1448608,314.510009765625
1116.1604858,291.140014648438
1116.1761108,269.089996337891
1116.1917358,249.220001220703
1116.2073608,232.529998779297
1116.2229858,219.229995727539
1116.2386108,208.470001220703
1116.2542358,198.880004882813
1116.2698608,189.240005493164
1116.2854858,178.789993286133
1116.3011108,166.990005493164
1116.3167358,153.259994506836
1116.3323608,137.119995117188
1116.3479858,118.660003662109
1116.3636108,98.5699996948242
1116.3792358,77.8199996948242
1116.3948608,57.2599983215332
