Time(s),Value(%)
813.0126097,39.3699989318848
813.0282347,63.3499984741211
813.0438597,84.7900009155273
813.0594847,100.559997558594
813.0751097,109.209999084473
813.0907347,111.230003356934
813.1063597,108.529998779297
813.1219847,103.279998779297
813.1376097,97.0899963378906
813.1532347,90.8000030517578
813.1688597,84.6500015258789
813.1844847,78.3899993896484
813.2001097,71.5199966430664
813.2157347,63.6500015258789
813.2313597,54.9099998474121
813.2469847,45.810001373291
813.2626097,36.6800003051758
813.2782347,27.3899993896484
813.2938597,17.8500003814697
813.3094847,8.57999992370605
813.3251097,0.540000021457672
813.3407347,-5.44999980926514
813.3563597,-9.1899995803833
813.3719847,-11.3000001907349
813.3876097,-13.0900001525879
813.4032347,-15.8900003433228
813.4188597,-20.2999992370605
813.4344847,-25.8099994659424
813.4501097,-31.3700008392334
813.4657347,-36.3199996948242
813.4813597,-40.7200012207031
813.4969847,-44.9700012207031
813.5126097,-49.2299995422363
813.5282347,-53.4300003051758
813.5438597,-57.4000015258789
813.5594847,-60.9500007629395
813.5751097,-63.9000015258789
813.5907347,-66.0299987792969
813.6063597,-67.1600036621094
813.6219847,-67.1800003051758
813.6376097,-66.2200012207031
813.6532347,-64.5100021362305
813.6688597,-62.2299995422363
813.6844847,-59.4799995422363
813.7001097,-56.4799995422363
813.7157347,-53.5800018310547
813.7313597,-51.0499992370605
813.7469847,-48.7799987792969
813.7626097,-46.2599983215332
813.7782347,-42.7400016784668
813.7938597,-37.4700012207031
813.8094847,-29.3600006103516
813.8251097,-16.5799999237061
813.8407347,2.20000004768372
813.8563597,25.8400001525879
813.8719847,50.4599990844727
813.8876097,71.4599990844727
813.9032347,85.7600021362305
813.9188597,92.6699981689453
813.9344847,93.3899993896484
813.9501097,90.0
813.9657347,84.5999984741211
813.9813597,78.7900009155273
813.9969847,73.4700012207031
814.0126097,68.8399963378906
814.0282347,64.620002746582
814.0438597,60.25
814.0594847,55.0999984741211
814.0751097,48.7000007629395
814.0907347,41.0900001525879
814.1063597,33.0999984741211
814.1219847,25.9699993133545
814.1376097,20.7099990844727
814.1532347,17.5699996948242
814.1688597,16.1000003814697
814.1844847,15.3299999237061
814.2001097,14.2700004577637
814.2157347,12.1700000762939
814.2313597,8.80000019073486
814.2469847,4.48999977111816
814.2626097,-0.159999996423721
814.2782347,-4.67000007629395
814.2938597,-8.86999988555908
814.3094847,-12.8900003433228
814.3251097,-16.9400005340576
814.3407347,-21.0100002288818
814.3563597,-24.8500003814697
814.3719847,-28.0599994659424
814.3876097,-30.2800006866455
814.4032347,-31.4300003051758
814.4188597,-31.7800006866455
814.4344847,-31.7299995422363
814.4501097,-31.6000003814697
814.4657347,-31.4799995422363
814.4813597,-31.2999992370605
814.4969847,-30.8400001525879
814.5126097,-29.9099998474121
814.5282347,-28.5100002288818
814.5438597,-26.8099994659424
814.5594847,-25.1700000762939
814.5751097,-23.9400005340576
814.5907347,-23.0200004577637
814.6063597,-21.4899997711182
814.6219847,-17.5599994659424
814.6376097,-9.03999996185303
814.6532347,5.32000017166138
814.6688597,24.2999992370605
814.6844847,44.1300010681152
814.7001097,60.4599990844727
814.7157347,70.4400024414063
814.7313597,73.5199966430664
814.7469847,70.9700012207031
814.7626097,64.8399963378906
814.7782347,57.2400016784668
814.7938597,49.6800003051758
814.8094847,42.8600006103516
814.8251097,36.689998626709
814.8407347,30.7000007629395
814.8563597,24.2999992370605
814.8719847,17.1900005340576
814.8876097,9.47999954223633
814.9032347,1.75999999046326
814.9188597,-5.19999980926514
814.9344847,-10.710000038147
814.9501097,-14.4300003051758
814.9657347,-16.4899997711182
814.9813597,-17.4599990844727
814.9969847,-18.0599994659424
815.0126097,-18.9699993133545
815.0282347,-20.6000003814697
815.0438597,-22.9899997711182
815.0594847,-25.9300003051758
815.0751097,-29.1399993896484
815.0907347,-32.3800010681152
815.1063597,-35.4700012207031
815.1219847,-38.3300018310547
815.1376097,-40.9199981689453
815.1532347,-43.2000007629395
815.1688597,-45.0900001525879
815.1844847,-46.5699996948242
815.2001097,-47.6599998474121
815.2157347,-48.3600006103516
815.2313597,-48.6100006103516
815.2469847,-48.2799987792969
815.2626097,-47.2799987792969
815.2782347,-45.6300010681152
815.2938597,-43.3800010681152
815.3094847,-40.7099990844727
815.3251097,-37.8600006103516
815.3407347,-34.9599990844727
815.3563597,-31.9899997711182
815.3719847,-28.8600006103516
815.3876097,-25.4699993133545
815.4032347,-21.4899997711182
815.4188597,-15.8900003433228
815.4344847,-6.96999979019165
815.4501097,6.8600001335144
815.4657347,25.5900001525879
815.4813597,46.5
815.4969847,65.0599975585938
815.5126097,77.4000015258789
815.5282347,82.0699996948242
815.5438597,80.0899963378906
815.5594847,73.9400024414063
815.5751097,66.3399963378906
815.5907347,59.2599983215332
815.6063597,53.439998626709
815.6219847,48.6500015258789
815.6376097,44.2099990844727
815.6532347,39.3899993896484
815.6688597,33.7200012207031
815.6844847,27.0
815.7001097,19.3700008392334
815.7157347,11.2399997711182
815.7313597,3.4300000667572
815.7469847,-3.05999994277954
815.7626097,-7.67000007629395
815.7782347,-10.4300003051758
815.7938597,-11.9700002670288
815.8094847,-13.039999961853
815.8251097,-14.3199996948242
815.8407347,-16.2700004577637
815.8563597,-19.1200008392334
815.8719847,-22.8500003814697
815.8876097,-27.1299991607666
815.9032347,-31.4599990844727
815.9188597,-35.3899993896484
815.9344847,-38.7299995422363
815.9501097,-41.560001373291
815.9657347,-44.1199989318848
815.9813597,-46.4700012207031
815.9969847,-48.4500007629395
816.0126097,-49.7900009155273
816.0282347,-50.3199996948242
816.0438597,-49.9700012207031
816.0594847,-48.8800010681152
816.0751097,-47.310001373291
816.0907347,-45.5099983215332
816.1063597,-43.5099983215332
816.1219847,-41.1500015258789
816.1376097,-38.3400001525879
816.1532347,-35.1699981689453
816.1688597,-31.8700008392334
816.1844847,-28.5100002288818
816.2001097,-25.0200004577637
816.2157347,-21.1399993896484
816.2313597,-16.4099998474121
816.2469847,-9.9399995803833
816.2626097,-0.159999996423721
816.2782347,14.4200000762939
816.2938597,33.6100006103516
816.3094847,54.5499992370605
816.3251097,72.8199996948242
816.3407347,84.7300033569336
816.3563597,88.9700012207031
816.3719847,86.7300033569336
816.3876097,80.5500030517578
816.4032347,72.8499984741211
816.4188597,65.1399993896484
816.4344847,57.9500007629395
816.4501097,51.2200012207031
816.4657347,44.6399993896484
816.4813597,37.7200012207031
816.4969847,30.1499996185303
816.5126097,22.0699996948242
816.5282347,14.1099996566772
816.5438597,6.96999979019165
816.5594847,1.13999998569489
816.5751097,-3.16000008583069
816.5907347,-5.92999982833862
816.6063597,-7.34000015258789
816.6219847,-7.78999996185303
816.6376097,-7.8600001335144
816.6532347,-8.15999984741211
816.6688597,-9.13000011444092
816.6844847,-10.9899997711182
816.7001097,-13.6599998474121
816.7157347,-16.8500003814697
816.7313597,-20.2399997711182
816.7469847,-23.5
816.7626097,-26.2900009155273
816.7782347,-28.4500007629395
816.7938597,-29.9899997711182
816.8094847,-31.0499992370605
816.8251097,-31.7299995422363
816.8407347,-32.1100006103516
816.8563597,-32.2200012207031
816.8719847,-31.9599990844727
816.8876097,-31.1299991607666
816.9032347,-29.5799999237061
816.9188597,-27.2999992370605
816.9344847,-24.4500007629395
816.9501097,-21.2199993133545
816.9657347,-17.8099994659424
816.9813597,-14.3199996948242
816.9969847,-10.8500003814697
817.0126097,-7.63000011444092
817.0282347,-4.90000009536743
817.0438597,-2.48000001907349
817.0594847,0.720000028610229
817.0751097,6.73999977111816
817.0907347,17.6800003051758
817.1063597,34.1599998474121
817.1219847,53.9199981689453
817.1376097,72.1999969482422
817.1532347,84.3199996948242
817.1688597,88.0299987792969
817.1844847,84.0500030517578
817.2001097,75.0899963378906
817.2157347,64.3199996948242
817.2313597,54.0800018310547
817.2469847,45.3199996948242
817.2626097,37.7000007629395
817.2782347,30.3700008392334
817.2938597,22.6299991607666
817.3094847,14.2799997329712
817.3251097,5.71000003814697
817.3407347,-2.24000000953674
817.3563597,-8.75
817.3719847,-13.3400001525879
817.3876097,-15.9399995803833
817.4032347,-16.8700008392334
817.4188597,-16.7399997711182
817.4344847,-16.4200000762939
817.4501097,-16.7000007629395
817.4657347,-17.9699993133545
817.4813597,-20.2099990844727
817.4969847,-23.1499996185303
817.5126097,-26.4500007629395
817.5282347,-29.7800006866455
817.5438597,-32.8699989318848
817.5594847,-35.6500015258789
817.5751097,-38.1500015258789
817.5907347,-40.5099983215332
817.6063597,-42.8400001525879
817.6219847,-45.060001373291
817.6376097,-46.7900009155273
817.6532347,-47.5
817.6688597,-46.9300003051758
817.6844847,-45.2299995422363
817.7001097,-42.7200012207031
817.7157347,-39.6500015258789
817.7313597,-36.2299995422363
817.7469847,-32.5400009155273
817.7626097,-28.5799999237061
817.7782347,-24.3799991607666
817.7938597,-20.0699996948242
817.8094847,-15.6000003814697
817.8251097,-10.5100002288818
817.8407347,-3.32999992370605
817.8563597,8.39999961853027
817.8719847,26.1599998474121
817.8876097,47.9900016784668
817.9032347,68.9400024414063
817.9188597,83.9000015258789
817.9344847,90.3099975585938
817.9501097,88.8899993896484
817.9657347,82.4599990844727
817.9813597,74.0599975585938
817.9969847,65.6699981689453
818.0126097,57.9700012207031
818.0282347,50.6199989318848
818.0438597,42.9599990844727
818.0594847,34.560001373291
818.0751097,25.4400005340576
818.0907347,16.1100006103516
818.1063597,7.26999998092651
818.1219847,-0.449999988079071
818.1376097,-6.71000003814697
818.1532347,-11.3599996566772
818.1688597,-14.3800001144409
818.1844847,-15.9799995422363
818.2001097,-16.7000007629395
818.2157347,-17.2900009155273
818.2313597,-18.4699993133545
818.2469847,-20.6700000762939
818.2626097,-23.9200000762939
818.2782347,-27.8500003814697
818.2938597,-31.8700008392334
818.3094847,-35.4700012207031
818.3251097,-38.4199981689453
818.3407347,-40.9500007629395
818.3563597,-43.5400009155273
818.3719847,-46.3600006103516
818.3876097,-49.0800018310547
818.4032347,-51.1100006103516
818.4188597,-52.1500015258789
818.4344847,-52.2700004577637
818.4501097,-51.6599998474121
818.4657347,-50.4000015258789
818.4813597,-48.6399993896484
818.4969847,-46.5699996948242
818.5126097,-44.2700004577637
818.5282347,-41.689998626709
818.5438597,-38.7799987792969
818.5594847,-35.7200012207031
818.5751097,-32.7000007629395
818.5907347,-29.5200004577637
818.6063597,-25.3199996948242
818.6219847,-18.5200004577637
818.6376097,-7.19000005722046
818.6532347,9.64999961853027
818.6688597,30.5100002288818
818.6844847,51.5499992370605
818.7001097,68.6999969482422
818.7157347,79.4100036621094
818.7313597,83.3399963378906
818.7469847,81.8899993896484
818.7626097,77.2300033569336
818.7782347,71.2200012207031
818.7938597,65.0199966430664
818.8094847,59.0999984741211
818.8251097,53.4900016784668
818.8407347,47.8300018310547
818.8563597,41.5900001525879
818.8719847,34.4000015258789
818.8876097,26.3299999237061
818.9032347,17.9099998474121
818.9188597,9.97999954223633
818.9344847,3.27999997138977
818.9501097,-1.73000001907349
818.9657347,-5.01000022888184
818.9813597,-6.88000011444092
818.9969847,-8.02000045776367
819.0126097,-9.21000003814697
819.0282347,-11.0799999237061
819.0438597,-13.8999996185303
819.0594847,-17.5300006866455
819.0751097,-21.5300006866455
819.0907347,-25.4300003051758
819.1063597,-29.0599994659424
819.1219847,-32.4199981689453
819.1376097,-35.439998626709
819.1532347,-37.8899993896484
819.1688597,-39.4099998474121
819.1844847,-39.75
819.2001097,-38.9500007629395
819.2157347,-37.3600006103516
819.2313597,-35.5099983215332
819.2469847,-33.9099998474121
819.2626097,-32.8699989318848
819.2782347,-32.2200012207031
819.2938597,-31.4899997711182
819.3094847,-30.1499996185303
819.3251097,-27.9699993133545
819.3407347,-25.0799999237061
819.3563597,-21.8700008392334
819.3719847,-18.5100002288818
819.3876097,-14.2299995422363
819.4032347,-7.25
819.4188597,4.38000011444092
819.4344847,21.1599998474121
819.4501097,40.8400001525879
819.4657347,59.2799987792969
819.4813597,72.5899963378906
819.4969847,78.870002746582
819.5126097,78.5599975585938
819.5282347,73.5899963378906
819.5438597,66.2300033569336
819.5594847,58.2799987792969
819.5751097,50.6399993896484
819.5907347,43.5099983215332
819.6063597,36.6399993896484
819.6219847,29.6700000762939
819.6376097,22.4599990844727
819.6532347,15.1999998092651
819.6688597,8.3100004196167
819.6844847,2.28999996185303
819.7001097,-2.47000002861023
819.7157347,-5.71000003814697
819.7313597,-7.42999982833862
819.7469847,-8.0
819.7626097,-8.0
819.7782347,-8.05000019073486
819.7938597,-8.63000011444092
819.8094847,-9.93000030517578
819.8251097,-11.9099998474121
819.8407347,-14.3299999237061
819.8563597,-16.9599990844727
819.8719847,-19.7199993133545
819.8876097,-22.6599998474121
819.9032347,-25.6800003051758
819.9188597,-28.5799999237061
819.9344847,-31.0699996948242
819.9501097,-32.9599990844727
819.9657347,-34.2299995422363
819.9813597,-34.9599990844727
819.9969847,-35.2099990844727
820.0126097,-35.0
820.0282347,-34.3800010681152
820.0438597,-33.439998626709
820.0594847,-32.2099990844727
820.0751097,-30.6399993896484
820.0907347,-28.6900005340576
820.1063597,-26.4099998474121
820.1219847,-23.9599990844727
820.1376097,-21.2600002288818
820.1532347,-17.4899997711182
820.1688597,-10.9099998474121
820.1844847,0.449999988079071
820.2001097,17.2900009155273
820.2157347,37.6500015258789
820.2313597,57.3800010681152
820.2469847,72.0299987792969
820.2626097,79.0199966430664
820.2782347,78.7699966430664
820.2938597,73.9000015258789
820.3094847,67.2699966430664
820.3251097,60.7099990844727
820.3407347,54.7299995422363
820.3563597,49.0900001525879
820.3719847,43.4599990844727
820.3876097,37.7000007629395
820.4032347,31.6800003051758
820.4188597,25.2000007629395
820.4344847,18.1000003814697
820.4501097,10.4799995422363
820.4657347,2.84999990463257
820.4813597,-4.05000019073486
820.4969847,-9.59000015258789
820.5126097,-13.3699998855591
820.5282347,-15.3699998855591
820.5438597,-16.0200004577637
820.5594847,-16.2000007629395
820.5751097,-16.7600002288818
820.5907347,-18.1900005340576
820.6063597,-20.5499992370605
820.6219847,-23.6499996185303
820.6376097,-27.1499996185303
820.6532347,-30.7199993133545
820.6688597,-34.060001373291
820.6844847,-36.9599990844727
820.7001097,-39.3300018310547
820.7157347,-41.189998626709
820.7313597,-42.6100006103516
820.7469847,-43.7000007629395
820.7626097,-44.560001373291
820.7782347,-45.310001373291
820.7938597,-46.0200004577637
820.8094847,-46.5699996948242
820.8251097,-46.7400016784668
820.8407347,-46.3699989318848
820.8563597,-45.3800010681152
820.8719847,-43.8199996948242
820.8876097,-41.7999992370605
820.9032347,-39.4300003051758
820.9188597,-36.75
820.9344847,-33.7700004577637
820.9501097,-30.2700004577637
820.9657347,-25.3099994659424
820.9813597,-17.0100002288818
820.9969847,-3.45000004768372
821.0126097,15.460000038147
821.0282347,37.2799987792969
821.0438597,57.9300003051758
821.0594847,73.4800033569336
821.0751097,81.75
821.0907347,82.9300003051758
821.1063597,79.0100021362305
821.1219847,72.6500015258789
821.1376097,66.0800018310547
821.1532347,60.4599990844727
821.1688597,55.7799987792969
821.1844847,51.3400001525879
821.2001097,46.2400016784668
821.2157347,39.8899993896484
821.2313597,32.1699981689453
821.2469847,23.4799995422363
821.2626097,14.6700000762939
821.2782347,6.75
821.2938597,0.540000021457672
821.3094847,-3.54999995231628
821.3251097,-5.76000022888184
821.3407347,-6.76999998092651
821.3563597,-7.34999990463257
821.3719847,-8.1899995803833
821.3876097,-9.85000038146973
821.4032347,-12.6300001144409
821.4188597,-16.3899993896484
821.4344847,-20.6599998474121
821.4501097,-24.9400005340576
821.4657347,-28.8600006103516
821.4813597,-32.2900009155273
821.4969847,-35.2099990844727
821.5126097,-37.7400016784668
821.5282347,-40.0099983215332
821.5438597,-42.0900001525879
821.5594847,-43.8400001525879
821.5751097,-44.9799995422363
821.5907347,-45.3600006103516
821.6063597,-44.8800010681152
821.6219847,-43.5699996948242
821.6376097,-41.6699981689453
821.6532347,-39.5699996948242
821.6688597,-37.5800018310547
821.6844847,-35.7299995422363
821.7001097,-33.8699989318848
821.7157347,-31.8700008392334
821.7313597,-29.7299995422363
821.7469847,-27.3600006103516
821.7626097,-24.1499996185303
821.7782347,-18.4799995422363
821.7938597,-8.21000003814697
821.8094847,7.65999984741211
821.8251097,27.7099990844727
821.8407347,48.3800010681152
821.8563597,65.6900024414063
821.8719847,76.9800033569336
821.8876097,81.6500015258789
821.9032347,80.8199996948242
821.9188597,76.4800033569336
821.9344847,70.629997253418
821.9501097,64.7399978637695
821.9657347,59.4900016784668
821.9813597,54.8199996948242
821.9969847,50.1500015258789
822.0126097,44.7099990844727
822.0282347,37.9700012207031
822.0438597,30.1299991607666
822.0594847,22.1200008392334
822.0751097,15.1199998855591
822.0907347,9.85000038146973
822.1063597,6.28999996185303
822.1219847,3.78999996185303
822.1376097,1.69000005722046
822.1532347,-0.519999980926514
822.1688597,-3.13000011444092
822.1844847,-6.15000009536743
822.2001097,-9.43000030517578
822.2157347,-12.8800001144409
822.2313597,-16.3700008392334
822.2469847,-19.7399997711182
822.2626097,-22.8600006103516
822.2782347,-25.8600006103516
822.2938597,-29.2299995422363
822.3094847,-33.4300003051758
822.3251097,-38.4700012207031
822.3407347,-43.6699981689453
822.3563597,-47.9900016784668
822.3719847,-50.5900001525879
822.3876097,-51.4199981689453
822.4032347,-51.3199996948242
822.4188597,-51.310001373291
822.4344847,-51.9900016784668
822.4501097,-53.2700004577637
822.4657347,-54.5699996948242
822.4813597,-55.0099983215332
822.4969847,-53.9000015258789
822.5126097,-51.1800003051758
822.5282347,-46.7900009155273
822.5438597,-39.5699996948242
822.5594847,-27.3099994659424
822.5751097,-8.52000045776367
822.5907347,15.6300001144409
822.6063597,40.9099998474121
822.6219847,61.5900001525879
822.6376097,72.9899978637695
822.6532347,73.4599990844727
822.6688597,64.8899993896484
822.6844847,51.5699996948242
822.7001097,38.1100006103516
822.7157347,27.6000003814697
822.7313597,20.8500003814697
822.7469847,16.8899993896484
822.7626097,14.0900001525879
822.7782347,11.2200002670288
822.7938597,7.80999994277954
822.8094847,3.94000005722046
822.8251097,-0.159999996423721
822.8407347,-4.25
822.8563597,-7.96000003814697
822.8719847,-10.9200000762939
822.8876097,-12.789999961853
822.9032347,-13.3900003433228
822.9188597,-12.7399997711182
822.9344847,-11.1599998474121
822.9501097,-9.18000030517578
822.9657347,-7.40000009536743
822.9813597,-6.32999992370605
822.9969847,-6.19999980926514
823.0126097,-6.86999988555908
823.0282347,-7.84999990463257
823.0438597,-8.5
823.0594847,-8.57999992370605
823.0751097,-8.44999980926514
823.0907347,-8.82999992370605
823.1063597,-10.1700000762939
823.1219847,-12.4499998092651
823.1376097,-15.25
823.1532347,-18.0599994659424
823.1688597,-20.3299999237061
823.1844847,-21.5699996948242
823.2001097,-21.4400005340576
823.2157347,-19.8899993896484
823.2313597,-17.1100006103516
823.2469847,-13.3699998855591
823.2626097,-8.90999984741211
823.2782347,-4.01000022888184
823.2938597,0.980000019073486
823.3094847,5.82999992370605
823.3251097,10.8199996948242
823.3407347,17.1100006103516
823.3563597,26.6299991607666
823.3719847,40.9000015258789
823.3876097,59.3499984741211
823.4032347,79.0699996948242
823.4188597,96.0800018310547
823.4344847,107.050003051758
823.4501097,110.639999389648
823.4657347,107.790000915527
823.4813597,100.900001525879
823.4969847,92.4700012207031
823.5126097,84.2300033569336
823.5282347,76.7699966430664
823.5438597,69.8499984741211
823.5594847,63.0499992370605
823.5751097,55.9799995422363
823.5907347,48.2200012207031
823.6063597,39.3800010681152
823.6219847,29.3999996185303
823.6376097,18.6000003814697
823.6532347,7.6399998664856
823.6688597,-2.79999995231628
