Time(s),Value(%)
813.0126097,-17.8099994659424
813.0282347,-19.8099994659424
813.0438597,-22.1100006103516
813.0594847,-24.1599998474121
813.0751097,-25.8099994659424
813.0907347,-27.2099990844727
813.1063597,-28.4099998474121
813.1219847,-29.2000007629395
813.1376097,-29.1599998474121
813.1532347,-27.9200000762939
813.1688597,-25.6399993896484
813.1844847,-23.1100006103516
813.2001097,-21.3500003814697
813.2157347,-20.9200000762939
813.2313597,-21.7600002288818
813.2469847,-23.2999992370605
813.2626097,-24.7199993133545
813.2782347,-25.3700008392334
813.2938597,-25.0900001525879
813.3094847,-24.0799999237061
813.3251097,-22.5900001525879
813.3407347,-20.6200008392334
813.3563597,-17.9599990844727
813.3719847,-14.5600004196167
813.3876097,-10.8000001907349
813.4032347,-7.15000009536743
813.4188597,-3.65000009536743
813.4344847,0.430000007152557
813.4501097,6.28000020980835
813.4657347,14.6499996185303
813.4813597,25.0400009155273
813.4969847,35.7000007629395
813.5126097,44.3600006103516
813.5282347,49.3499984741211
813.5438597,50.3199996948242
813.5594847,48.2000007629395
813.5751097,44.5900001525879
813.5907347,40.7700004577637
813.6063597,37.1500015258789
813.6219847,33.3899993896484
813.6376097,29.0799999237061
813.6532347,24.1399993896484
813.6688597,18.7700004577637
813.6844847,13.1899995803833
813.7001097,7.6399998664856
813.7157347,2.67000007629395
813.7313597,-0.870000004768372
813.7469847,-2.48000001907349
813.7626097,-2.33999991416931
813.7782347,-1.29999995231628
813.7938597,-0.360000014305115
813.8094847,-0.230000004172325
813.8251097,-1.14999997615814
813.8407347,-2.97000002861023
813.8563597,-5.28000020980835
813.8719847,-7.55000019073486
813.8876097,-9.21000003814697
813.9032347,-9.82999992370605
813.9188597,-9.56999969482422
813.9344847,-9.25
813.9501097,-9.75
813.9657347,-11.3199996948242
813.9813597,-13.4899997711182
813.9969847,-15.4799995422363
814.0126097,-16.7299995422363
814.0282347,-17.2199993133545
814.0438597,-17.2800006866455
814.0594847,-17.3099994659424
814.0751097,-17.3500003814697
814.0907347,-16.9500007629395
814.1063597,-15.4799995422363
814.1219847,-12.7200002670288
814.1376097,-8.9399995803833
814.1532347,-4.65999984741211
814.1688597,-0.569999992847443
814.1844847,2.49000000953674
814.2001097,3.67000007629395
814.2157347,2.5
814.2313597,-0.430000007152557
814.2469847,-3.22000002861023
814.2626097,-3.29999995231628
814.2782347,1.21000003814697
814.2938597,10.3999996185303
814.3094847,22.3199996948242
814.3251097,33.8800010681152
814.3407347,42.2400016784668
814.3563597,46.0299987792969
814.3719847,45.5800018310547
814.3876097,42.4199981689453
814.4032347,38.1399993896484
814.4188597,33.6199989318848
814.4344847,29.1800003051758
814.4501097,25.1499996185303
814.4657347,21.7900009155273
814.4813597,18.8099994659424
814.4969847,15.3500003814697
814.5126097,10.8800001144409
814.5282347,5.96999979019165
814.5438597,1.98000001907349
814.5594847,0.0599999986588955
814.5751097,0.270000010728836
814.5907347,1.3400000333786
814.6063597,1.69000005722046
814.6219847,0.660000026226044
814.6376097,-1.26999998092651
814.6532347,-3.45000004768372
814.6688597,-5.71000003814697
814.6844847,-8.10999965667725
814.7001097,-10.4300003051758
814.7157347,-12.3100004196167
814.7313597,-13.6300001144409
814.7469847,-14.6599998474121
814.7626097,-15.710000038147
814.7782347,-17.0699996948242
814.7938597,-19.1800003051758
814.8094847,-22.2299995422363
814.8251097,-25.7299995422363
814.8407347,-28.4400005340576
814.8563597,-29.0699996948242
814.8719847,-27.1399993896484
814.8876097,-23.1900005340576
814.9032347,-18.2299995422363
814.9188597,-13.3100004196167
814.9344847,-9.4399995803833
814.9501097,-7.48999977111816
814.9657347,-7.69000005722046
814.9813597,-9.4399995803833
814.9969847,-11.6800003051758
815.0126097,-13.4099998474121
815.0282347,-14.0299997329712
815.0438597,-13.039999961853
815.0594847,-9.36999988555908
815.0751097,-1.60000002384186
815.0907347,10.6000003814697
815.1063597,25.3099994659424
815.1219847,38.7700004577637
815.1376097,47.3300018310547
815.1532347,49.2000007629395
815.1688597,45.060001373291
815.1844847,37.5099983215332
815.2001097,29.7900009155273
815.2157347,24.1599998474121
815.2313597,21.1200008392334
815.2469847,19.8099994659424
815.2626097,19.1000003814697
815.2782347,18.1100006103516
815.2938597,16.1800003051758
815.3094847,12.5900001525879
815.3251097,6.92999982833862
815.3407347,-0.140000000596046
815.3563597,-6.82999992370605
815.3719847,-11.1400003433228
815.3876097,-12.2399997711182
815.4032347,-10.9099998474121
815.4188597,-8.78999996185303
815.4344847,-7.19000005722046
815.4501097,-6.3899998664856
815.4657347,-5.96999979019165
815.4813597,-5.51999998092651
815.4969847,-5.15999984741211
815.5126097,-5.30000019073486
815.5282347,-6.3600001335144
815.5438597,-8.57999992370605
815.5594847,-11.9700002670288
815.5751097,-16.0599994659424
815.5907347,-19.8700008392334
815.6063597,-22.5699996948242
815.6219847,-24.1700000762939
815.6376097,-25.3600006103516
815.6532347,-26.7700004577637
815.6688597,-28.3199996948242
815.6844847,-29.3400001525879
815.7001097,-29.0300006866455
815.7157347,-27.2199993133545
815.7313597,-24.4799995422363
815.7469847,-21.6299991607666
815.7626097,-19.3400001525879
815.7782347,-17.8500003814697
815.7938597,-17.0599994659424
815.8094847,-16.6000003814697
815.8251097,-16.0699996948242
815.8407347,-15.25
815.8563597,-13.9499998092651
815.8719847,-11.5799999237061
815.8876097,-7.03999996185303
815.9032347,0.660000026226044
815.9188597,11.5200004577637
815.9344847,23.9899997711182
815.9501097,35.4099998474121
815.9657347,43.1699981689453
815.9813597,45.7299995422363
815.9969847,43.1699981689453
816.0126097,36.9599990844727
816.0282347,29.1000003814697
816.0438597,21.3099994659424
816.0594847,14.789999961853
816.0751097,10.2799997329712
816.0907347,7.78999996185303
816.1063597,6.42999982833862
816.1219847,4.78000020980835
816.1376097,1.70000004768372
816.1532347,-2.9300000667572
816.1688597,-8.15999984741211
816.1844847,-12.5699996948242
816.2001097,-15.1599998474121
816.2157347,-15.6700000762939
816.2313597,-14.4200000762939
816.2469847,-12.210000038147
816.2626097,-9.9399995803833
816.2782347,-8.42000007629395
816.2938597,-8.07999992370605
816.3094847,-8.89999961853027
816.3251097,-10.4300003051758
816.3407347,-12.0600004196167
816.3563597,-13.3999996185303
816.3719847,-14.4899997711182
816.3876097,-15.460000038147
816.4032347,-16.1399993896484
816.4188597,-16.0599994659424
816.4344847,-14.960000038147
816.4501097,-13.25
816.4657347,-11.789999961853
816.4813597,-11.2299995422363
816.4969847,-11.7299995422363
816.5126097,-13.039999961853
816.5282347,-14.5900001525879
816.5438597,-15.75
816.5594847,-16.2299995422363
816.5751097,-16.2299995422363
816.5907347,-16.1499996185303
816.6063597,-16.2299995422363
816.6219847,-16.3099994659424
816.6376097,-15.9799995422363
816.6532347,-14.8900003433228
816.6688597,-12.7600002288818
816.6844847,-9.17000007629395
816.7001097,-3.5
816.7157347,4.69999980926514
816.7313597,14.8999996185303
816.7469847,25.1200008392334
816.7626097,32.8800010681152
816.7782347,36.8699989318848
816.7938597,37.6100006103516
816.8094847,36.5200004577637
816.8251097,34.7400016784668
816.8407347,32.689998626709
816.8563597,30.3700008392334
816.8719847,27.8600006103516
816.8876097,25.3899993896484
816.9032347,22.9799995422363
816.9188597,20.1299991607666
816.9344847,16.2399997711182
816.9501097,11.3800001144409
816.9657347,6.32999992370605
816.9813597,2.0
816.9969847,-1.03999996185303
817.0126097,-2.71000003814697
817.0282347,-3.38000011444092
817.0438597,-3.74000000953674
817.0594847,-4.48000001907349
817.0751097,-5.88000011444092
817.0907347,-7.78999996185303
817.1063597,-9.92000007629395
817.1219847,-12.0100002288818
817.1376097,-13.9200000762939
817.1532347,-15.4099998474121
817.1688597,-16.2199993133545
817.1844847,-16.2900009155273
817.2001097,-15.9700002670288
817.2157347,-15.710000038147
817.2313597,-15.5699996948242
817.2469847,-15.1499996185303
817.2626097,-14.1700000762939
817.2782347,-12.8500003814697
817.2938597,-11.7399997711182
817.3094847,-11.3000001907349
817.3251097,-11.5799999237061
817.3407347,-12.3299999237061
817.3563597,-13.1700000762939
817.3719847,-13.7399997711182
817.3876097,-13.6099996566772
817.4032347,-12.4399995803833
817.4188597,-10.289999961853
817.4344847,-7.59999990463257
817.4501097,-4.78999996185303
817.4657347,-1.83000004291534
817.4813597,1.99000000953674
817.4969847,7.71000003814697
817.5126097,15.6199998855591
817.5282347,24.6599998474121
817.5438597,32.7999992370605
817.5594847,37.9000015258789
817.5751097,38.7099990844727
817.5907347,35.7099990844727
817.6063597,31.0300006866455
817.6219847,27.1200008392334
817.6376097,25.2900009155273
817.6532347,25.2399997711182
817.6688597,25.7199993133545
817.6844847,25.4599990844727
817.7001097,23.75
817.7157347,20.5499992370605
817.7313597,16.3899993896484
817.7469847,11.9499998092651
817.7626097,7.71000003814697
817.7782347,3.94000005722046
817.7938597,0.920000016689301
817.8094847,-1.0900000333786
817.8251097,-2.23000001907349
817.8407347,-2.97000002861023
817.8563597,-3.83999991416931
817.8719847,-5.17999982833862
817.8876097,-7.15000009536743
817.9032347,-9.60999965667725
817.9188597,-12.1000003814697
817.9344847,-14.1000003814697
817.9501097,-15.3000001907349
817.9657347,-15.8199996948242
817.9813597,-16.2600002288818
817.9969847,-17.4200000762939
818.0126097,-19.7299995422363
818.0282347,-22.8299999237061
818.0438597,-25.6200008392334
818.0594847,-26.8799991607666
818.0751097,-26.0599994659424
818.0907347,-23.6599998474121
818.1063597,-20.7800006866455
818.1219847,-18.5300006866455
818.1376097,-17.5200004577637
818.1532347,-17.8299999237061
818.1688597,-18.8799991607666
818.1844847,-19.5400009155273
818.2001097,-18.8799991607666
818.2157347,-16.8299999237061
818.2313597,-13.9200000762939
818.2469847,-10.539999961853
818.2626097,-6.32999992370605
818.2782347,-0.28999999165535
818.2938597,8.34000015258789
818.3094847,19.1000003814697
818.3251097,30.2299995422363
818.3407347,39.6500015258789
818.3563597,45.8699989318848
818.3719847,48.0900001525879
818.3876097,46.4099998474121
818.4032347,41.939998626709
818.4188597,36.2900009155273
818.4344847,30.8700008392334
818.4501097,26.5799999237061
818.4657347,23.7000007629395
818.4813597,21.7800006866455
818.4969847,19.6700000762939
818.5126097,16.0300006866455
818.5282347,10.289999961853
818.5438597,3.22000002861023
818.5594847,-3.48000001907349
818.5751097,-8.30000019073486
818.5907347,-10.6899995803833
818.6063597,-11.210000038147
818.6219847,-11.1000003814697
818.6376097,-11.4399995803833
818.6532347,-12.6700000762939
818.6688597,-14.4399995803833
818.6844847,-16.0
818.7001097,-16.7199993133545
818.7157347,-16.4400005340576
818.7313597,-15.5699996948242
818.7469847,-14.7200002670288
818.7626097,-14.1599998474121
818.7782347,-13.6300001144409
818.7938597,-12.8999996185303
818.8094847,-12.0799999237061
818.8251097,-11.460000038147
818.8407347,-11.0100002288818
818.8563597,-10.4700002670288
818.8719847,-9.86999988555908
818.8876097,-9.63000011444092
818.9032347,-10.1000003814697
818.9188597,-11.1999998092651
818.9344847,-12.5100002288818
818.9501097,-13.6599998474121
818.9657347,-14.5500001907349
818.9813597,-15.210000038147
818.9969847,-15.6400003433228
819.0126097,-15.6599998474121
819.0282347,-14.7399997711182
819.0438597,-11.8800001144409
819.0594847,-5.84000015258789
819.0751097,3.99000000953674
819.0907347,16.7099990844727
819.1063597,29.7800006866455
819.1219847,39.9300003051758
819.1376097,44.5999984741211
819.1532347,43.0999984741211
819.1688597,36.8699989318848
819.1844847,28.6800003051758
819.2001097,21.4500007629395
819.2157347,17.0200004577637
819.2313597,15.4499998092651
819.2469847,15.3000001907349
819.2626097,14.8500003814697
819.2782347,13.1000003814697
819.2938597,10.039999961853
819.3094847,6.5
819.3251097,3.60999989509583
819.3407347,2.25999999046326
819.3563597,2.65000009536743
819.3719847,4.1399998664856
819.3876097,5.34999990463257
819.4032347,4.84999990463257
819.4188597,1.99000000953674
819.4344847,-2.75999999046326
819.4501097,-8.25
819.4657347,-13.3800001144409
819.4813597,-17.5699996948242
819.4969847,-20.75
819.5126097,-23.0599994659424
819.5282347,-24.7000007629395
819.5438597,-25.7700004577637
819.5594847,-26.2099990844727
819.5751097,-25.8899993896484
819.5907347,-24.7700004577637
819.6063597,-23.0599994659424
819.6219847,-21.0699996948242
819.6376097,-19.2800006866455
819.6532347,-18.2600002288818
819.6688597,-18.3999996185303
819.6844847,-19.4400005340576
819.7001097,-20.5499992370605
819.7157347,-20.7900009155273
819.7313597,-19.6900005340576
819.7469847,-17.3700008392334
819.7626097,-14.2399997711182
819.7782347,-10.6899995803833
819.7938597,-6.69000005722046
819.8094847,-1.72000002861023
819.8251097,5.09000015258789
819.8407347,14.3299999237061
819.8563597,25.3500003814697
819.8719847,36.1500015258789
819.8876097,44.1800003051758
819.9032347,47.7299995422363
819.9188597,46.8800010681152
819.9344847,43.3800010681152
819.9501097,39.4300003051758
819.9657347,36.1699981689453
819.9813597,33.310001373291
819.9969847,30.0
820.0126097,25.9699993133545
820.0282347,21.5499992370605
820.0438597,17.1399993896484
820.0594847,12.7600002288818
820.0751097,8.28999996185303
820.0907347,3.99000000953674
820.1063597,0.689999997615814
820.1219847,-0.699999988079071
820.1376097,-0.230000004172325
820.1532347,0.990000009536743
820.1688597,1.51999998092651
820.1844847,0.439999997615814
820.2001097,-2.09999990463257
820.2157347,-5.25
820.2313597,-8.07999992370605
820.2469847,-10.2600002288818
820.2626097,-12.0799999237061
820.2782347,-14.0100002288818
820.2938597,-16.2900009155273
820.3094847,-18.8600006103516
820.3251097,-21.6399993896484
820.3407347,-24.6100006103516
820.3563597,-27.6599998474121
820.3719847,-30.3400001525879
820.3876097,-32.0400009155273
820.4032347,-32.3699989318848
820.4188597,-31.5300006866455
820.4344847,-30.0200004577637
820.4501097,-28.2399997711182
820.4657347,-26.3600006103516
820.4813597,-24.4099998474121
820.4969847,-22.3999996185303
820.5126097,-20.3700008392334
820.5282347,-18.3899993896484
820.5438597,-16.5400009155273
820.5594847,-14.8100004196167
820.5751097,-12.8999996185303
820.5907347,-10.1000003814697
820.6063597,-5.26000022888184
820.6219847,2.78999996185303
820.6376097,14.25
820.6532347,27.4899997711182
820.6688597,39.4000015258789
820.6844847,47.0299987792969
820.7001097,49.2900009155273
820.7157347,47.2400016784668
820.7313597,42.7900009155273
820.7469847,37.4700012207031
820.7626097,32.1199989318848
820.7782347,27.3700008392334
820.7938597,23.7800006866455
820.8094847,21.7399997711182
820.8251097,21.1399993896484
820.8407347,20.9300003051758
820.8563597,19.5200004577637
820.8719847,15.7600002288818
820.8876097,9.72000026702881
820.9032347,2.60999989509583
820.9188597,-3.86999988555908
820.9344847,-8.30000019073486
820.9501097,-10.2299995422363
820.9657347,-10.1899995803833
820.9813597,-9.26000022888184
820.9969847,-8.53999996185303
821.0126097,-8.88000011444092
821.0282347,-10.7200002670288
821.0438597,-14.0200004577637
821.0594847,-18.0599994659424
821.0751097,-21.7399997711182
821.0907347,-24.1499996185303
821.1063597,-25.0699996948242
821.1219847,-25.0100002288818
821.1376097,-24.7399997711182
821.1532347,-24.7999992370605
821.1688597,-25.3400001525879
821.1844847,-26.0900001525879
821.2001097,-26.5499992370605
821.2157347,-26.3899993896484
821.2313597,-25.7900009155273
821.2469847,-25.2900009155273
821.2626097,-25.4099998474121
821.2782347,-26.3500003814697
821.2938597,-27.8700008392334
821.3094847,-29.3600006103516
821.3251097,-29.8600006103516
821.3407347,-28.4400005340576
821.3563597,-24.7700004577637
821.3719847,-19.4500007629395
821.3876097,-13.7200002670288
821.4032347,-8.64999961853027
821.4188597,-4.28000020980835
821.4344847,0.709999978542328
821.4501097,8.01000022888184
821.4657347,18.1299991607666
821.4813597,29.7600002288818
821.4969847,40.3199996948242
821.5126097,47.4099998474121
821.5282347,49.9799995422363
821.5438597,48.4599990844727
821.5594847,44.2400016784668
821.5751097,39.0699996948242
821.5907347,34.3600006103516
821.6063597,30.6100006103516
821.6219847,27.2299995422363
821.6376097,23.0200004577637
821.6532347,17.0
821.6688597,9.27000045776367
821.6844847,1.32000005245209
821.7001097,-4.78999996185303
821.7157347,-7.69000005722046
821.7313597,-7.48000001907349
821.7469847,-5.61999988555908
821.7626097,-3.91000008583069
821.7782347,-3.42000007629395
821.7938597,-4.1100001335144
821.8094847,-5.42000007629395
821.8251097,-6.88000011444092
821.8407347,-8.27000045776367
821.8563597,-9.52999973297119
821.8719847,-10.5
821.8876097,-10.8999996185303
821.9032347,-10.6400003433228
821.9188597,-10.0200004577637
821.9344847,-9.60999965667725
821.9501097,-9.77999973297119
821.9657347,-10.3199996948242
821.9813597,-10.6000003814697
821.9969847,-9.96000003814697
822.0126097,-8.30000019073486
822.0282347,-6.32000017166138
822.0438597,-5.05999994277954
822.0594847,-5.1100001335144
822.0751097,-6.40000009536743
822.0907347,-8.43000030517578
822.1063597,-10.4099998474121
822.1219847,-11.5699996948242
822.1376097,-11.75
822.1532347,-11.3699998855591
822.1688597,-10.8699998855591
822.1844847,-10.1400003433228
822.2001097,-8.42000007629395
822.2157347,-4.44999980926514
822.2313597,3.00999999046326
822.2469847,14.0500001907349
822.2626097,26.7000007629395
822.2782347,37.689998626709
822.2938597,44.2999992370605
822.3094847,45.939998626709
822.3251097,43.9900016784668
822.3407347,40.6100006103516
822.3563597,37.689998626709
822.3719847,36.3199996948242
822.3876097,36.6199989318848
822.4032347,37.7999992370605
822.4188597,38.6399993896484
822.4344847,38.1100006103516
822.4501097,35.4700012207031
822.4657347,30.2099990844727
822.4813597,22.3099994659424
822.4969847,12.7799997329712
822.5126097,3.70000004768372
822.5282347,-2.82999992370605
822.5438597,-5.8899998664856
822.5594847,-6.05000019073486
822.5751097,-4.73999977111816
822.5907347,-3.5699999332428
822.6063597,-3.75999999046326
822.6219847,-5.73000001907349
822.6376097,-8.97000026702881
822.6532347,-12.6000003814697
822.6688597,-15.9700002670288
822.6844847,-18.8299999237061
822.7001097,-21.1000003814697
822.7157347,-22.6599998474121
822.7313597,-23.2600002288818
822.7469847,-22.7900009155273
822.7626097,-21.5799999237061
822.7782347,-20.2800006866455
822.7938597,-19.5900001525879
822.8094847,-20.0200004577637
822.8251097,-21.5300006866455
822.8407347,-23.3299999237061
822.8563597,-24.4500007629395
822.8719847,-24.4500007629395
822.8876097,-23.5799999237061
822.9032347,-22.2900009155273
822.9188597,-21.0200004577637
822.9344847,-20.0799999237061
822.9501097,-19.3099994659424
822.9657347,-17.8999996185303
822.9813597,-14.5600004196167
822.9969847,-7.96000003814697
823.0126097,2.3199999332428
823.0282347,15.0500001907349
823.0438597,27.6000003814697
823.0594847,37.310001373291
823.0751097,42.7299995422363
823.0907347,44.0299987792969
823.1063597,42.3699989318848
823.1219847,39.0499992370605
823.1376097,35.1800003051758
823.1532347,31.8799991607666
823.1688597,29.8999996185303
823.1844847,29.0699996948242
823.2001097,28.2099990844727
823.2157347,25.9699993133545
823.2313597,21.5900001525879
823.2469847,15.1599998474121
823.2626097,7.5
823.2782347,-0.129999995231628
823.2938597,-6.57999992370605
823.3094847,-11.1400003433228
823.3251097,-13.75
823.3407347,-14.8500003814697
823.3563597,-15.1400003433228
823.3719847,-15.3199996948242
823.3876097,-16.0400009155273
823.4032347,-17.9699993133545
823.4188597,-21.3199996948242
823.4344847,-25.2900009155273
823.4501097,-28.2700004577637
823.4657347,-29.0499992370605
823.4813597,-27.6399993896484
823.4969847,-24.9899997711182
823.5126097,-22.2299995422363
823.5282347,-20.1299991607666
823.5438597,-18.8400001525879
823.5594847,-17.8700008392334
823.5751097,-16.4899997711182
823.5907347,-14.5299997329712
823.6063597,-12.8400001525879
823.6219847,-12.5100002288818
823.6376097,-14.0100002288818
823.6532347,-17.0499992370605
823.6688597,-20.8099994659424
