Time(s),Value(%)
700.0011142,-12.2399997711182
700.0167392,-12.0799999237061
700.0323642,-11.289999961853
700.0479892,-10.0100002288818
700.0636142,-8.56999969482422
700.0792392,-7.40000009536743
700.0948642,-6.82999992370605
700.1104892,-6.86999988555908
700.1261142,-7.21000003814697
700.1417392,-7.30000019073486
700.1573642,-6.69000005722046
700.1729892,-5.15999984741211
700.1886142,-2.57999992370605
700.2042392,1.33000004291534
700.2198642,6.98000001907349
700.2354892,14.4799995422363
700.2511142,23.8099994659424
700.2667392,33.939998626709
700.2823642,43.8199996948242
700.2979892,52.7400016784668
700.3136142,60.5099983215332
700.3292392,67.3899993896484
700.3448642,73.620002746582
700.3604892,79.2300033569336
700.3761142,83.9899978637695
700.3917392,87.6900024414063
700.4073642,90.3099975585938
700.4229892,92.0699996948242
700.4386142,93.3300018310547
700.4542392,94.4100036621094
700.4698642,95.5100021362305
700.4854892,96.629997253418
700.5011142,97.629997253418
700.5167392,98.25
700.5323642,98.2600021362305
700.5479892,97.5999984741211
700.5636142,96.2600021362305
700.5792392,94.1800003051758
700.5948642,91.2699966430664
700.6104892,87.6399993896484
700.6261142,83.7200012207031
700.6417392,80.1399993896484
700.6573642,77.3000030517578
700.6729892,75.0899963378906
700.6886142,73.1100006103516
700.7042392,71.1699981689453
700.7198642,69.4400024414063
700.7354892,68.1600036621094
700.7511142,67.4000015258789
700.7667392,67.0199966430664
700.7823642,66.6500015258789
700.7979892,65.8300018310547
700.8136142,64.2300033569336
700.8292392,61.7900009155273
700.8448642,58.5999984741211
700.8604892,54.7000007629395
700.8761142,50.0900001525879
700.8917392,44.9300003051758
700.9073642,39.8199996948242
700.9229892,35.7400016784668
700.9386142,33.6800003051758
700.9542392,34.1699981689453
700.9698642,37.1599998474121
700.9854892,42.1699981689453
701.0011142,48.5099983215332
701.0167392,55.4199981689453
701.0323642,62.2299995422363
701.0479892,68.5199966430664
701.0636142,74.1699981689453
701.0792392,79.3199996948242
701.0948642,84.1699981689453
701.1104892,88.8499984741211
701.1261142,93.3199996948242
701.1417392,97.3899993896484
701.1573642,100.870002746582
701.1729892,103.639999389648
701.1886142,105.540000915527
701.2042392,106.309997558594
701.2198642,105.599998474121
701.2354892,103.25
701.2511142,100.629997253418
701.2667392,96.9400024414063
701.2823642,92.879997253418
701.2979892,88.9899978637695
701.3136142,85.4800033569336
701.3292392,82.2699966430664
701.3448642,79.0100021362305
701.3604892,75.25
701.3761142,70.6500015258789
701.3917392,65.1399993896484
701.4073642,58.7999992370605
701.4229892,51.6300010681152
701.4386142,43.5900001525879
701.4542392,34.8600006103516
701.4698642,26.0499992370605
701.4854892,18.0900001525879
701.5011142,11.6400003433228
701.5167392,6.53999996185303
701.5323642,2.14000010490417
701.5479892,-1.96000003814697
701.5636142,-5.71999979019165
701.5792392,-8.88000011444092
701.5948642,-11.3500003814697
701.6104892,-13.2700004577637
701.6261142,-15.0
701.6417392,-16.9799995422363
701.6573642,-19.5599994659424
701.6729892,-22.7399997711182
701.6886142,-26.1499996185303
701.7042392,-29.1700000762939
701.7198642,-31.2900009155273
701.7354892,-32.2700004577637
701.7511142,-32.0200004577637
701.7667392,-30.2800006866455
701.7823642,-26.6399993896484
701.7979892,-20.9200000762939
701.8136142,-13.5100002288818
701.8292392,-5.40000009536743
701.8448642,2.21000003814697
701.8604892,8.5600004196167
701.8761142,13.4899997711182
701.8917392,17.2999992370605
701.9073642,20.3199996948242
701.9229892,22.6200008392334
701.9386142,24.0799999237061
701.9542392,24.6000003814697
701.9698642,24.2800006866455
701.9854892,23.3199996948242
702.0011142,21.9200000762939
702.0167392,20.2600002288818
702.0323642,18.4599990844727
702.0479892,16.5599994659424
702.0636142,14.4799995422363
702.0792392,12.0799999237061
702.0948642,9.28999996185303
702.1104892,6.23999977111816
702.1261142,3.19000005722046
702.1417392,0.370000004768372
702.1573642,-2.11999988555908
702.1729892,-4.40000009536743
702.1886142,-6.75
702.2042392,-9.64999961853027
702.2198642,-13.460000038147
702.2354892,-18.25
702.2511142,-24.1000003814697
702.2667392,-30.7900009155273
702.2823642,-38.2999992370605
702.2979892,-46.4199981689453
702.3136142,-54.5200004577637
702.3292392,-61.7099990844727
702.3448642,-67.379997253418
702.3604892,-71.7300033569336
702.3761142,-75.4000015258789
702.3917392,-78.8000030517578
702.4073642,-81.8300018310547
702.4229892,-84.2099990844727
702.4386142,-85.8399963378906
702.4542392,-86.7799987792969
702.4698642,-87.1399993896484
702.4854892,-86.879997253418
702.5011142,-85.8300018310547
702.5167392,-83.9599990844727
702.5323642,-81.25
702.5479892,-77.5899963378906
702.5636142,-72.9000015258789
702.5792392,-67.2699966430664
702.5948642,-61.0200004577637
702.6104892,-54.439998626709
702.6261142,-47.6800003051758
702.6417392,-40.7400016784668
702.6573642,-33.7599983215332
702.6729892,-27.2700004577637
702.6886142,-21.9400005340576
702.7042392,-18.1599998474121
702.7198642,-15.8500003814697
702.7354892,-14.5699996948242
702.7511142,-13.8400001525879
702.7667392,-13.4700002670288
702.7823642,-13.5699996948242
702.7979892,-14.3000001907349
702.8136142,-15.7200002670288
702.8292392,-17.6100006103516
702.8448642,-19.6200008392334
702.8604892,-21.4500007629395
702.8761142,-22.9500007629395
702.8917392,-24.2199993133545
702.9073642,-25.5200004577637
702.9229892,-27.3299999237061
702.9386142,-30.0
702.9542392,-33.6100006103516
702.9698642,-38.0200004577637
702.9854892,-43.1199989318848
703.0011142,-48.8199996948242
703.0167392,-54.939998626709
703.0323642,-60.9300003051758
703.0479892,-66.0400009155273
703.0636142,-69.8099975585938
703.0792392,-72.4899978637695
703.0948642,-74.7600021362305
703.1104892,-76.9599990844727
703.1261142,-79.0100021362305
703.1417392,-80.5800018310547
703.1573642,-81.5
703.1729892,-81.8000030517578
703.1886142,-81.6399993896484
703.2042392,-81.1399993896484
703.2198642,-80.3199996948242
703.2354892,-79.1600036621094
703.2511142,-77.5899963378906
703.2667392,-75.0
703.2823642,-70.9499969482422
703.2979892,-65.4300003051758
703.3136142,-58.7299995422363
703.3292392,-51.1800003051758
703.3448642,-42.9199981689453
703.3604892,-33.9900016784668
703.3761142,-24.7199993133545
703.3917392,-15.9200000762939
703.4073642,-8.52999973297119
703.4229892,-3.01999998092651
703.4386142,0.790000021457672
703.4542392,3.52999997138977
703.4698642,5.75
703.4854892,7.63000011444092
703.5011142,9.03999996185303
703.5167392,9.85999965667725
703.5323642,10.0600004196167
703.5479892,9.72999954223633
703.5636142,9.0600004196167
703.5792392,8.18000030517578
703.5948642,7.23999977111816
703.6104892,6.28000020980835
703.6261142,5.21000003814697
703.6417392,3.78999996185303
703.6573642,1.87000000476837
703.6729892,-0.5
703.6886142,-3.03999996185303
703.7042392,-5.44000005722046
703.7198642,-7.51999998092651
703.7354892,-9.27999973297119
703.7511142,-10.9499998092651
703.7667392,-12.9300003051758
703.7823642,-15.5699996948242
703.7979892,-18.9400005340576
703.8136142,-23.0
703.8292392,-27.7900009155273
703.8448642,-33.3300018310547
703.8604892,-39.4599990844727
703.8761142,-45.5800018310547
703.8917392,-50.7599983215332
703.9073642,-54.2900009155273
703.9229892,-56.0699996948242
703.9386142,-56.5
703.9542392,-55.9300003051758
703.9698642,-54.5400009155273
703.9854892,-52.4099998474121
704.0011142,-49.7400016784668
704.0167392,-46.7099990844727
704.0323642,-43.0400009155273
704.0479892,-37.7999992370605
704.0636142,-30.0499992370605
704.0792392,-19.6399993896484
704.0948642,-7.28000020980835
704.1104892,5.96000003814697
704.1261142,19.1599998474121
704.1417392,31.6599998474121
704.1573642,42.7299995422363
704.1729892,51.4300003051758
704.1886142,57.0499992370605
704.2042392,59.5999984741211
704.2198642,59.8400001525879
704.2354892,58.7000007629395
704.2511142,56.9099998474121
704.2667392,54.8899993896484
704.2823642,52.8400001525879
704.2979892,50.810001373291
704.3136142,48.7700004577637
704.3292392,46.6300010681152
704.3448642,44.3300018310547
704.3604892,41.8499984741211
704.3761142,39.1599998474121
704.3917392,36.189998626709
704.4073642,32.8800010681152
704.4229892,29.2299995422363
704.4386142,25.4300003051758
704.4542392,21.6599998474121
704.4698642,17.9799995422363
704.4854892,14.25
704.5011142,10.3100004196167
704.5167392,6.21000003814697
704.5323642,2.25
704.5479892,-1.28999996185303
704.5636142,-4.28999996185303
704.5792392,-6.82999992370605
704.5948642,-9.14000034332275
704.6104892,-11.5200004577637
704.6261142,-14.1700000762939
704.6417392,-17.0499992370605
704.6573642,-19.6700000762939
704.6729892,-21.1200008392334
704.6886142,-20.6200008392334
704.7042392,-18.0
704.7198642,-13.6499996185303
704.7354892,-8.05000019073486
704.7511142,-1.20000004768372
704.7667392,7.32000017166138
704.7823642,17.6499996185303
704.7979892,28.9099998474121
704.8136142,39.560001373291
704.8292392,48.3199996948242
704.8448642,54.8300018310547
704.8604892,59.5400009155273
704.8761142,63.189998626709
704.8917392,66.3199996948242
704.9073642,69.1600036621094
704.9229892,71.6900024414063
704.9386142,74.0
704.9542392,76.3499984741211
704.9698642,79.0800018310547
704.9854892,82.1900024414063
705.0011142,85.1399993896484
705.0167392,86.8199996948242
705.0323642,86.3000030517578
705.0479892,83.4499969482422
705.0636142,78.879997253418
705.0792392,73.379997253418
705.0948642,67.4599990844727
705.1104892,61.3899993896484
705.1261142,55.2799987792969
705.1417392,49.1699981689453
705.1573642,43.0800018310547
705.1729892,36.9199981689453
705.1886142,30.5200004577637
705.2042392,23.7299995422363
705.2198642,16.5599994659424
705.2354892,9.1899995803833
705.2511142,1.89999997615814
705.2667392,-5.01000022888184
705.2823642,-11.4300003051758
705.2979892,-17.3600006103516
705.3136142,-22.9699993133545
705.3292392,-28.5400009155273
705.3448642,-34.2900009155273
705.3604892,-40.1599998474121
705.3761142,-45.5299987792969
705.3917392,-49.2400016784668
705.4073642,-50.2299995422363
705.4229892,-48.2999992370605
705.4386142,-44.0800018310547
705.4542392,-38.4000015258789
705.4698642,-31.5900001525879
705.4854892,-23.3299999237061
705.5011142,-13.5299997329712
705.5167392,-3.1800000667572
705.5323642,6.05999994277954
705.5479892,12.9399995803833
705.5636142,17.2399997711182
705.5792392,19.6499996185303
705.5948642,21.0799999237061
705.6104892,22.1200008392334
705.6261142,22.8999996185303
705.6417392,23.3400001525879
705.6573642,23.4400005340576
705.6729892,23.3799991607666
705.6886142,23.4300003051758
705.7042392,23.6599998474121
705.7198642,23.6800003051758
705.7354892,22.6299991607666
705.7511142,19.6700000762939
705.7667392,14.6499996185303
705.7823642,8.0600004196167
705.7979892,0.75
705.8136142,-6.59000015258789
705.8292392,-13.5500001907349
705.8448642,-19.9899997711182
705.8604892,-25.9799995422363
705.8761142,-31.7700004577637
705.8917392,-37.7299995422363
705.9073642,-44.1699981689453
705.9229892,-51.1199989318848
705.9386142,-58.4700012207031
705.9542392,-66.1399993896484
705.9698642,-74.0899963378906
705.9854892,-82.1600036621094
706.0011142,-89.9800033569336
706.0167392,-97.0
706.0323642,-102.919998168945
706.0479892,-107.930000305176
706.0636142,-112.419998168945
706.0792392,-116.569999694824
706.0948642,-120.190002441406
706.1104892,-123.050003051758
706.1261142,-125.050003051758
706.1417392,-126.160003662109
706.1573642,-125.73999786377
706.1729892,-122.319999694824
706.1886142,-114.459999084473
706.2042392,-101.940002441406
706.2198642,-85.7399978637695
706.2354892,-67.1500015258789
706.2511142,-47.2400016784668
706.2667392,-27.0200004577637
706.2823642,-7.94999980926514
706.2979892,8.02999973297119
706.3136142,19.5200004577637
706.3292392,26.5499992370605
706.3448642,30.2800006866455
706.3604892,31.8299999237061
706.3761142,31.7399997711182
706.3917392,30.3099994659424
706.4073642,27.8899993896484
706.4229892,24.9500007629395
706.4386142,21.9200000762939
706.4542392,19.0
706.4698642,16.2000007629395
706.4854892,13.460000038147
706.5011142,10.7200002670288
706.5167392,7.94999980926514
706.5323642,5.17000007629395
706.5479892,2.41000008583069
706.5636142,-0.400000005960464
706.5792392,-3.53999996185303
706.5948642,-7.30999994277954
706.6104892,-11.8500003814697
706.6261142,-17.0200004577637
706.6417392,-22.4699993133545
706.6573642,-27.7399997711182
706.6729892,-32.5200004577637
706.6886142,-36.7099990844727
706.7042392,-40.3800010681152
706.7198642,-43.810001373291
706.7354892,-47.3800010681152
706.7511142,-51.3899993896484
706.7667392,-55.8199996948242
706.7823642,-60.25
706.7979892,-63.9599990844727
706.8136142,-66.3199996948242
706.8292392,-67.120002746582
706.8448642,-66.5100021362305
706.8604892,-64.5299987792969
706.8761142,-60.7200012207031
706.8917392,-54.1500015258789
706.9073642,-44.2000007629395
706.9229892,-31.5100002288818
706.9386142,-17.7399997711182
706.9542392,-4.63000011444092
706.9698642,6.76999998092651
706.9854892,16.3199996948242
707.0011142,24.3400001525879
707.0167392,31.1700000762939
707.0323642,36.9799995422363
707.0479892,41.9300003051758
707.0636142,46.2700004577637
707.0792392,50.4599990844727
707.0948642,54.8899993896484
707.1104892,59.5900001525879
707.1261142,63.9500007629395
707.1417392,66.7099990844727
707.1573642,66.7900009155273
707.1729892,64.0699996948242
707.1886142,59.3400001525879
707.2042392,53.689998626709
707.2198642,47.8600006103516
707.2354892,42.1199989318848
707.2511142,36.439998626709
707.2667392,30.7199993133545
707.2823642,24.9099998474121
707.2979892,18.9699993133545
707.3136142,12.789999961853
707.3292392,6.25
707.3448642,-0.670000016689301
707.3604892,-7.73999977111816
707.3761142,-14.5200004577637
707.3917392,-20.6499996185303
707.4073642,-26.0
707.4229892,-30.6499996185303
707.4386142,-34.8199996948242
707.4542392,-38.7299995422363
707.4698642,-42.5299987792969
707.4854892,-46.1100006103516
707.5011142,-48.8400001525879
707.5167392,-49.4900016784668
707.5323642,-46.9700012207031
707.5479892,-41.1199989318848
707.5636142,-32.7700004577637
707.5792392,-23.0200004577637
707.5948642,-12.4399995803833
707.6104892,-0.870000004768372
707.6261142,11.6199998855591
707.6417392,23.9799995422363
707.6573642,34.4900016784668
707.6729892,41.9900016784668
707.6886142,46.5299987792969
707.7042392,49.0400009155273
707.7198642,50.5099983215332
707.7354892,51.3800010681152
707.7511142,51.5299987792969
707.7667392,50.7999992370605
707.7823642,49.2400016784668
707.7979892,47.1399993896484
707.8136142,44.8699989318848
707.8292392,42.6699981689453
707.8448642,40.439998626709
707.8604892,37.7099990844727
707.8761142,33.8699989318848
707.8917392,28.4899997711182
707.9073642,21.6399993896484
707.9229892,13.8500003814697
707.9386142,5.86999988555908
707.9542392,-1.63999998569489
707.9698642,-8.38000011444092
707.9854892,-14.3699998855591
708.0011142,-20.0300006866455
708.0167392,-26.0499992370605
708.0323642,-33.0200004577637
708.0479892,-41.0800018310547
708.0636142,-50.0900001525879
708.0792392,-59.939998626709
708.0948642,-70.620002746582
708.1104892,-81.8300018310547
708.1261142,-92.6800003051758
708.1417392,-101.769996643066
708.1573642,-107.849998474121
708.1729892,-110.410003662109
708.1886142,-109.699996948242
708.2042392,-106.290000915527
708.2198642,-100.809997558594
708.2354892,-93.9899978637695
708.2511142,-86.4499969482422
708.2667392,-78.8199996948242
708.2823642,-70.9100036621094
708.2979892,-61.6599998474121
708.3136142,-49.9700012207031
708.3292392,-35.5800018310547
708.3448642,-19.2099990844727
708.3604892,-2.01999998092651
708.3761142,14.9700002670288
708.3917392,31.0200004577637
708.4073642,45.1800003051758
708.4229892,56.1500015258789
708.4386142,62.8400001525879
708.4542392,65.1600036621094
708.4698642,64.0999984741211
708.4854892,61.0999984741211
708.5011142,57.3899993896484
708.5167392,53.7299995422363
708.5323642,50.4500007629395
708.5479892,47.5200004577637
708.5636142,44.7000007629395
708.5792392,41.6500015258789
708.5948642,38.0999984741211
708.6104892,33.9900016784668
708.6261142,29.3199996948242
708.6417392,23.9599990844727
708.6573642,17.7800006866455
708.6729892,10.8800001144409
708.6886142,3.76999998092651
708.7042392,-2.78999996185303
708.7198642,-8.43000030517578
708.7354892,-13.3900003433228
708.7511142,-18.1499996185303
708.7667392,-22.8099994659424
708.7823642,-26.9899997711182
708.7979892,-30.2199993133545
708.8136142,-32.3800010681152
708.8292392,-33.6300010681152
708.8448642,-34.310001373291
708.8604892,-34.6599998474121
708.8761142,-34.7599983215332
708.8917392,-34.5200004577637
708.9073642,-33.4300003051758
708.9229892,-30.5200004577637
708.9386142,-24.9099998474121
708.9542392,-16.5200004577637
708.9698642,-6.03000020980835
708.9854892,5.71000003814697
709.0011142,18.3199996948242
709.0167392,31.7999992370605
709.0323642,45.8300018310547
709.0479892,59.2299995422363
709.0636142,70.4499969482422
709.0792392,78.5699996948242
709.0948642,83.8199996948242
709.1104892,87.1600036621094
709.1261142,89.4899978637695
709.1417392,91.0599975585938
709.1573642,91.6600036621094
709.1729892,91.0400009155273
709.1886142,89.2699966430664
709.2042392,86.6399993896484
709.2198642,83.4899978637695
709.2354892,80.1500015258789
709.2511142,76.620002746582
709.2667392,73.0699996948242
709.2823642,69.25
709.2979892,64.7900009155273
709.3136142,59.4599990844727
709.3292392,53.4799995422363
709.3448642,47.3699989318848
709.3604892,41.6699981689453
709.3761142,36.6399993896484
709.3917392,32.2400016784668
709.4073642,28.0799999237061
709.4229892,23.5300006866455
709.4386142,18.0799999237061
709.4542392,11.6700000762939
709.4698642,4.69000005722046
709.4854892,-2.28999996185303
709.5011142,-8.77999973297119
709.5167392,-14.5500001907349
709.5323642,-19.6299991607666
709.5479892,-24.1900005340576
709.5636142,-28.4200000762939
709.5792392,-32.3400001525879
709.5948642,-35.560001373291
709.6104892,-37.1800003051758
709.6261142,-36.1599998474121
709.6417392,-31.8600006103516
709.6573642,-24.1399993896484
709.6729892,-13.2799997329712
709.6886142,0.119999997317791
709.7042392,15.0200004577637
709.7198642,30.0900001525879
709.7354892,44.0499992370605
709.7511142,55.8800010681152
709.7667392,64.9700012207031
709.7823642,71.3000030517578
709.7979892,75.4000015258789
709.8136142,78.1399993896484
709.8292392,80.2799987792969
709.8448642,82.0400009155273
709.8604892,82.9800033569336
709.8761142,82.4599990844727
709.8917392,80.1999969482422
709.9073642,76.4800033569336
709.9229892,71.8399963378906
709.9386142,66.8399963378906
709.9542392,61.8400001525879
709.9698642,57.0499992370605
709.9854892,52.4900016784668
710.0011142,47.9599990844727
710.0167392,43.0400009155273
710.0323642,37.4500007629395
710.0479892,31.2600002288818
710.0636142,24.9599990844727
710.0792392,19.0200004577637
710.0948642,13.75
710.1104892,9.10000038146973
710.1261142,4.71000003814697
710.1417392,0.0
710.1573642,-5.5
710.1729892,-11.9399995803833
710.1886142,-19.25
710.2042392,-27.4599990844727
710.2198642,-36.6500015258789
710.2354892,-46.5499992370605
710.2511142,-56.1800003051758
710.2667392,-64.2600021362305
710.2823642,-69.4499969482422
710.2979892,-71.0500030517578
710.3136142,-69.0800018310547
710.3292392,-64.0699996948242
710.3448642,-56.8300018310547
710.3604892,-48.3600006103516
710.3761142,-39.6100006103516
710.3917392,-31.2099990844727
710.4073642,-23.0900001525879
710.4229892,-14.4899997711182
710.4386142,-4.53000020980835
710.4542392,7.03000020980835
710.4698642,19.6700000762939
710.4854892,32.4000015258789
710.5011142,44.3300018310547
710.5167392,54.9099998474121
710.5323642,63.6300010681152
710.5479892,69.8099975585938
710.5636142,72.879997253418
710.5792392,72.9800033569336
710.5948642,70.9199981689453
710.6104892,67.8099975585938
710.6261142,64.5199966430664
710.6417392,61.5
710.6573642,58.7200012207031
710.6729892,55.7700004577637
710.6886142,52.1399993896484
710.7042392,47.4500007629395
710.7198642,41.7099990844727
710.7354892,35.2700004577637
710.7511142,28.5200004577637
710.7667392,21.5599994659424
710.7823642,14.1999998092651
