Time(s),Value(%)
719.0039886,43.0900001525879
719.0196136,37.0900001525879
719.0352386,30.6800003051758
719.0508636,24.3099994659424
719.0664886,18.5499992370605
719.0821136,13.7200002670288
719.0977386,9.60999965667725
719.1133636,5.78999996185303
719.1289886,2.13000011444092
719.1446136,-1.01999998092651
719.1602386,-3.15000009536743
719.1758636,-3.91000008583069
719.1914886,-3.40000009536743
719.2071136,-1.87000000476837
719.2227386,0.509999990463257
719.2383636,4.01000022888184
719.2539886,9.03999996185303
719.2696136,15.75
719.2852386,23.6100006103516
719.3008636,31.6299991607666
719.3164886,38.8899993896484
719.3321136,44.9700012207031
719.3477386,50.0800018310547
719.3633636,54.9199981689453
719.3789886,60.6399993896484
719.3946136,68.1699981689453
719.4102386,77.6399993896484
719.4258636,88.2399978637695
719.4414886,98.8000030517578
719.4571136,108.309997558594
719.4727386,116.180000305176
719.4883636,121.809997558594
719.5039886,124.150001525879
719.5196136,122.019996643066
719.5352386,114.879997253418
719.5508636,103.379997253418
719.5664886,89.1900024414063
719.5821136,74.0899963378906
719.5977386,59.1500015258789
719.6133636,44.5999984741211
719.6289886,30.3500003814697
719.6446136,16.6499996185303
719.6602386,4.26999998092651
719.6758636,-6.09000015258789
719.6914886,-14.4300003051758
719.7071136,-21.2399997711182
719.7227386,-26.9300003051758
719.7383636,-31.5799999237061
719.7539886,-35.1599998474121
719.7696136,-37.810001373291
719.7852386,-39.7999992370605
719.8008636,-41.4300003051758
719.8164886,-42.9000015258789
719.8321136,-44.2599983215332
719.8477386,-45.4900016784668
719.8633636,-46.5400009155273
719.8789886,-47.3899993896484
719.8946136,-48.0699996948242
719.9102386,-48.7599983215332
719.9258636,-50.2599983215332
719.9414886,-54.1300010681152
719.9571136,-61.7799987792969
719.9727386,-73.3000030517578
719.9883636,-87.1100006103516
720.0039886,-100.75
720.0196136,-112.069999694824
720.0352386,-120.01000213623
720.0508636,-124.019996643066
720.0664886,-123.26000213623
720.0821136,-116.440002441406
720.0977386,-102.769996643066
720.1133636,-82.9499969482422
720.1289886,-59.5900001525879
720.1446136,-36.3800010681152
720.1602386,-16.6700000762939
720.1758636,-2.1800000667572
720.1914886,7.26000022888184
720.2071136,12.7200002670288
720.2227386,14.8100004196167
720.2383636,13.3599996566772
720.2539886,8.10000038146973
720.2696136,-0.330000013113022
720.2852386,-10.0500001907349
720.3008636,-18.7299995422363
720.3164886,-24.8400001525879
720.3321136,-28.2099990844727
720.3477386,-29.5900001525879
720.3633636,-30.0100002288818
720.3789886,-29.9599990844727
720.3946136,-29.3899993896484
720.4102386,-28.2099990844727
720.4258636,-26.6100006103516
720.4414886,-25.2000007629395
720.4571136,-24.6100006103516
720.4727386,-25.0799999237061
720.4883636,-26.2299995422363
720.5039886,-27.3600006103516
720.5196136,-28.4599990844727
720.5352386,-30.6499996185303
720.5508636,-35.3499984741211
720.5664886,-42.8199996948242
720.5821136,-51.9300003051758
720.5977386,-60.9900016784668
720.6133636,-68.7399978637695
720.6289886,-74.75
720.6446136,-79.4599990844727
720.6602386,-83.7399978637695
720.6758636,-88.3600006103516
720.6914886,-93.620002746582
720.7071136,-99.4000015258789
720.7227386,-105.430000305176
720.7383636,-111.48999786377
720.7539886,-117.169998168945
720.7696136,-121.370002746582
720.7852386,-122.120002746582
720.8008636,-117.660003662109
720.8164886,-107.76000213623
720.8321136,-93.8300018310547
720.8477386,-77.9800033569336
720.8633636,-62.0200004577637
720.8789886,-46.9900016784668
720.8946136,-33.1699981689453
720.9102386,-20.4300003051758
720.9258636,-8.64000034332275
720.9414886,2.0
720.9571136,11.2299995422363
720.9727386,18.9400005340576
720.9883636,25.25
721.0039886,30.4099998474121
721.0196136,34.6300010681152
721.0352386,38.1800003051758
721.0508636,41.5099983215332
721.0664886,45.25
721.0821136,49.939998626709
721.0977386,55.75
721.1133636,62.5
721.1289886,69.8899993896484
721.1446136,77.620002746582
721.1602386,85.4100036621094
721.1758636,92.9800033569336
721.1914886,100.120002746582
721.2071136,106.650001525879
721.2227386,112.449996948242
721.2383636,117.48999786377
721.2539886,121.830001831055
721.2696136,125.709999084473
721.2852386,129.479995727539
721.3008636,133.440002441406
721.3164886,137.649993896484
721.3321136,141.970001220703
721.3477386,145.110000610352
721.3633636,148.029998779297
721.3789886,150.820007324219
721.3946136,153.529998779297
721.4102386,156.009994506836
721.4258636,157.990005493164
721.4414886,159.25
721.4571136,159.759994506836
721.4727386,159.699996948242
721.4883636,159.330001831055
721.5039886,158.940002441406
721.5196136,158.679992675781
721.5352386,158.580001831055
721.5508636,158.5
721.5664886,158.259994506836
721.5821136,157.740005493164
721.5977386,156.880004882813
721.6133636,155.520004272461
721.6289886,153.429992675781
721.6446136,150.270004272461
721.6602386,145.869995117188
721.6758636,140.309997558594
721.6914886,133.929992675781
721.7071136,127.220001220703
721.7227386,120.569999694824
721.7383636,114.209999084473
721.7539886,108.160003662109
721.7696136,102.120002746582
721.7852386,95.620002746582
721.8008636,88.2399978637695
721.8164886,79.8899993896484
721.8321136,70.8000030517578
721.8477386,61.25
721.8633636,51.4500007629395
721.8789886,41.6599998474121
721.8946136,32.3800010681152
721.9102386,24.3500003814697
721.9258636,18.2099990844727
721.9414886,14.0
721.9571136,11.3199996948242
721.9727386,9.59000015258789
721.9883636,8.36999988555908
722.0039886,7.30000019073486
722.0196136,6.13000011444092
722.0352386,4.73999977111816
722.0508636,3.16000008583069
722.0664886,1.55999994277954
722.0821136,0.200000002980232
722.0977386,-0.589999973773956
722.1133636,-0.600000023841858
722.1289886,0.209999993443489
722.1446136,1.64999997615814
722.1602386,3.38000011444092
722.1758636,5.05000019073486
722.1914886,6.51000022888184
722.2071136,8.10999965667725
722.2227386,10.6899995803833
722.2383636,15.0699996948242
722.2539886,21.4899997711182
722.2696136,29.6399993896484
722.2852386,39.1800003051758
722.3008636,49.8699989318848
722.3164886,61.1800003051758
722.3321136,71.9800033569336
722.3477386,79.75
722.3633636,84.0800018310547
722.3789886,85.1500015258789
722.3946136,83.9800033569336
722.4102386,81.4700012207031
722.4258636,77.9400024414063
722.4414886,73.4700012207031
722.4571136,68.2399978637695
722.4727386,62.5200004577637
722.4883636,56.3600006103516
722.5039886,49.3899993896484
722.5196136,41.1599998474121
722.5352386,31.5599994659424
722.5508636,20.8299999237061
722.5664886,9.25
722.5821136,-2.91000008583069
722.5977386,-15.3599996566772
722.6133636,-27.5699996948242
722.6289886,-38.9599990844727
722.6446136,-49.2700004577637
722.6602386,-58.7799987792969
722.6758636,-67.9100036621094
722.6914886,-76.6600036621094
722.7071136,-84.6399993896484
722.7227386,-91.4499969482422
722.7383636,-97.0199966430664
722.7539886,-101.569999694824
722.7696136,-105.360000610352
722.7852386,-108.449996948242
722.8008636,-110.76000213623
722.8164886,-112.23999786377
722.8321136,-112.849998474121
722.8477386,-112.529998779297
722.8633636,-111.199996948242
722.8789886,-108.959999084473
722.8946136,-106.059997558594
722.9102386,-102.690002441406
722.9258636,-98.9000015258789
722.9414886,-94.6399993896484
722.9571136,-90.0
722.9727386,-85.4199981689453
722.9883636,-81.4599990844727
723.0039886,-78.4700012207031
723.0196136,-76.4000015258789
723.0352386,-74.9199981689453
723.0508636,-73.7399978637695
723.0664886,-72.8000030517578
723.0821136,-72.1900024414063
723.0977386,-71.9899978637695
723.1133636,-72.1399993896484
723.1289886,-72.4499969482422
723.1446136,-72.75
723.1602386,-72.9199981689453
723.1758636,-72.9300003051758
723.1914886,-72.8000030517578
723.2071136,-72.5500030517578
723.2227386,-72.129997253418
723.2383636,-71.4499969482422
723.2539886,-70.4800033569336
723.2696136,-69.2699966430664
723.2852386,-67.9400024414063
723.3008636,-66.5899963378906
723.3164886,-65.3000030517578
723.3321136,-64.0699996948242
723.3477386,-62.4099998474121
723.3633636,-60.8300018310547
723.3789886,-59.310001373291
723.3946136,-57.8499984741211
723.4102386,-56.4500007629395
723.4258636,-55.1399993896484
723.4414886,-53.9300003051758
723.4571136,-52.8400001525879
723.4727386,-51.9199981689453
723.4883636,-51.189998626709
723.5039886,-50.5999984741211
723.5196136,-50.0200004577637
723.5352386,-49.3300018310547
723.5508636,-48.4500007629395
723.5664886,-47.4000015258789
723.5821136,-46.2299995422363
723.5977386,-44.9900016784668
723.6133636,-43.5099983215332
723.6289886,-41.3800010681152
723.6446136,-38.2000007629395
723.6602386,-33.9000015258789
723.6758636,-28.7099990844727
723.6914886,-22.9599990844727
723.7071136,-16.8899993896484
723.7227386,-10.7799997329712
723.7383636,-5.07000017166138
723.7539886,-0.389999985694885
723.7696136,2.70000004768372
723.7852386,4.09999990463257
723.8008636,4.07000017166138
723.8164886,3.02999997138977
723.8321136,1.35000002384186
723.8477386,-0.649999976158142
723.8633636,-2.74000000953674
723.8789886,-4.78000020980835
723.8946136,-6.82999992370605
723.9102386,-9.1899995803833
723.9258636,-12.1700000762939
723.9414886,-15.8800001144409
723.9571136,-20.2199993133545
723.9727386,-25.0599994659424
723.9883636,-30.3400001525879
724.0039886,-35.8400001525879
724.0196136,-41.1399993896484
724.0352386,-45.6300010681152
724.0508636,-48.8699989318848
724.0664886,-50.8699989318848
724.0821136,-51.9500007629395
724.0977386,-52.3899993896484
724.1133636,-52.439998626709
724.1289886,-52.439998626709
724.1446136,-52.810001373291
724.1602386,-53.7200012207031
724.1758636,-55.0
724.1914886,-56.2099990844727
724.2071136,-56.9500007629395
724.2227386,-57.0699996948242
724.2383636,-56.5800018310547
724.2539886,-55.4300003051758
724.2696136,-53.4799995422363
724.2852386,-50.75
724.3008636,-47.439998626709
724.3164886,-43.8199996948242
724.3321136,-40.0099983215332
724.3477386,-35.9000015258789
724.3633636,-31.0
724.3789886,-25.1900005340576
724.3946136,-18.6299991607666
724.4102386,-11.6000003814697
724.4258636,-4.3600001335144
724.4414886,2.82999992370605
724.4571136,9.64999961853027
724.4727386,15.6800003051758
724.4883636,20.5799999237061
724.5039886,24.2399997711182
724.5196136,26.8099994659424
724.5352386,28.5200004577637
724.5508636,29.6200008392334
724.5664886,30.2999992370605
724.5821136,30.7700004577637
724.5977386,31.1700000762939
724.6133636,31.5699996948242
724.6289886,31.9400005340576
724.6446136,32.2400016784668
724.6602386,32.4199981689453
724.6758636,32.5
724.6914886,32.5400009155273
724.7071136,32.6100006103516
724.7227386,32.75
724.7383636,33.0099983215332
724.7539886,33.4500007629395
724.7696136,34.1399993896484
724.7852386,35.1399993896484
724.8008636,36.4199981689453
724.8164886,37.8499984741211
724.8321136,39.2900009155273
724.8477386,40.6199989318848
724.8633636,41.7799987792969
724.8789886,42.7999992370605
724.8946136,43.810001373291
724.9102386,45.060001373291
724.9258636,46.7400016784668
724.9414886,48.9099998474121
724.9571136,51.6800003051758
724.9727386,55.2900009155273
724.9883636,60.0
725.0039886,65.7099990844727
725.0196136,71.870002746582
725.0352386,77.6900024414063
725.0508636,82.7799987792969
725.0664886,87.4300003051758
725.0821136,92.2099990844727
725.0977386,97.1100006103516
725.1133636,101.580001831055
725.1289886,104.98999786377
725.1446136,107.120002746582
725.1602386,108.160003662109
725.1758636,108.389999389648
725.1914886,107.910003662109
725.2071136,106.669998168945
725.2227386,104.650001525879
725.2383636,101.98999786377
725.2539886,98.9400024414063
725.2696136,95.7300033569336
725.2852386,92.4700012207031
725.3008636,89.0800018310547
725.3164886,85.2099990844727
725.3321136,80.4700012207031
725.3477386,75.0199966430664
725.3633636,68.620002746582
725.3789886,61.7400016784668
725.3946136,54.9000015258789
725.4102386,48.4700012207031
725.4258636,42.560001373291
725.4414886,37.1100006103516
725.4571136,31.9300003051758
725.4727386,26.8700008392334
725.4883636,21.8199996948242
725.5039886,16.7999992370605
725.5196136,11.8599996566772
725.5352386,7.05000019073486
725.5508636,2.40000009536743
725.5664886,-2.03999996185303
725.5821136,-6.21000003814697
725.5977386,-9.88000011444092
725.6133636,-12.6999998092651
725.6289886,-14.3100004196167
725.6446136,-14.5
725.6602386,-13.4200000762939
725.6758636,-11.539999961853
725.6914886,-9.39999961853027
725.7071136,-7.42999982833862
725.7227386,-5.82000017166138
725.7383636,-4.44999980926514
725.7539886,-3.00999999046326
725.7696136,-1.22000002861023
725.7852386,1.00999999046326
725.8008636,3.57999992370605
725.8164886,6.26000022888184
725.8321136,8.85000038146973
725.8477386,11.1700000762939
725.8633636,12.9099998474121
725.8789886,13.5200004577637
725.8946136,12.460000038147
725.9102386,9.55000019073486
725.9258636,5.09999990463257
725.9414886,-0.219999998807907
725.9571136,-5.76000022888184
725.9727386,-11.0
725.9883636,-15.7200002670288
726.0039886,-19.9599990844727
726.0196136,-23.9300003051758
726.0352386,-27.9300003051758
726.0508636,-32.1800003051758
726.0664886,-36.7799987792969
726.0821136,-41.8199996948242
726.0977386,-47.6100006103516
726.1133636,-54.4500007629395
726.1289886,-62.2700004577637
726.1446136,-70.4400024414063
726.1602386,-78.0599975585938
726.1758636,-84.5299987792969
726.1914886,-90.0
726.2071136,-94.8899993896484
726.2227386,-99.3199996948242
726.2383636,-103.089996337891
726.2539886,-106.169998168945
726.2696136,-108.839996337891
726.2852386,-111.430000305176
726.3008636,-113.849998474121
726.3164886,-115.540000915527
726.3321136,-115.76000213623
726.3477386,-114.559997558594
726.3633636,-111.449996948242
726.3789886,-106.660003662109
726.3946136,-100.599998474121
726.4102386,-93.7399978637695
726.4258636,-86.5999984741211
726.4414886,-79.5800018310547
726.4571136,-72.9400024414063
726.4727386,-66.7699966430664
726.4883636,-61.0400009155273
726.5039886,-55.6800003051758
726.5196136,-50.5800018310547
726.5352386,-45.7099990844727
726.5508636,-41.0499992370605
726.5664886,-36.6300010681152
726.5821136,-32.4599990844727
726.5977386,-28.6200008392334
726.6133636,-25.1900005340576
726.6289886,-22.2600002288818
726.6446136,-19.8500003814697
726.6602386,-17.8199996948242
726.6758636,-15.9399995803833
726.6914886,-14.039999961853
726.7071136,-12.0299997329712
726.7227386,-9.97000026702881
726.7383636,-8.11999988555908
726.7539886,-6.96000003814697
726.7696136,-6.92000007629395
726.7852386,-8.07999992370605
726.8008636,-10.3800001144409
726.8164886,-13.8599996566772
726.8321136,-18.6100006103516
726.8477386,-24.3799991607666
726.8633636,-30.4200000762939
726.8789886,-35.6399993896484
726.8946136,-39.3699989318848
726.9102386,-41.8800010681152
726.9258636,-43.8800010681152
726.9414886,-45.6699981689453
726.9571136,-46.9300003051758
726.9727386,-47.2099990844727
726.9883636,-46.3899993896484
727.0039886,-44.6800003051758
727.0196136,-42.3300018310547
727.0352386,-39.4000015258789
727.0508636,-35.7700004577637
727.0664886,-31.3999996185303
727.0821136,-26.3999996185303
727.0977386,-20.9200000762939
727.1133636,-15.1300001144409
727.1289886,-9.14999961853027
727.1446136,-3.03999996185303
727.1602386,3.32999992370605
727.1758636,10.1300001144409
727.1914886,17.3899993896484
727.2071136,24.8600006103516
727.2227386,32.060001373291
727.2383636,38.5299987792969
727.2539886,44.0699996948242
727.2696136,48.7700004577637
727.2852386,52.8699989318848
727.3008636,56.5
727.3164886,59.5200004577637
727.3321136,61.7099990844727
727.3477386,62.6399993896484
727.3633636,62.8300018310547
727.3789886,62.5800018310547
727.3946136,62.1699981689453
727.4102386,61.7999992370605
727.4258636,61.6500015258789
727.4414886,61.9300003051758
727.4571136,62.7200012207031
727.4727386,63.9000015258789
727.4883636,65.120002746582
727.5039886,66.129997253418
727.5196136,66.8300018310547
727.5352386,67.2699966430664
727.5508636,67.5699996948242
727.5664886,67.8600006103516
727.5821136,68.4000015258789
727.5977386,69.5699996948242
727.6133636,71.7200012207031
727.6289886,74.8399963378906
727.6446136,78.5500030517578
727.6602386,82.3000030517578
727.6758636,85.6100006103516
727.6914886,88.25
727.7071136,90.1100006103516
727.7227386,91.0999984741211
727.7383636,91.2399978637695
727.7539886,90.8099975585938
727.7696136,90.2699966430664
727.7852386,89.9899978637695
727.8008636,90.1100006103516
727.8164886,90.4899978637695
727.8321136,90.9100036621094
727.8477386,91.129997253418
727.8633636,90.9499969482422
727.8789886,90.2200012207031
727.8946136,88.8499984741211
727.9102386,86.8899993896484
727.9258636,84.4599990844727
727.9414886,81.6900024414063
727.9571136,78.620002746582
727.9727386,75.3399963378906
727.9883636,71.9199981689453
728.0039886,68.4199981689453
728.0196136,64.879997253418
728.0352386,61.2900009155273
728.0508636,57.6699981689453
728.0664886,54.1500015258789
728.0821136,50.9000015258789
728.0977386,48.0099983215332
728.1133636,45.439998626709
728.1289886,43.0699996948242
728.1446136,40.8400001525879
728.1602386,38.7599983215332
728.1758636,36.939998626709
728.1914886,35.3800010681152
728.2071136,34.0200004577637
728.2227386,32.7000007629395
728.2383636,31.2700004577637
728.2539886,29.6499996185303
728.2696136,27.8299999237061
728.2852386,25.8400001525879
728.3008636,23.6900005340576
728.3164886,21.3899993896484
728.3321136,18.9899997711182
728.3477386,16.5699996948242
728.3633636,14.25
728.3789886,12.0900001525879
728.3946136,10.0900001525879
728.4102386,8.22999954223633
728.4258636,6.61999988555908
728.4414886,5.53999996185303
728.4571136,5.28000020980835
728.4727386,5.90000009536743
728.4883636,7.28000020980835
728.5039886,9.30000019073486
728.5196136,11.8599996566772
728.5352386,14.7799997329712
728.5508636,17.6800003051758
728.5664886,20.0100002288818
728.5821136,21.4500007629395
728.5977386,22.1599998474121
728.6133636,22.5
728.6289886,22.6700000762939
728.6446136,22.6800003051758
728.6602386,22.5
728.6758636,22.2299995422363
728.6914886,21.9899997711182
728.7071136,21.6800003051758
728.7227386,20.9899997711182
728.7383636,19.6599998474121
728.7539886,17.7099990844727
728.7696136,15.3800001144409
728.7852386,12.8999996185303
728.8008636,10.289999961853
728.8164886,7.55000019073486
728.8321136,4.67000007629395
728.8477386,1.67999994754791
728.8633636,-1.48000001907349
728.8789886,-5.01999998092651
728.8946136,-9.15999984741211
728.9102386,-13.9399995803833
728.9258636,-19.2000007629395
728.9414886,-24.7099990844727
728.9571136,-30.3099994659424
728.9727386,-35.8199996948242
728.9883636,-41.060001373291
729.0039886,-45.8300018310547
729.0196136,-49.9799995422363
729.0352386,-53.4900016784668
729.0508636,-56.4799995422363
729.0664886,-59.0200004577637
729.0821136,-61.1199989318848
729.0977386,-62.8199996948242
729.1133636,-64.1800003051758
729.1289886,-65.3099975585938
729.1446136,-66.2399978637695
729.1602386,-66.9100036621094
729.1758636,-67.2099990844727
729.1914886,-67.120002746582
729.2071136,-66.7200012207031
729.2227386,-66.1399993896484
729.2383636,-65.5299987792969
729.2539886,-64.9599990844727
729.2696136,-64.4899978637695
729.2852386,-64.2099990844727
729.3008636,-64.2699966430664
729.3164886,-64.8300018310547
729.3321136,-66.0100021362305
729.3477386,-68.0
729.3633636,-70.2699966430664
729.3789886,-72.5199966430664
729.3946136,-74.5299987792969
729.4102386,-76.2300033569336
729.4258636,-77.7200012207031
729.4414886,-79.2399978637695
729.4571136,-81.0299987792969
729.4727386,-83.1800003051758
729.4883636,-85.6900024414063
729.5039886,-88.6100006103516
729.5196136,-91.9899978637695
729.5352386,-95.7300033569336
729.5508636,-99.379997253418
729.5664886,-102.300003051758
729.5821136,-104.080001831055
729.5977386,-104.860000610352
729.6133636,-105.160003662109
729.6289886,-105.279998779297
729.6446136,-105.169998168945
729.6602386,-104.639999389648
729.6758636,-103.569999694824
729.6914886,-102.050003051758
729.7071136,-100.339996337891
729.7227386,-98.8000030517578
729.7383636,-97.6999969482422
729.7539886,-97.120002746582
729.7696136,-96.9899978637695
