Time(s),Value(%)
1143.0150509,22.4500007629395
1143.0306759,16.2199993133545
1143.0463009,10.6499996185303
1143.0619259,5.8899998664856
1143.0775509,1.86000001430511
1143.0931759,-1.72000002861023
1143.1088009,-5.17000007629395
1143.1244259,-8.64000034332275
1143.1400509,-12.1999998092651
1143.1556759,-15.8199996948242
1143.1713009,-19.3700008392334
1143.1869259,-22.7000007629395
1143.2025509,-25.75
1143.2181759,-28.6299991607666
1143.2338009,-31.4799995422363
1143.2494259,-34.310001373291
1143.2650509,-36.9500007629395
1143.2806759,-39.1500015258789
1143.2963009,-40.7400016784668
1143.3119259,-41.7000007629395
1143.3275509,-42.2000007629395
1143.3431759,-42.5
1143.3588009,-42.5900001525879
1143.3744259,-42.0900001525879
1143.3900509,-40.2200012207031
1143.4056759,-36.0200004577637
1143.4213009,-28.8500003814697
1143.4369259,-18.8199996948242
1143.4525509,-6.84000015258789
1143.4681759,5.6399998664856
1143.4838009,17.0300006866455
1143.4994259,25.8299999237061
1143.5150509,31.1800003051758
1143.5306759,33.0400009155273
1143.5463009,32.2200012207031
1143.5619259,29.9599990844727
1143.5775509,27.2999992370605
1143.5931759,24.7099990844727
1143.6088009,22.1399993896484
1143.6244259,19.3799991607666
1143.6400509,16.3600006103516
1143.6556759,13.1899995803833
1143.6713009,10.1599998474121
1143.6869259,7.65999984741211
1143.7025509,6.01999998092651
1143.7181759,5.21000003814697
1143.7338009,4.73000001907349
1143.7494259,4.01000022888184
1143.7650509,2.85999989509583
1143.7806759,1.52999997138977
1143.7963009,0.379999995231628
1143.8119259,-0.46000000834465
1143.8275509,-1.30999994277954
1143.8431759,-2.58999991416931
1143.8588009,-4.48999977111816
1143.8744259,-6.73000001907349
1143.8900509,-8.85000038146973
1143.9056759,-10.6099996566772
1143.9213009,-12.1499996185303
1143.9369259,-13.7799997329712
1143.9525509,-15.5900001525879
1143.9681759,-17.2800006866455
1143.9838009,-18.3600006103516
1143.9994259,-18.3700008392334
1144.0150509,-16.9899997711182
1144.0306759,-13.9200000762939
1144.0463009,-8.84000015258789
1144.0619259,-1.54999995231628
1144.0775509,7.6100001335144
1144.0931759,17.5499992370605
1144.1088009,26.5900001525879
1144.1244259,33.3699989318848
1144.1400509,37.3899993896484
1144.1556759,38.8400001525879
1144.1713009,38.1800003051758
1144.1869259,35.7999992370605
1144.2025509,32.0499992370605
1144.2181759,27.2299995422363
1144.2338009,21.7000007629395
1144.2494259,15.9300003051758
1144.2650509,10.4399995803833
1144.2806759,5.65000009536743
1144.2963009,1.78999996185303
1144.3119259,-1.17999994754791
1144.3275509,-3.66000008583069
1144.3431759,-6.05999994277954
1144.3588009,-8.61999988555908
1144.3744259,-11.3900003433228
1144.3900509,-14.2799997329712
1144.4056759,-17.1499996185303
1144.4213009,-19.8799991607666
1144.4369259,-22.4200000762939
1144.4525509,-24.75
1144.4681759,-26.9200000762939
1144.4838009,-28.9799995422363
1144.4994259,-30.8999996185303
1144.5150509,-32.6800003051758
1144.5306759,-34.4000015258789
1144.5463009,-36.0499992370605
1144.5619259,-37.5800018310547
1144.5775509,-38.9700012207031
1144.5931759,-40.189998626709
1144.6088009,-41.060001373291
1144.6244259,-41.25
1144.6400509,-40.5
1144.6556759,-38.6500015258789
1144.6713009,-35.3600006103516
1144.6869259,-30.1200008392334
1144.7025509,-22.5900001525879
1144.7181759,-13.1000003814697
1144.7338009,-2.92000007629395
1144.7494259,6.26000022888184
1144.7650509,13.1300001144409
1144.7806759,17.2199993133545
1144.7963009,18.9300003051758
1144.8119259,19.0200004577637
1144.8275509,18.2900009155273
1144.8431759,17.3099994659424
1144.8588009,16.2800006866455
1144.8744259,15.1599998474121
1144.8900509,13.8699998855591
1144.9056759,12.5799999237061
1144.9213009,11.5200004577637
1144.9369259,10.8400001525879
1144.9525509,10.4200000762939
1144.9681759,10.0
1144.9838009,9.34000015258789
1144.9994259,8.51000022888184
1145.0150509,7.69000005722046
1145.0306759,6.98000001907349
1145.0463009,6.30000019073486
1145.0619259,5.5
1145.0775509,4.51999998092651
1145.0931759,3.50999999046326
1145.1088009,2.75999999046326
1145.1244259,2.46000003814697
1145.1400509,2.4300000667572
1145.1556759,2.21000003814697
1145.1713009,1.42999994754791
1145.1869259,0.109999999403954
1145.2025509,-1.39999997615814
1145.2181759,-2.73000001907349
1145.2338009,-3.6800000667572
1145.2494259,-4.1399998664856
1145.2650509,-4.09999990463257
1145.2806759,-3.61999988555908
1145.2963009,-2.67000007629395
1145.3119259,-0.740000009536743
1145.3275509,3.20000004768372
1145.3431759,10.1099996566772
1145.3588009,19.9099998474121
1145.3744259,31.1499996185303
1145.3900509,41.4000015258789
1145.4056759,48.2799987792969
1145.4213009,50.6399993896484
1145.4369259,48.9000015258789
1145.4525509,44.6599998474121
1145.4681759,39.7200012207031
1145.4838009,35.2999992370605
1145.4994259,31.7600002288818
1145.5150509,28.75
1145.5306759,25.7399997711182
1145.5463009,22.3500003814697
1145.5619259,18.5400009155273
1145.5775509,14.539999961853
1145.5931759,10.710000038147
1145.6088009,7.34999990463257
1145.6244259,4.61999988555908
1145.6400509,2.47000002861023
1145.6556759,0.730000019073486
1145.6713009,-0.810000002384186
1145.6869259,-2.34999990463257
1145.7025509,-3.85999989509583
1145.7181759,-5.32000017166138
1145.7338009,-6.73999977111816
1145.7494259,-8.25
1145.7650509,-9.88000011444092
1145.7806759,-11.6199998855591
1145.7963009,-13.3500003814697
1145.8119259,-14.960000038147
1145.8275509,-16.3299999237061
1145.8431759,-17.4500007629395
1145.8588009,-18.3299999237061
1145.8744259,-18.9300003051758
1145.8900509,-19.2600002288818
1145.9056759,-19.4200000762939
1145.9213009,-19.5200004577637
1145.9369259,-19.5499992370605
1145.9525509,-19.3500003814697
1145.9681759,-18.6200008392334
1145.9838009,-16.7700004577637
1145.9994259,-12.9799995422363
1146.0150509,-6.82000017166138
1146.0306759,0.990000009536743
1146.0463009,8.73999977111816
1146.0619259,14.5
1146.0775509,17.0499992370605
1146.0931759,16.3500003814697
1146.1088009,13.460000038147
1146.1244259,9.84000015258789
1146.1400509,6.71999979019165
1146.1556759,4.59999990463257
1146.1713009,3.23000001907349
1146.1869259,1.88999998569489
1146.2025509,0.0500000007450581
1146.2181759,-2.30999994277954
1146.2338009,-4.82000017166138
1146.2494259,-6.94999980926514
1146.2650509,-8.28999996185303
1146.2806759,-8.85999965667725
1146.2963009,-9.03999996185303
1146.3119259,-9.35000038146973
1146.3275509,-10.1199998855591
1146.3431759,-11.3800001144409
1146.3588009,-12.9799995422363
1146.3744259,-14.6700000762939
1146.3900509,-16.2900009155273
1146.4056759,-17.7399997711182
1146.4213009,-19.0300006866455
1146.4369259,-20.0900001525879
1146.4525509,-20.8799991607666
1146.4681759,-21.4200000762939
1146.4838009,-21.8600006103516
1146.4994259,-22.4400005340576
1146.5150509,-23.2700004577637
1146.5306759,-24.2099990844727
1146.5463009,-24.9699993133545
1146.5619259,-25.2199993133545
1146.5775509,-24.7800006866455
1146.5931759,-23.6100006103516
1146.6088009,-21.6599998474121
1146.6244259,-18.5599994659424
1146.6400509,-13.6899995803833
1146.6556759,-6.82999992370605
1146.6713009,1.26999998092651
1146.6869259,9.21000003814697
1146.7025509,15.5500001907349
1146.7181759,19.3700008392334
1146.7338009,20.4599990844727
1146.7494259,19.2600002288818
1146.7650509,16.6700000762939
1146.7806759,13.7399997711182
1146.7963009,11.2399997711182
1146.8119259,9.36999988555908
1146.8275509,7.82999992370605
1146.8431759,6.15000009536743
1146.8588009,4.09999990463257
1146.8744259,1.86000001430511
1146.8900509,-0.0399999991059303
1146.9056759,-1.23000001907349
1146.9213009,-1.66999995708466
1146.9369259,-1.69000005722046
1146.9525509,-1.73000001907349
1146.9681759,-2.05999994277954
1146.9838009,-2.70000004768372
1146.9994259,-3.59999990463257
1147.0150509,-4.67999982833862
1147.0306759,-5.78999996185303
1147.0463009,-6.69999980926514
1147.0619259,-7.1399998664856
1147.0775509,-6.94000005722046
1147.0931759,-6.28999996185303
1147.1088009,-5.69999980926514
1147.1244259,-5.61999988555908
1147.1400509,-6.07000017166138
1147.1556759,-6.84000015258789
1147.1713009,-7.69000005722046
1147.1869259,-8.44999980926514
1147.2025509,-9.01000022888184
1147.2181759,-9.3100004196167
1147.2338009,-9.40999984741211
1147.2494259,-9.38000011444092
1147.2650509,-8.9399995803833
1147.2806759,-7.26000022888184
1147.2963009,-3.45000004768372
1147.3119259,2.59999990463257
1147.3275509,9.81999969482422
1147.3431759,16.3799991607666
1147.3588009,20.6299991607666
1147.3744259,21.8700008392334
1147.3900509,20.5200004577637
1147.4056759,17.6900005340576
1147.4213009,14.6400003433228
1147.4369259,12.1199998855591
1147.4525509,10.2600002288818
1147.4681759,8.78999996185303
1147.4838009,7.42999982833862
1147.4994259,6.03999996185303
1147.5150509,4.71999979019165
1147.5306759,3.75999999046326
1147.5463009,3.40000009536743
1147.5619259,3.61999988555908
1147.5775509,4.19999980926514
1147.5931759,4.69000005722046
1147.6088009,4.65000009536743
1147.6244259,3.89000010490417
1147.6400509,2.53999996185303
1147.6556759,0.920000016689301
1147.6713009,-0.509999990463257
1147.6869259,-1.37000000476837
1147.7025509,-1.62999999523163
1147.7181759,-1.52999997138977
1147.7338009,-1.44000005722046
1147.7494259,-1.72000002861023
1147.7650509,-2.5
1147.7806759,-3.60999989509583
1147.7963009,-4.75
1147.8119259,-5.71000003814697
1147.8275509,-6.32999992370605
1147.8431759,-6.51999998092651
1147.8588009,-6.34999990463257
1147.8744259,-5.98000001907349
1147.8900509,-5.46999979019165
1147.9056759,-4.57000017166138
1147.9213009,-2.65000009536743
1147.9369259,1.21000003814697
1147.9525509,7.63000011444092
1147.9681759,16.1499996185303
1147.9838009,25.2199993133545
1147.9994259,32.7700004577637
1148.0150509,37.1800003051758
1148.0306759,37.9700012207031
1148.0463009,35.8899993896484
1148.0619259,32.4199981689453
1148.0775509,28.9500007629395
1148.0931759,26.3500003814697
1148.1088009,24.7000007629395
1148.1244259,23.5300006866455
1148.1400509,22.2399997711182
1148.1556759,20.6299991607666
1148.1713009,18.9200000762939
1148.1869259,17.4799995422363
1148.2025509,16.5
1148.2181759,15.9399995803833
1148.2338009,15.460000038147
1148.2494259,14.5699996948242
1148.2650509,12.8199996948242
1148.2806759,10.1099996566772
1148.2963009,6.6399998664856
1148.3119259,2.77999997138977
1148.3275509,-1.03999996185303
1148.3431759,-4.48999977111816
1148.3588009,-7.30000019073486
1148.3744259,-9.36999988555908
1148.3900509,-10.8599996566772
1148.4056759,-11.9899997711182
1148.4213009,-12.8999996185303
1148.4369259,-13.6499996185303
1148.4525509,-14.2200002670288
1148.4681759,-14.5600004196167
1148.4838009,-14.6000003814697
1148.4994259,-14.3999996185303
1148.5150509,-14.0500001907349
1148.5306759,-13.4300003051758
1148.5463009,-11.8900003433228
1148.5619259,-8.52000045776367
1148.5775509,-2.70000004768372
1148.5931759,4.98000001907349
1148.6088009,12.8400001525879
1148.6244259,18.9300003051758
1148.6400509,21.9599990844727
1148.6556759,21.75
1148.6713009,19.0900001525879
1148.6869259,15.2399997711182
1148.7025509,11.3800001144409
1148.7181759,8.13000011444092
1148.7338009,5.44999980926514
1148.7494259,3.0
1148.7650509,0.449999988079071
1148.7806759,-2.14000010490417
1148.7963009,-4.42000007629395
1148.8119259,-5.96999979019165
1148.8275509,-6.69000005722046
1148.8431759,-6.84000015258789
1148.8588009,-6.94999980926514
1148.8744259,-7.46999979019165
1148.8900509,-8.5600004196167
1148.9056759,-10.0900001525879
1148.9213009,-11.7799997329712
1148.9369259,-13.3699998855591
1148.9525509,-14.8299999237061
1148.9681759,-16.2900009155273
1148.9838009,-17.7999992370605
1148.9994259,-19.2600002288818
1149.0150509,-20.4799995422363
1149.0306759,-21.3799991607666
1149.0463009,-22.0
1149.0619259,-22.3700008392334
1149.0775509,-22.5
1149.0931759,-22.4400005340576
1149.1088009,-22.2600002288818
1149.1244259,-22.0100002288818
1149.1400509,-21.6700000762939
1149.1556759,-21.1200008392334
1149.1713009,-20.0499992370605
1149.1869259,-17.8199996948242
1149.2025509,-13.5799999237061
1149.2181759,-6.8899998664856
1149.2338009,1.73000001907349
1149.2494259,10.710000038147
1149.2650509,18.0699996948242
1149.2806759,22.3099994659424
1149.2963009,22.9799995422363
1149.3119259,20.7299995422363
1149.3275509,16.9099998474121
1149.3431759,13.0100002288818
1149.3588009,9.97000026702881
1149.3744259,7.88000011444092
1149.3900509,6.23000001907349
1149.4056759,4.28000020980835
1149.4213009,1.61000001430511
1149.4369259,-1.62000000476837
1149.4525509,-4.78000020980835
1149.4681759,-7.21000003814697
1149.4838009,-8.55000019073486
1149.4994259,-8.90999984741211
1149.5150509,-8.84000015258789
1149.5306759,-9.15999984741211
1149.5463009,-10.5200004577637
1149.5619259,-13.0900001525879
1149.5775509,-16.6299991607666
1149.5931759,-20.6599998474121
1149.6088009,-24.6499996185303
1149.6244259,-28.0599994659424
1149.6400509,-30.4699993133545
1149.6556759,-31.7999992370605
1149.6713009,-32.2200012207031
1149.6869259,-31.9699993133545
1149.7025509,-31.4099998474121
1149.7181759,-30.9400005340576
1149.7338009,-30.8099994659424
1149.7494259,-30.8999996185303
1149.7650509,-30.7700004577637
1149.7806759,-29.9899997711182
1149.7963009,-28.3899993896484
1149.8119259,-25.8899993896484
1149.8275509,-22.1100006103516
1149.8431759,-16.2199993133545
1149.8588009,-7.44999980926514
1149.8744259,4.1399998664856
1149.8900509,17.4699993133545
1149.9056759,30.6200008392334
1149.9213009,41.3400001525879
1149.9369259,47.9199981689453
1149.9525509,49.8600006103516
1149.9681759,48.0099983215332
1149.9838009,44.1800003051758
1149.9994259,40.4000015258789
1150.0150509,38.0
1150.0306759,37.2000007629395
1150.0463009,37.2299995422363
1150.0619259,37.060001373291
1150.0775509,36.1100006103516
1150.0931759,34.3899993896484
1150.1088009,32.1800003051758
1150.1244259,29.8199996948242
1150.1400509,27.5300006866455
1150.1556759,25.3799991607666
1150.1713009,23.3299999237061
1150.1869259,21.1800003051758
1150.2025509,18.8099994659424
1150.2181759,16.5
1150.2338009,15.1499996185303
1150.2494259,15.5299997329712
1150.2650509,17.0200004577637
1150.2806759,17.4899997711182
1150.2963009,14.7399997711182
1150.3119259,8.11999988555908
1150.3275509,-1.00999999046326
1150.3431759,-10.1199998855591
1150.3588009,-16.9599990844727
1150.3744259,-20.6200008392334
1150.3900509,-21.7000007629395
1150.4056759,-21.4899997711182
1150.4213009,-21.2099990844727
1150.4369259,-21.3899993896484
1150.4525509,-21.7399997711182
1150.4681759,-21.3799991607666
1150.4838009,-19.0900001525879
1150.4994259,-13.9499998092651
1150.5150509,-6.11999988555908
1150.5306759,3.03999996185303
1150.5463009,11.5
1150.5619259,17.2900009155273
1150.5775509,19.2800006866455
1150.5931759,17.6800003051758
1150.6088009,13.6700000762939
1150.6244259,8.82999992370605
1150.6400509,4.34999990463257
1150.6556759,0.759999990463257
1150.6713009,-2.04999995231628
1150.6869259,-4.46999979019165
1150.7025509,-6.78000020980835
1150.7181759,-9.0600004196167
1150.7338009,-11.2600002288818
1150.7494259,-13.3000001907349
1150.7650509,-15.0200004577637
1150.7806759,-16.25
1150.7963009,-16.9300003051758
1150.8119259,-17.2600002288818
1150.8275509,-17.6100006103516
1150.8431759,-18.2299995422363
1150.8588009,-19.0699996948242
1150.8744259,-19.9300003051758
1150.8900509,-20.7299995422363
1150.9056759,-21.4699993133545
1150.9213009,-22.1499996185303
1150.9369259,-22.6599998474121
1150.9525509,-22.9899997711182
1150.9681759,-23.1900005340576
1150.9838009,-23.3099994659424
1150.9994259,-23.3700008392334
1151.0150509,-23.2800006866455
1151.0306759,-23.0100002288818
1151.0463009,-22.6100006103516
1151.0619259,-21.9300003051758
1151.0775509,-20.3500003814697
1151.0931759,-16.9500007629395
1151.1088009,-11.0
1151.1244259,-2.71000003814697
1151.1400509,6.57999992370605
1151.1556759,14.9499998092651
1151.1713009,20.6700000762939
1151.1869259,22.9200000762939
1151.2025509,21.9899997711182
1151.2181759,19.0100002288818
1151.2338009,15.3999996185303
1151.2494259,12.2299995422363
1151.2650509,9.8100004196167
1151.2806759,7.82000017166138
1151.2963009,5.80999994277954
1151.3119259,3.65000009536743
1151.3275509,1.61000001430511
1151.3431759,0.119999997317791
1151.3588009,-0.550000011920929
1151.3744259,-0.430000007152557
1151.3900509,0.0900000035762787
1151.4056759,0.519999980926514
1151.4213009,0.5
1151.4369259,-0.0299999993294477
1151.4525509,-0.879999995231628
1151.4681759,-1.87999999523163
1151.4838009,-2.91000008583069
1151.4994259,-3.90000009536743
1151.5150509,-4.76000022888184
1151.5306759,-5.44999980926514
1151.5463009,-6.0
1151.5619259,-6.42000007629395
1151.5775509,-6.71000003814697
1151.5931759,-6.94000005722046
1151.6088009,-7.21999979019165
1151.6244259,-7.53000020980835
1151.6400509,-7.65999984741211
1151.6556759,-7.26999998092651
1151.6713009,-5.88000011444092
1151.6869259,-2.90000009536743
1151.7025509,2.21000003814697
1151.7181759,9.40999984741211
1151.7338009,17.7600002288818
1151.7494259,25.6100006103516
1151.7650509,31.2600002288818
1151.7806759,33.7099990844727
1151.7963009,33.0099983215332
1151.8119259,30.0799999237061
1151.8275509,26.2299995422363
1151.8431759,22.5200004577637
1151.8588009,19.4099998474121
1151.8744259,16.8400001525879
1151.8900509,14.460000038147
1151.9056759,11.9899997711182
1151.9213009,9.46000003814697
1151.9369259,7.11999988555908
1151.9525509,5.30999994277954
1151.9681759,4.13000011444092
1151.9838009,3.4300000667572
1151.9994259,2.94000005722046
1152.0150509,2.4300000667572
1152.0306759,1.75
1152.0463009,0.740000009536743
1152.0619259,-0.620000004768372
1152.0775509,-2.20000004768372
1152.0931759,-3.75999999046326
1152.1088009,-5.19000005722046
1152.1244259,-6.46000003814697
1152.1400509,-7.57999992370605
1152.1556759,-8.52999973297119
1152.1713009,-9.27999973297119
1152.1869259,-9.85999965667725
1152.2025509,-10.289999961853
1152.2181759,-10.6199998855591
1152.2338009,-10.9099998474121
1152.2494259,-11.1700000762939
1152.2650509,-11.2700004577637
1152.2806759,-10.9700002670288
1152.2963009,-9.78999996185303
1152.3119259,-7.07000017166138
1152.3275509,-2.16000008583069
1152.3431759,4.90000009536743
1152.3588009,13.0500001907349
1152.3744259,20.5
1152.3900509,25.6499996185303
1152.4056759,27.6700000762939
1152.4213009,26.7000007629395
1152.4369259,23.7000007629395
1152.4525509,19.8400001525879
1152.4681759,16.0499992370605
1152.4838009,12.8400001525879
1152.4994259,10.2600002288818
1152.5150509,8.14999961853027
1152.5306759,6.25
1152.5463009,4.40000009536743
1152.5619259,2.54999995231628
1152.5775509,0.709999978542328
1152.5931759,-1.01999998092651
1152.6088009,-2.51999998092651
1152.6244259,-3.72000002861023
1152.6400509,-4.6399998664856
1152.6556759,-5.42000007629395
1152.6713009,-6.26999998092651
1152.6869259,-7.3600001335144
1152.7025509,-8.64999961853027
1152.7181759,-9.97999954223633
1152.7338009,-11.2600002288818
1152.7494259,-12.5
1152.7650509,-13.6599998474121
1152.7806759,-14.6499996185303
1152.7963009,-15.3900003433228
1152.8119259,-15.9200000762939
1152.8275509,-16.3099994659424
1152.8431759,-16.5599994659424
1152.8588009,-16.6800003051758
1152.8744259,-16.7099990844727
1152.8900509,-16.6800003051758
1152.9056759,-16.4300003051758
1152.9213009,-15.4300003051758
1152.9369259,-12.7600002288818
1152.9525509,-7.6399998664856
1152.9681759,-0.159999996423721
1152.9838009,8.40999984741211
1152.9994259,16.0699996948242
1153.0150509,21.0300006866455
1153.0306759,22.5599994659424
1153.0463009,21.1100006103516
1153.0619259,17.8700008392334
1153.0775509,14.1700000762939
1153.0931759,10.9300003051758
1153.1088009,8.51000022888184
1153.1244259,6.75
1153.1400509,5.19000005722046
1153.1556759,3.47000002861023
1153.1713009,1.48000001907349
1153.1869259,-0.560000002384186
1153.2025509,-2.27999997138977
1153.2181759,-3.32999992370605
1153.2338009,-3.65000009536743
1153.2494259,-3.55999994277954
1153.2650509,-3.52999997138977
1153.2806759,-3.84999990463257
1153.2963009,-4.57000017166138
1153.3119259,-5.61999988555908
1153.3275509,-6.90999984741211
1153.3431759,-8.27999973297119
1153.3588009,-9.5
1153.3744259,-10.4099998474121
1153.3900509,-10.9700002670288
1153.4056759,-11.3500003814697
