Time(s),Value(℃)
269.0011142,71.5100021362305
269.0167392,71.4800033569336
269.0323642,71.4400024414063
269.0479892,71.4100036621094
269.0636142,71.379997253418
269.0792392,71.3399963378906
269.0948642,71.3000030517578
269.1104892,71.2600021362305
269.1261142,71.2200012207031
269.1417392,71.1900024414063
269.1573642,71.1500015258789
269.1729892,71.120002746582
269.1886142,71.0999984741211
269.2042392,71.0800018310547
269.2198642,71.0599975585938
269.2354892,71.0500030517578
269.2511142,71.0400009155273
269.2667392,71.0299987792969
269.2823642,71.0199966430664
269.2979892,71.0100021362305
269.3136142,70.9899978637695
269.3292392,70.9700012207031
269.3448642,70.9499969482422
269.3604892,70.9300003051758
269.3761142,70.9100036621094
269.3917392,70.879997253418
269.4073642,70.8600006103516
269.4229892,70.8300018310547
269.4386142,70.8099975585938
269.4542392,70.7900009155273
269.4698642,70.7799987792969
269.4854892,70.7699966430664
269.5011142,70.7600021362305
269.5167392,70.7600021362305
269.5323642,70.7600021362305
269.5479892,70.7600021362305
269.5636142,70.7600021362305
269.5792392,70.7600021362305
269.5948642,70.7600021362305
269.6104892,70.7600021362305
269.6261142,70.7600021362305
269.6417392,70.75
269.6573642,70.75
269.6729892,70.75
269.6886142,70.75
269.7042392,70.75
269.7198642,70.7600021362305
269.7354892,70.7699966430664
269.7511142,70.7799987792969
269.7667392,70.8000030517578
269.7823642,70.8199996948242
269.7979892,70.8399963378906
269.8136142,70.8600006103516
269.8292392,70.879997253418
269.8448642,70.9000015258789
269.8604892,70.9199981689453
269.8761142,70.9400024414063
269.8917392,70.9599990844727
269.9073642,70.9800033569336
269.9229892,71.0
269.9386142,71.0199966430664
269.9542392,71.0299987792969
269.9698642,71.0500030517578
269.9854892,71.0699996948242
270.0011142,71.0899963378906
270.0167392,71.120002746582
270.0323642,71.1399993896484
270.0479892,71.1699981689453
270.0636142,71.2099990844727
270.0792392,71.2399978637695
270.0948642,71.2699966430664
270.1104892,71.3000030517578
270.1261142,71.3199996948242
270.1417392,71.3399963378906
270.1573642,71.3600006103516
270.1729892,71.379997253418
270.1886142,71.3899993896484
270.2042392,71.4000015258789
270.2198642,71.4199981689453
270.2354892,71.4300003051758
270.2511142,71.4400024414063
270.2667392,71.4499969482422
270.2823642,71.4599990844727
270.2979892,71.4700012207031
270.3136142,71.4700012207031
270.3292392,71.4800033569336
270.3448642,71.4800033569336
270.3604892,71.4800033569336
270.3761142,71.4700012207031
270.3917392,71.4599990844727
270.4073642,71.4499969482422
270.4229892,71.4300003051758
270.4386142,71.4100036621094
270.4542392,71.3899993896484
270.4698642,71.3600006103516
270.4854892,71.3300018310547
270.5011142,71.3000030517578
270.5167392,71.2600021362305
270.5323642,71.2300033569336
270.5479892,71.1900024414063
270.5636142,71.1500015258789
270.5792392,71.1100006103516
270.5948642,71.0699996948242
270.6104892,71.0299987792969
270.6261142,70.9899978637695
270.6417392,70.9499969482422
270.6573642,70.9000015258789
270.6729892,70.8600006103516
270.6886142,70.8199996948242
270.7042392,70.7699966430664
270.7198642,70.7399978637695
270.7354892,70.6999969482422
270.7511142,70.6699981689453
270.7667392,70.6399993896484
270.7823642,70.6100006103516
270.7979892,70.5899963378906
270.8136142,70.5599975585938
270.8292392,70.5400009155273
270.8448642,70.5100021362305
270.8604892,70.4899978637695
270.8761142,70.4700012207031
270.8917392,70.4400024414063
270.9073642,70.4199981689453
270.9229892,70.3899993896484
270.9386142,70.370002746582
270.9542392,70.3399963378906
270.9698642,70.3199996948242
270.9854892,70.3000030517578
271.0011142,70.2799987792969
271.0167392,70.25
271.0323642,70.2300033569336
271.0479892,70.2099990844727
271.0636142,70.1900024414063
271.0792392,70.1699981689453
271.0948642,70.1500015258789
271.1104892,70.129997253418
271.1261142,70.1100006103516
271.1417392,70.0899963378906
271.1573642,70.0599975585938
271.1729892,70.0400009155273
271.1886142,70.0100021362305
271.2042392,69.9700012207031
271.2198642,69.9300003051758
271.2354892,69.8899993896484
271.2511142,69.8399963378906
271.2667392,69.8000030517578
271.2823642,69.75
271.2979892,69.6999969482422
271.3136142,69.6500015258789
271.3292392,69.5999984741211
271.3448642,69.5599975585938
271.3604892,69.5199966430664
271.3761142,69.4700012207031
271.3917392,69.4300003051758
271.4073642,69.4000015258789
271.4229892,69.3600006103516
271.4386142,69.3199996948242
271.4542392,69.2900009155273
271.4698642,69.2600021362305
271.4854892,69.2300033569336
271.5011142,69.1999969482422
271.5167392,69.1800003051758
271.5323642,69.1600036621094
271.5479892,69.1399993896484
271.5636142,69.129997253418
271.5792392,69.1100006103516
271.5948642,69.0999984741211
271.6104892,69.0899963378906
271.6261142,69.0699996948242
271.6417392,69.0599975585938
271.6573642,69.0400009155273
271.6729892,69.0299987792969
271.6886142,69.0100021362305
271.7042392,68.9899978637695
271.7198642,68.9599990844727
271.7354892,68.9400024414063
271.7511142,68.9199981689453
271.7667392,68.8899993896484
271.7823642,68.870002746582
271.7979892,68.8499984741211
271.8136142,68.8199996948242
271.8292392,68.8000030517578
271.8448642,68.7699966430664
271.8604892,68.7399978637695
271.8761142,68.7099990844727
271.8917392,68.6800003051758
271.9073642,68.6500015258789
271.9229892,68.620002746582
271.9386142,68.5899963378906
271.9542392,68.5599975585938
271.9698642,68.5299987792969
271.9854892,68.5
272.0011142,68.4700012207031
272.0167392,68.4400024414063
272.0323642,68.4100036621094
272.0479892,68.379997253418
272.0636142,68.3499984741211
272.0792392,68.3300018310547
272.0948642,68.3099975585938
272.1104892,68.2900009155273
272.1261142,68.2699966430664
272.1417392,68.2600021362305
272.1573642,68.25
272.1729892,68.2399978637695
272.1886142,68.2399978637695
272.2042392,68.25
272.2198642,68.25
272.2354892,68.2600021362305
272.2511142,68.2600021362305
272.2667392,68.2600021362305
272.2823642,68.2600021362305
272.2979892,68.2600021362305
272.3136142,68.2600021362305
272.3292392,68.2600021362305
272.3448642,68.2600021362305
272.3604892,68.2600021362305
272.3761142,68.2600021362305
272.3917392,68.2699966430664
272.4073642,68.2900009155273
272.4229892,68.3099975585938
272.4386142,68.3399963378906
272.4542392,68.370002746582
272.4698642,68.4000015258789
272.4854892,68.4300003051758
272.5011142,68.4700012207031
272.5167392,68.5100021362305
272.5323642,68.5500030517578
272.5479892,68.5899963378906
272.5636142,68.629997253418
272.5792392,68.6699981689453
272.5948642,68.7099990844727
272.6104892,68.75
272.6261142,68.7900009155273
272.6417392,68.8099975585938
272.6573642,68.8399963378906
272.6729892,68.8600006103516
272.6886142,68.870002746582
272.7042392,68.879997253418
272.7198642,68.8899993896484
272.7354892,68.9000015258789
272.7511142,68.9000015258789
272.7667392,68.9100036621094
272.7823642,68.9100036621094
272.7979892,68.9199981689453
272.8136142,68.9300003051758
272.8292392,68.9400024414063
272.8448642,68.9499969482422
272.8604892,68.9499969482422
272.8761142,68.9599990844727
272.8917392,68.9700012207031
272.9073642,68.9800033569336
272.9229892,68.9899978637695
272.9386142,69.0
272.9542392,69.0100021362305
272.9698642,69.0199966430664
272.9854892,69.0299987792969
273.0011142,69.0400009155273
273.0167392,69.0599975585938
273.0323642,69.0699996948242
273.0479892,69.0800018310547
273.0636142,69.0899963378906
273.0792392,69.0999984741211
273.0948642,69.1100006103516
273.1104892,69.1100006103516
273.1261142,69.1100006103516
273.1417392,69.1100006103516
273.1573642,69.1100006103516
273.1729892,69.1100006103516
273.1886142,69.1100006103516
273.2042392,69.1100006103516
273.2198642,69.1100006103516
273.2354892,69.120002746582
273.2511142,69.120002746582
273.2667392,69.129997253418
273.2823642,69.1399993896484
273.2979892,69.1399993896484
273.3136142,69.1500015258789
273.3292392,69.1399993896484
273.3448642,69.129997253418
273.3604892,69.120002746582
273.3761142,69.0899963378906
273.3917392,69.0599975585938
273.4073642,69.0199966430664
273.4229892,68.9800033569336
273.4386142,68.9199981689453
273.4542392,68.8600006103516
273.4698642,68.7900009155273
273.4854892,68.7099990844727
273.5011142,68.629997253418
273.5167392,68.5500030517578
273.5323642,68.4800033569336
273.5479892,68.4000015258789
273.5636142,68.3399963378906
273.5792392,68.2799987792969
273.5948642,68.2300033569336
273.6104892,68.1999969482422
273.6261142,68.1699981689453
273.6417392,68.1500015258789
273.6573642,68.1399993896484
273.6729892,68.129997253418
273.6886142,68.129997253418
273.7042392,68.129997253418
273.7198642,68.120002746582
273.7354892,68.120002746582
273.7511142,68.1100006103516
273.7667392,68.1100006103516
273.7823642,68.0899963378906
273.7979892,68.0800018310547
273.8136142,68.0699996948242
273.8292392,68.0500030517578
273.8448642,68.0299987792969
273.8604892,68.0100021362305
273.8761142,67.9899978637695
273.8917392,67.9700012207031
273.9073642,67.9499969482422
273.9229892,67.9199981689453
273.9386142,67.8899993896484
273.9542392,67.8600006103516
273.9698642,67.8300018310547
273.9854892,67.8000030517578
274.0011142,67.7699966430664
274.0167392,67.7399978637695
274.0323642,67.7200012207031
274.0479892,67.6999969482422
274.0636142,67.6800003051758
274.0792392,67.6699981689453
274.0948642,67.6600036621094
274.1104892,67.6500015258789
274.1261142,67.6399993896484
274.1417392,67.629997253418
274.1573642,67.629997253418
274.1729892,67.620002746582
274.1886142,67.620002746582
274.2042392,67.620002746582
274.2198642,67.620002746582
274.2354892,67.629997253418
274.2511142,67.629997253418
274.2667392,67.6399993896484
274.2823642,67.6600036621094
274.2979892,67.6699981689453
274.3136142,67.6900024414063
274.3292392,67.7200012207031
274.3448642,67.7399978637695
274.3604892,67.7699966430664
274.3761142,67.7900009155273
274.3917392,67.8300018310547
274.4073642,67.8600006103516
274.4229892,67.8899993896484
274.4386142,67.9199981689453
274.4542392,67.9599990844727
274.4698642,67.9899978637695
274.4854892,68.0199966430664
274.5011142,68.0400009155273
274.5167392,68.0599975585938
274.5323642,68.0800018310547
274.5479892,68.0899963378906
274.5636142,68.0999984741211
274.5792392,68.0999984741211
274.5948642,68.0999984741211
274.6104892,68.0999984741211
274.6261142,68.0899963378906
274.6417392,68.0800018310547
274.6573642,68.0699996948242
274.6729892,68.0699996948242
274.6886142,68.0599975585938
274.7042392,68.0599975585938
274.7198642,68.0699996948242
274.7354892,68.0699996948242
274.7511142,68.0800018310547
274.7667392,68.0999984741211
274.7823642,68.1100006103516
274.7979892,68.129997253418
274.8136142,68.1500015258789
274.8292392,68.1699981689453
274.8448642,68.1900024414063
274.8604892,68.2099990844727
274.8761142,68.2300033569336
274.8917392,68.25
274.9073642,68.2699966430664
274.9229892,68.2900009155273
274.9386142,68.3199996948242
274.9542392,68.3399963378906
274.9698642,68.3600006103516
274.9854892,68.379997253418
275.0011142,68.4000015258789
275.0167392,68.4199981689453
275.0323642,68.4499969482422
275.0479892,68.4700012207031
275.0636142,68.4899978637695
275.0792392,68.5100021362305
275.0948642,68.5299987792969
275.1104892,68.5400009155273
275.1261142,68.5500030517578
275.1417392,68.5500030517578
275.1573642,68.5500030517578
275.1729892,68.5400009155273
275.1886142,68.5199966430664
275.2042392,68.5
275.2198642,68.4800033569336
275.2354892,68.4499969482422
275.2511142,68.4199981689453
275.2667392,68.379997253418
275.2823642,68.3499984741211
275.2979892,68.3099975585938
275.3136142,68.2699966430664
275.3292392,68.2300033569336
275.3448642,68.1900024414063
275.3604892,68.1500015258789
275.3761142,68.0999984741211
275.3917392,68.0599975585938
275.4073642,68.0199966430664
275.4229892,67.9800033569336
275.4386142,67.9400024414063
275.4542392,67.9100036621094
275.4698642,67.879997253418
275.4854892,67.8499984741211
275.5011142,67.8199996948242
275.5167392,67.8000030517578
275.5323642,67.7799987792969
275.5479892,67.7699966430664
275.5636142,67.75
275.5792392,67.7399978637695
275.5948642,67.7200012207031
275.6104892,67.6999969482422
275.6261142,67.6800003051758
275.6417392,67.6600036621094
275.6573642,67.629997253418
275.6729892,67.5999984741211
275.6886142,67.5699996948242
275.7042392,67.5400009155273
275.7198642,67.5
275.7354892,67.4599990844727
275.7511142,67.4300003051758
275.7667392,67.3899993896484
275.7823642,67.3499984741211
275.7979892,67.3099975585938
275.8136142,67.2600021362305
275.8292392,67.2200012207031
275.8448642,67.1800003051758
275.8604892,67.1399993896484
275.8761142,67.0899963378906
275.8917392,67.0500030517578
275.9073642,67.0100021362305
275.9229892,66.9599990844727
275.9386142,66.9100036621094
275.9542392,66.8600006103516
275.9698642,66.8000030517578
275.9854892,66.7399978637695
276.0011142,66.6800003051758
276.0167392,66.6100006103516
276.0323642,66.5500030517578
276.0479892,66.4800033569336
276.0636142,66.4199981689453
276.0792392,66.3600006103516
276.0948642,66.3099975585938
276.1104892,66.25
276.1261142,66.2099990844727
276.1417392,66.1600036621094
276.1573642,66.120002746582
276.1729892,66.0800018310547
276.1886142,66.0400009155273
276.2042392,66.0
276.2198642,65.9599990844727
276.2354892,65.9300003051758
276.2511142,65.9000015258789
276.2667392,65.870002746582
276.2823642,65.8399963378906
276.2979892,65.8199996948242
276.3136142,65.8099975585938
276.3292392,65.7900009155273
276.3448642,65.7799987792969
276.3604892,65.7699966430664
276.3761142,65.7600021362305
276.3917392,65.75
276.4073642,65.7399978637695
276.4229892,65.7300033569336
276.4386142,65.7300033569336
276.4542392,65.7200012207031
276.4698642,65.7200012207031
276.4854892,65.7099990844727
276.5011142,65.7200012207031
276.5167392,65.7200012207031
276.5323642,65.7300033569336
276.5479892,65.75
276.5636142,65.7699966430664
276.5792392,65.7900009155273
276.5948642,65.8199996948242
276.6104892,65.8600006103516
276.6261142,65.9000015258789
276.6417392,65.9400024414063
276.6573642,65.9800033569336
276.6729892,66.0100021362305
276.6886142,66.0500030517578
276.7042392,66.0800018310547
276.7198642,66.0999984741211
276.7354892,66.120002746582
276.7511142,66.1399993896484
276.7667392,66.1500015258789
276.7823642,66.1600036621094
276.7979892,66.1699981689453
276.8136142,66.1699981689453
276.8292392,66.1800003051758
276.8448642,66.1900024414063
276.8604892,66.1999969482422
276.8761142,66.2200012207031
276.8917392,66.25
276.9073642,66.2799987792969
276.9229892,66.3099975585938
276.9386142,66.3499984741211
276.9542392,66.379997253418
276.9698642,66.4199981689453
276.9854892,66.4599990844727
277.0011142,66.4899978637695
277.0167392,66.5199966430664
277.0323642,66.5400009155273
277.0479892,66.5599975585938
277.0636142,66.5800018310547
277.0792392,66.5999984741211
277.0948642,66.620002746582
277.1104892,66.6399993896484
277.1261142,66.6600036621094
277.1417392,66.6699981689453
277.1573642,66.6900024414063
277.1729892,66.7200012207031
277.1886142,66.7399978637695
277.2042392,66.7600021362305
277.2198642,66.7900009155273
277.2354892,66.8199996948242
277.2511142,66.8399963378906
277.2667392,66.870002746582
277.2823642,66.8899993896484
277.2979892,66.9199981689453
277.3136142,66.9400024414063
277.3292392,66.9599990844727
277.3448642,66.9800033569336
277.3604892,66.9899978637695
277.3761142,67.0
277.3917392,67.0
277.4073642,67.0
277.4229892,66.9899978637695
277.4386142,66.9800033569336
277.4542392,66.9599990844727
277.4698642,66.9300003051758
277.4854892,66.8899993896484
277.5011142,66.8399963378906
277.5167392,66.7799987792969
277.5323642,66.7200012207031
277.5479892,66.6600036621094
277.5636142,66.5899963378906
277.5792392,66.5299987792969
277.5948642,66.4599990844727
277.6104892,66.4100036621094
277.6261142,66.3600006103516
277.6417392,66.3099975585938
277.6573642,66.2699966430664
277.6729892,66.2399978637695
277.6886142,66.2099990844727
277.7042392,66.1900024414063
277.7198642,66.1699981689453
277.7354892,66.1500015258789
277.7511142,66.1399993896484
277.7667392,66.120002746582
277.7823642,66.1100006103516
277.7979892,66.0899963378906
277.8136142,66.0699996948242
277.8292392,66.0500030517578
277.8448642,66.0299987792969
277.8604892,66.0
277.8761142,65.9800033569336
277.8917392,65.9599990844727
277.9073642,65.9400024414063
277.9229892,65.9199981689453
277.9386142,65.9000015258789
277.9542392,65.879997253418
277.9698642,65.8600006103516
277.9854892,65.8399963378906
278.0011142,65.8199996948242
278.0167392,65.8000030517578
278.0323642,65.7699966430664
278.0479892,65.75
278.0636142,65.7300033569336
278.0792392,65.6999969482422
278.0948642,65.6800003051758
278.1104892,65.6500015258789
278.1261142,65.620002746582
278.1417392,65.5800018310547
278.1573642,65.5500030517578
278.1729892,65.5100021362305
278.1886142,65.4800033569336
278.2042392,65.4400024414063
278.2198642,65.4100036621094
278.2354892,65.370002746582
278.2511142,65.3399963378906
278.2667392,65.3099975585938
278.2823642,65.2799987792969
278.2979892,65.2399978637695
278.3136142,65.1999969482422
278.3292392,65.1699981689453
278.3448642,65.129997253418
278.3604892,65.0999984741211
278.3761142,65.0699996948242
278.3917392,65.0400009155273
278.4073642,65.0100021362305
278.4229892,65.0
278.4386142,64.9800033569336
278.4542392,64.9700012207031
278.4698642,64.9700012207031
278.4854892,64.9599990844727
278.5011142,64.9599990844727
278.5167392,64.9599990844727
278.5323642,64.9499969482422
278.5479892,64.9400024414063
278.5636142,64.9400024414063
278.5792392,64.9199981689453
278.5948642,64.9100036621094
278.6104892,64.8899993896484
278.6261142,64.870002746582
278.6417392,64.8499984741211
278.6573642,64.8300018310547
278.6729892,64.8099975585938
278.6886142,64.7900009155273
278.7042392,64.7699966430664
278.7198642,64.7600021362305
278.7354892,64.7399978637695
278.7511142,64.7300033569336
278.7667392,64.7200012207031
278.7823642,64.7099990844727
278.7979892,64.6999969482422
278.8136142,64.6900024414063
278.8292392,64.6900024414063
278.8448642,64.6900024414063
278.8604892,64.6900024414063
278.8761142,64.6999969482422
278.8917392,64.7099990844727
278.9073642,64.7200012207031
278.9229892,64.7399978637695
278.9386142,64.7600021362305
278.9542392,64.7799987792969
278.9698642,64.8000030517578
278.9854892,64.8300018310547
279.0011142,64.8600006103516
279.0167392,64.8899993896484
279.0323642,64.9400024414063
279.0479892,64.9800033569336
279.0636142,65.0299987792969
279.0792392,65.0800018310547
279.0948642,65.129997253418
279.1104892,65.1699981689453
279.1261142,65.2099990844727
279.1417392,65.2399978637695
279.1573642,65.2600021362305
279.1729892,65.2799987792969
279.1886142,65.2900009155273
279.2042392,65.3000030517578
279.2198642,65.3199996948242
279.2354892,65.3300018310547
279.2511142,65.3499984741211
279.2667392,65.3600006103516
279.2823642,65.379997253418
279.2979892,65.4000015258789
279.3136142,65.4199981689453
279.3292392,65.4300003051758
279.3448642,65.4400024414063
279.3604892,65.4499969482422
279.3761142,65.4599990844727
279.3917392,65.4700012207031
279.4073642,65.4700012207031
279.4229892,65.4700012207031
279.4386142,65.4700012207031
279.4542392,65.4700012207031
279.4698642,65.4700012207031
279.4854892,65.4700012207031
279.5011142,65.4599990844727
279.5167392,65.4599990844727
279.5323642,65.4599990844727
279.5479892,65.4599990844727
279.5636142,65.4599990844727
279.5792392,65.4599990844727
279.5948642,65.4599990844727
279.6104892,65.4599990844727
279.6261142,65.4599990844727
279.6417392,65.4700012207031
279.6573642,65.4700012207031
279.6729892,65.4700012207031
279.6886142,65.4700012207031
279.7042392,65.4700012207031
279.7198642,65.4700012207031
279.7354892,65.4599990844727
279.7511142,65.4599990844727
279.7667392,65.4499969482422
279.7823642,65.4300003051758
279.7979892,65.4199981689453
279.8136142,65.4000015258789
279.8292392,65.3899993896484
279.8448642,65.370002746582
279.8604892,65.3600006103516
279.8761142,65.3399963378906
279.8917392,65.3300018310547
279.9073642,65.3199996948242
279.9229892,65.3000030517578
279.9386142,65.2799987792969
279.9542392,65.25
