Time(s),Value(%)
269.0011142,-58.2999992370605
269.0167392,-55.2799987792969
269.0323642,-51.1300010681152
269.0479892,-46.2900009155273
269.0636142,-41.2299995422363
269.0792392,-36.2999992370605
269.0948642,-31.7900009155273
269.1104892,-27.8500003814697
269.1261142,-24.5599994659424
269.1417392,-21.8400001525879
269.1573642,-19.6299991607666
269.1729892,-17.9699993133545
269.1886142,-16.9200000762939
269.2042392,-16.4400005340576
269.2198642,-16.3600006103516
269.2354892,-16.4500007629395
269.2511142,-16.7800006866455
269.2667392,-17.2000007629395
269.2823642,-17.7600002288818
269.2979892,-18.3500003814697
269.3136142,-18.6800003051758
269.3292392,-18.5400009155273
269.3448642,-17.9099998474121
269.3604892,-16.9799995422363
269.3761142,-16.1599998474121
269.3917392,-15.960000038147
269.4073642,-16.7800006866455
269.4229892,-18.6700000762939
269.4386142,-21.5300006866455
269.4542392,-25.2999992370605
269.4698642,-29.9699993133545
269.4854892,-35.3600006103516
269.5011142,-40.810001373291
269.5167392,-45.3600006103516
269.5323642,-48.3499984741211
269.5479892,-49.9799995422363
269.5636142,-50.9000015258789
269.5792392,-51.5499992370605
269.5948642,-51.8499984741211
269.6104892,-51.5299987792969
269.6261142,-50.4900016784668
269.6417392,-48.8800010681152
269.6573642,-47.060001373291
269.6729892,-45.4300003051758
269.6886142,-44.25
269.7042392,-43.560001373291
269.7198642,-43.1199989318848
269.7354892,-42.6399993896484
269.7511142,-41.8199996948242
269.7667392,-40.5299987792969
269.7823642,-38.5299987792969
269.7979892,-35.3699989318848
269.8136142,-30.6499996185303
269.8292392,-24.4099998474121
269.8448642,-17.2600002288818
269.8604892,-10.0200004577637
269.8761142,-3.39000010490417
269.8917392,2.3199999332428
269.9073642,7.21999979019165
269.9229892,11.5600004196167
269.9386142,15.4700002670288
269.9542392,18.7999992370605
269.9698642,21.2900009155273
269.9854892,22.8299999237061
270.0011142,23.4500007629395
270.0167392,23.2199993133545
270.0323642,22.2299995422363
270.0479892,20.6800003051758
270.0636142,19.0100002288818
270.0792392,17.7900009155273
270.0948642,17.3299999237061
270.1104892,17.4200000762939
270.1261142,17.5400009155273
270.1417392,17.4500007629395
270.1573642,17.2700004577637
270.1729892,17.3099994659424
270.1886142,17.7299995422363
270.2042392,18.4799995422363
270.2198642,19.3199996948242
270.2354892,19.8899993896484
270.2511142,20.1800003051758
270.2667392,19.8299999237061
270.2823642,18.8500003814697
270.2979892,17.2000007629395
270.3136142,14.8199996948242
270.3292392,11.8400001525879
270.3448642,8.80000019073486
270.3604892,6.61999988555908
270.3761142,6.09999990463257
270.3917392,7.40000009536743
270.4073642,10.1199998855591
270.4229892,13.7799997329712
270.4386142,18.2399997711182
270.4542392,23.6700000762939
270.4698642,30.2900009155273
270.4854892,37.9599990844727
270.5011142,46.2400016784668
270.5167392,54.6300010681152
270.5323642,62.9199981689453
270.5479892,71.1900024414063
270.5636142,79.5100021362305
270.5792392,87.5
270.5948642,94.5299987792969
270.6104892,100.120002746582
270.6261142,104.290000915527
270.6417392,107.370002746582
270.6573642,109.779998779297
270.6729892,111.73999786377
270.6886142,113.26000213623
270.7042392,114.25
270.7198642,114.569999694824
270.7354892,114.0
270.7511142,112.400001525879
270.7667392,109.800003051758
270.7823642,106.400001525879
270.7979892,102.279998779297
270.8136142,97.2699966430664
270.8292392,90.879997253418
270.8448642,82.9000015258789
270.8604892,73.7699966430664
270.8761142,64.4199981689453
270.8917392,55.7599983215332
270.9073642,48.2000007629395
270.9229892,41.6199989318848
270.9386142,35.3699989318848
270.9542392,28.5
270.9698642,20.2800006866455
270.9854892,10.5500001907349
271.0011142,-0.509999990463257
271.0167392,-12.8199996948242
271.0323642,-26.3799991607666
271.0479892,-40.8199996948242
271.0636142,-54.9099998474121
271.0792392,-66.7799987792969
271.0948642,-75.1100006103516
271.1104892,-80.129997253418
271.1261142,-83.120002746582
271.1417392,-85.129997253418
271.1573642,-86.3600006103516
271.1729892,-86.6500015258789
271.1886142,-85.9100036621094
271.2042392,-84.3300018310547
271.2198642,-82.0800018310547
271.2354892,-79.0999984741211
271.2511142,-75.4599990844727
271.2667392,-70.879997253418
271.2823642,-65.6600036621094
271.2979892,-60.310001373291
271.3136142,-55.2799987792969
271.3292392,-50.7700004577637
271.3448642,-46.6199989318848
271.3604892,-42.3699989318848
271.3761142,-37.7000007629395
271.3917392,-32.7299995422363
271.4073642,-27.9099998474121
271.4229892,-23.6100006103516
271.4386142,-19.9200000762939
271.4542392,-16.6700000762939
271.4698642,-13.6300001144409
271.4854892,-10.6700000762939
271.5011142,-7.8899998664856
271.5167392,-5.65000009536743
271.5323642,-4.30000019073486
271.5479892,-3.97000002861023
271.5636142,-4.6399998664856
271.5792392,-6.32000017166138
271.5948642,-9.02999973297119
271.6104892,-12.5600004196167
271.6261142,-16.2299995422363
271.6417392,-19.0300006866455
271.6573642,-20.2900009155273
271.6729892,-20.2099990844727
271.6886142,-19.5
271.7042392,-18.6499996185303
271.7198642,-17.6499996185303
271.7354892,-16.2700004577637
271.7511142,-14.3999996185303
271.7667392,-12.1599998474121
271.7823642,-9.88000011444092
271.7979892,-8.0
271.8136142,-6.84000015258789
271.8292392,-6.42000007629395
271.8448642,-6.48999977111816
271.8604892,-6.69000005722046
271.8761142,-6.67999982833862
271.8917392,-6.28000020980835
271.9073642,-5.19000005722046
271.9229892,-2.90000009536743
271.9386142,1.16999995708466
271.9542392,7.19999980926514
271.9698642,14.8000001907349
271.9854892,23.1100006103516
272.0011142,31.2299995422363
272.0167392,38.5400009155273
272.0323642,44.8699989318848
272.0479892,50.3300018310547
272.0636142,55.0699996948242
272.0792392,59.1100006103516
272.0948642,62.3600006103516
272.1104892,64.75
272.1261142,66.3300018310547
272.1417392,67.1100006103516
272.1573642,67.1100006103516
272.1729892,66.4700012207031
272.1886142,65.4000015258789
272.2042392,64.1100006103516
272.2198642,62.6599998474121
272.2354892,60.8899993896484
272.2511142,58.5900001525879
272.2667392,55.9500007629395
272.2823642,53.2999992370605
272.2979892,50.9799995422363
272.3136142,49.1100006103516
272.3292392,47.5499992370605
272.3448642,45.9799995422363
272.3604892,43.9700012207031
272.3761142,41.2000007629395
272.3917392,37.6500015258789
272.4073642,33.5999984741211
272.4229892,29.4200000762939
272.4386142,25.4400005340576
272.4542392,21.7900009155273
272.4698642,18.4099998474121
272.4854892,15.1300001144409
272.5011142,11.7799997329712
272.5167392,8.30000019073486
272.5323642,4.76000022888184
272.5479892,1.33000004291534
272.5636142,-1.76999998092651
272.5792392,-4.32999992370605
272.5948642,-5.94999980926514
272.6104892,-6.1100001335144
272.6261142,-4.44000005722046
272.6417392,-1.08000004291534
272.6573642,3.32999992370605
272.6729892,8.0
272.6886142,12.2399997711182
272.7042392,15.6800003051758
272.7198642,18.2099990844727
272.7354892,20.0
272.7511142,21.3299999237061
272.7667392,22.3899993896484
272.7823642,23.0100002288818
272.7979892,22.5900001525879
272.8136142,20.5100002288818
272.8292392,16.6299991607666
272.8448642,11.1999998092651
272.8604892,4.57999992370605
272.8761142,-2.94000005722046
272.8917392,-10.9700002670288
272.9073642,-18.8199996948242
272.9229892,-25.5499992370605
272.9386142,-30.5599994659424
272.9542392,-34.0499992370605
272.9698642,-36.6599998474121
272.9854892,-38.8199996948242
273.0011142,-40.4900016784668
273.0167392,-41.5
273.0323642,-41.810001373291
273.0479892,-41.6100006103516
273.0636142,-41.25
273.0792392,-41.1100006103516
273.0948642,-41.439998626709
273.1104892,-42.2799987792969
273.1261142,-43.6100006103516
273.1417392,-45.4900016784668
273.1573642,-48.0099983215332
273.1729892,-51.060001373291
273.1886142,-54.1300010681152
273.2042392,-56.3600006103516
273.2198642,-57.0800018310547
273.2354892,-56.310001373291
273.2511142,-54.2999992370605
273.2667392,-51.810001373291
273.2823642,-49.0400009155273
273.2979892,-46.0299987792969
273.3136142,-42.8400001525879
273.3292392,-39.5400009155273
273.3448642,-36.0900001525879
273.3604892,-32.2299995422363
273.3761142,-27.6900005340576
273.3917392,-22.4400005340576
273.4073642,-16.7600002288818
273.4229892,-11.0500001907349
273.4386142,-5.69000005722046
273.4542392,-0.889999985694885
273.4698642,3.15000009536743
273.4854892,6.21000003814697
273.5011142,8.07999992370605
273.5167392,8.81999969482422
273.5323642,8.77999973297119
273.5479892,8.40999984741211
273.5636142,8.10999965667725
273.5792392,8.06999969482422
273.5948642,8.39000034332275
273.6104892,9.14999961853027
273.6261142,10.4499998092651
273.6417392,12.3599996566772
273.6573642,14.75
273.6729892,17.3999996185303
273.6886142,20.0699996948242
273.7042392,22.6599998474121
273.7198642,25.1900005340576
273.7354892,27.7099990844727
273.7511142,30.1399993896484
273.7667392,32.2999992370605
273.7823642,34.0400009155273
273.7979892,35.3400001525879
273.8136142,36.2799987792969
273.8292392,36.9000015258789
273.8448642,37.1599998474121
273.8604892,37.0800018310547
273.8761142,36.7000007629395
273.8917392,36.0900001525879
273.9073642,35.2599983215332
273.9229892,34.060001373291
273.9386142,32.3300018310547
273.9542392,30.0900001525879
273.9698642,27.7099990844727
273.9854892,25.8799991607666
274.0011142,25.2399997711182
274.0167392,25.9599990844727
274.0323642,27.7399997711182
274.0479892,30.1599998474121
274.0636142,33.1399993896484
274.0792392,37.060001373291
274.0948642,42.1800003051758
274.1104892,48.1100006103516
274.1261142,53.8499984741211
274.1417392,58.5200004577637
274.1573642,61.7599983215332
274.1729892,63.7400016784668
274.1886142,64.8399963378906
274.2042392,65.3199996948242
274.2198642,65.2200012207031
274.2354892,64.5599975585938
274.2511142,63.6599998474121
274.2667392,62.5400009155273
274.2823642,61.4500007629395
274.2979892,60.4700012207031
274.3136142,59.3300018310547
274.3292392,57.4099998474121
274.3448642,54.1800003051758
274.3604892,49.6100006103516
274.3761142,44.1100006103516
274.3917392,38.2900009155273
274.4073642,32.5499992370605
274.4229892,27.1000003814697
274.4386142,21.9200000762939
274.4542392,16.9099998474121
274.4698642,11.9200000762939
274.4854892,6.73000001907349
274.5011142,1.19000005722046
274.5167392,-4.71999979019165
274.5323642,-10.9300003051758
274.5479892,-17.4400005340576
274.5636142,-24.2399997711182
274.5792392,-31.2700004577637
274.5948642,-38.2799987792969
274.6104892,-44.9700012207031
274.6261142,-51.1800003051758
274.6417392,-56.9900016784668
274.6573642,-62.5400009155273
274.6729892,-67.7600021362305
274.6886142,-72.2600021362305
274.7042392,-75.5
274.7198642,-77.1399993896484
274.7354892,-77.2900009155273
274.7511142,-76.3600006103516
274.7667392,-74.6900024414063
274.7823642,-72.25
274.7979892,-68.5899963378906
274.8136142,-63.4700012207031
274.8292392,-57.2799987792969
274.8448642,-50.9599990844727
274.8604892,-45.3899993896484
274.8761142,-40.9700012207031
274.8917392,-37.5999984741211
274.9073642,-34.9700012207031
274.9229892,-32.9099998474121
274.9386142,-31.3700008392334
274.9542392,-30.3400001525879
274.9698642,-29.7600002288818
274.9854892,-29.5
275.0011142,-29.4400005340576
275.0167392,-29.5200004577637
275.0323642,-29.8700008392334
275.0479892,-30.8999996185303
275.0636142,-33.0299987792969
275.0792392,-36.439998626709
275.0948642,-40.8699989318848
275.1104892,-45.7599983215332
275.1261142,-50.5299987792969
275.1417392,-54.7700004577637
275.1573642,-58.3800010681152
275.1729892,-61.4799995422363
275.1886142,-64.4000015258789
275.2042392,-67.5699996948242
275.2198642,-71.3000030517578
275.2354892,-75.6399993896484
275.2511142,-80.7600021362305
275.2667392,-86.3199996948242
275.2823642,-92.3000030517578
275.2979892,-98.5500030517578
275.3136142,-104.589996337891
275.3292392,-109.730003356934
275.3448642,-113.470001220703
275.3604892,-115.900001525879
275.3761142,-117.470001220703
275.3917392,-118.48999786377
275.4073642,-118.940002441406
275.4229892,-118.730003356934
275.4386142,-117.849998474121
275.4542392,-116.400001525879
275.4698642,-114.319999694824
275.4854892,-111.269996643066
275.5011142,-106.860000610352
275.5167392,-101.019996643066
275.5323642,-94.0800018310547
275.5479892,-86.5400009155273
275.5636142,-78.8000030517578
275.5792392,-71.1800003051758
275.5948642,-63.9599990844727
275.6104892,-57.439998626709
275.6261142,-51.9000015258789
275.6417392,-47.4300003051758
275.6573642,-43.9500007629395
275.6729892,-41.310001373291
275.6886142,-39.2799987792969
275.7042392,-37.6399993896484
275.7198642,-36.1599998474121
275.7354892,-34.7000007629395
275.7511142,-33.3400001525879
275.7667392,-32.3499984741211
275.7823642,-32.0699996948242
275.7979892,-32.5999984741211
275.8136142,-33.8800010681152
275.8292392,-35.8300018310547
275.8448642,-38.4199981689453
275.8604892,-41.4599990844727
275.8761142,-44.4500007629395
275.8917392,-46.7099990844727
275.9073642,-47.7999992370605
275.9229892,-47.8899993896484
275.9386142,-47.5099983215332
275.9542392,-46.9500007629395
275.9698642,-46.1399993896484
275.9854892,-44.8600006103516
276.0011142,-43.0099983215332
276.0167392,-40.7200012207031
276.0323642,-38.3199996948242
276.0479892,-36.2099990844727
276.0636142,-34.7099990844727
276.0792392,-33.8800010681152
276.0948642,-33.6800003051758
276.1104892,-34.0900001525879
276.1261142,-35.1500015258789
276.1417392,-36.7200012207031
276.1573642,-38.2200012207031
276.1729892,-38.7400016784668
276.1886142,-37.439998626709
276.2042392,-34.0400009155273
276.2198642,-28.7800006866455
276.2354892,-22.1700000762939
276.2511142,-14.75
276.2667392,-6.84000015258789
276.2823642,1.14999997615814
276.2979892,8.93000030517578
276.3136142,16.3299999237061
276.3292392,23.2999992370605
276.3448642,29.8700008392334
276.3604892,36.0999984741211
276.3761142,41.9500007629395
276.3917392,47.3199996948242
276.4073642,52.0499992370605
276.4229892,56.1199989318848
276.4386142,59.6100006103516
276.4542392,62.6300010681152
276.4698642,65.1500015258789
276.4854892,67.0500030517578
276.5011142,68.25
276.5167392,68.9400024414063
276.5323642,69.4899978637695
276.5479892,70.2399978637695
276.5636142,71.3099975585938
276.5792392,72.620002746582
276.5948642,73.9000015258789
276.6104892,74.8099975585938
276.6261142,75.1100006103516
276.6417392,74.7399978637695
276.6573642,73.7399978637695
276.6729892,72.0699996948242
276.6886142,69.6600036621094
276.7042392,66.6100006103516
276.7198642,63.4300003051758
276.7354892,60.8199996948242
276.7511142,59.2999992370605
276.7667392,58.7299995422363
276.7823642,58.5900001525879
276.7979892,58.5499992370605
276.8136142,58.6300010681152
276.8292392,59.0299987792969
276.8448642,59.8300018310547
276.8604892,60.9599990844727
276.8761142,62.2999992370605
276.8917392,63.8199996948242
276.9073642,65.5599975585938
276.9229892,67.5299987792969
276.9386142,69.6999969482422
276.9542392,72.0500030517578
276.9698642,74.5500030517578
276.9854892,77.1600036621094
277.0011142,79.879997253418
277.0167392,82.7699966430664
277.0323642,85.9300003051758
277.0479892,89.3499984741211
277.0636142,92.7900009155273
277.0792392,95.9100036621094
277.0948642,98.3899993896484
277.1104892,100.0
277.1261142,100.76000213623
277.1417392,100.860000610352
277.1573642,100.589996337891
277.1729892,100.169998168945
277.1886142,99.6600036621094
277.2042392,98.9300003051758
277.2198642,97.8399963378906
277.2354892,96.4300003051758
277.2511142,94.879997253418
277.2667392,93.4000015258789
277.2823642,92.0800018310547
277.2979892,90.879997253418
277.3136142,89.5800018310547
277.3292392,87.879997253418
277.3448642,85.5299987792969
277.3604892,82.4700012207031
277.3761142,78.8000030517578
277.3917392,74.5599975585938
277.4073642,69.7900009155273
277.4229892,64.629997253418
277.4386142,59.4700012207031
277.4542392,54.9099998474121
277.4698642,51.310001373291
277.4854892,48.5200004577637
277.5011142,46.0400009155273
277.5167392,43.560001373291
277.5323642,41.1199989318848
277.5479892,38.9199981689453
277.5636142,37.0900001525879
277.5792392,35.6399993896484
277.5948642,34.6599998474121
277.6104892,34.4599990844727
277.6261142,35.3600006103516
277.6417392,37.4000015258789
277.6573642,40.3899993896484
277.6729892,44.1199989318848
277.6886142,48.4000015258789
277.7042392,53.0200004577637
277.7198642,57.6100006103516
277.7354892,61.7700004577637
277.7511142,65.2200012207031
277.7667392,67.9300003051758
277.7823642,70.0
277.7979892,71.3399963378906
277.8136142,71.8000030517578
277.8292392,71.3099975585938
277.8448642,70.0500030517578
277.8604892,68.3300018310547
277.8761142,66.3499984741211
277.8917392,64.1399993896484
277.9073642,61.5699996948242
277.9229892,58.5800018310547
277.9386142,55.1500015258789
277.9542392,51.3199996948242
277.9698642,47.1500015258789
277.9854892,42.7400016784668
278.0011142,38.2599983215332
278.0167392,33.9099998474121
278.0323642,29.75
278.0479892,25.6599998474121
278.0636142,21.4799995422363
278.0792392,17.2199993133545
278.0948642,13.0600004196167
278.1104892,9.1899995803833
278.1261142,5.69000005722046
278.1417392,2.5
278.1573642,-0.600000023841858
278.1729892,-3.91000008583069
278.1886142,-7.65999984741211
278.2042392,-11.8800001144409
278.2198642,-16.4799995422363
278.2354892,-21.3299999237061
278.2511142,-26.3500003814697
278.2667392,-31.4099998474121
278.2823642,-36.189998626709
278.2979892,-40.1500015258789
278.3136142,-42.6599998474121
278.3292392,-43.1800003051758
278.3448642,-41.5900001525879
278.3604892,-38.2000007629395
278.3761142,-33.6500015258789
278.3917392,-28.7199993133545
278.4073642,-24.0100002288818
278.4229892,-19.8500003814697
278.4386142,-16.2299995422363
278.4542392,-12.9399995803833
278.4698642,-9.75
278.4854892,-6.53999996185303
278.5011142,-3.30999994277954
278.5167392,-0.140000000596046
278.5323642,2.88000011444092
278.5479892,5.65000009536743
278.5636142,7.8600001335144
278.5792392,8.97000026702881
278.5948642,8.46000003814697
278.6104892,6.21000003814697
278.6261142,2.53999996185303
278.6417392,-1.91999995708466
278.6573642,-6.57999992370605
278.6729892,-11.0200004577637
278.6886142,-15.0699996948242
278.7042392,-18.7999992370605
278.7198642,-22.4400005340576
278.7354892,-26.3600006103516
278.7511142,-30.8600006103516
278.7667392,-35.9700012207031
278.7823642,-41.5999984741211
278.7979892,-47.6800003051758
278.8136142,-54.1800003051758
278.8292392,-60.939998626709
278.8448642,-67.5500030517578
278.8604892,-73.3899993896484
278.8761142,-78.0599975585938
278.8917392,-81.75
278.9073642,-84.9000015258789
278.9229892,-87.7900009155273
278.9386142,-90.3499984741211
278.9542392,-92.370002746582
278.9698642,-93.7699966430664
278.9854892,-94.6100006103516
279.0011142,-94.9400024414063
279.0167392,-94.6600036621094
279.0323642,-93.629997253418
279.0479892,-91.8199996948242
279.0636142,-89.370002746582
279.0792392,-86.4599990844727
279.0948642,-83.2399978637695
279.1104892,-79.8600006103516
279.1261142,-76.4199981689453
279.1417392,-72.9800033569336
279.1573642,-69.5899963378906
279.1729892,-66.379997253418
279.1886142,-63.5
279.2042392,-61.1599998474121
279.2198642,-59.5099983215332
279.2354892,-58.6800003051758
279.2511142,-58.6300010681152
279.2667392,-59.1300010681152
279.2823642,-59.8400001525879
279.2979892,-60.4000015258789
279.3136142,-60.6800003051758
279.3292392,-60.8199996948242
279.3448642,-61.0400009155273
279.3604892,-61.3699989318848
279.3761142,-61.5999984741211
279.3917392,-61.5
279.4073642,-60.9799995422363
279.4229892,-60.1399993896484
279.4386142,-59.2200012207031
279.4542392,-58.5800018310547
279.4698642,-58.4700012207031
279.4854892,-58.9500007629395
279.5011142,-59.9599990844727
279.5167392,-61.4900016784668
279.5323642,-63.5400009155273
279.5479892,-65.9899978637695
279.5636142,-68.3899993896484
279.5792392,-70.0599975585938
279.5948642,-70.5
279.6104892,-69.7600021362305
279.6261142,-68.2600021362305
279.6417392,-66.379997253418
279.6573642,-64.1800003051758
279.6729892,-61.6399993896484
279.6886142,-58.7599983215332
279.7042392,-55.6199989318848
279.7198642,-52.1599998474121
279.7354892,-48.1100006103516
