Time(s),Value(%)
1106.010146,-44.7000007629395
1106.025771,-43.4599990844727
1106.041396,-41.9900016784668
1106.057021,-40.4199981689453
1106.072646,-38.7700004577637
1106.088271,-36.8400001525879
1106.103896,-34.1199989318848
1106.119521,-29.6800003051758
1106.135146,-22.5
1106.150771,-12.0200004577637
1106.166396,1.37999999523163
1106.182021,16.5799999237061
1106.197646,32.2000007629395
1106.213271,46.8499984741211
1106.228896,59.2200012207031
1106.244521,68.4499969482422
1106.260146,74.3300018310547
1106.275771,77.25
1106.291396,77.7799987792969
1106.307021,76.3099975585938
1106.322646,72.8899993896484
1106.338271,67.4899978637695
1106.353896,60.4000015258789
1106.369521,52.2200012207031
1106.385146,43.5699996948242
1106.400771,34.9799995422363
1106.416396,26.7199993133545
1106.432021,18.8999996185303
1106.447646,11.5100002288818
1106.463271,4.57000017166138
1106.478896,-1.86000001430511
1106.494521,-7.82000017166138
1106.510146,-13.4200000762939
1106.525771,-18.7700004577637
1106.541396,-23.8400001525879
1106.557021,-28.5699996948242
1106.572646,-32.9900016784668
1106.588271,-37.0900001525879
1106.603896,-40.8600006103516
1106.619521,-44.189998626709
1106.635146,-46.9000015258789
1106.650771,-48.8800010681152
1106.666396,-50.189998626709
1106.682021,-50.9599990844727
1106.697646,-51.3499984741211
1106.713271,-51.5499992370605
1106.728896,-51.6100006103516
1106.744521,-51.3400001525879
1106.760146,-50.5400009155273
1106.775771,-49.1599998474121
1106.791396,-47.3800010681152
1106.807021,-45.4099998474121
1106.822646,-43.4099998474121
1106.838271,-41.4000015258789
1106.853896,-39.3600006103516
1106.869521,-37.1500015258789
1106.885146,-34.2599983215332
1106.900771,-29.75
1106.916396,-22.5100002288818
1106.932021,-11.7799997329712
1106.947646,2.53999996185303
1106.963271,19.8500003814697
1106.978896,38.7700004577637
1106.994521,57.2599983215332
1107.010146,73.379997253418
1107.025771,86.0299987792969
1107.041396,95.0800018310547
1107.057021,101.0
1107.072646,104.300003051758
1107.088271,105.360000610352
1107.103896,104.389999389648
1107.119521,101.339996337891
1107.135146,95.9300003051758
1107.150771,87.8600006103516
1107.166396,77.2399978637695
1107.182021,64.7699966430664
1107.197646,51.4300003051758
1107.213271,38.1500015258789
1107.228896,25.5799999237061
1107.244521,14.1099996566772
1107.260146,3.89000010490417
1107.275771,-5.15000009536743
1107.291396,-13.2600002288818
1107.307021,-20.7700004577637
1107.322646,-27.9400005340576
1107.338271,-34.8899993896484
1107.353896,-41.560001373291
1107.369521,-47.7700004577637
1107.385146,-53.3199996948242
1107.400771,-58.0400009155273
1107.416396,-61.9000015258789
1107.432021,-64.9100036621094
1107.447646,-67.1699981689453
1107.463271,-68.8099975585938
1107.478896,-69.9499969482422
1107.494521,-70.5999984741211
1107.510146,-70.6600036621094
1107.525771,-70.0599975585938
1107.541396,-68.75
1107.557021,-66.7900009155273
1107.572646,-64.3600006103516
1107.588271,-61.75
1107.603896,-59.1699981689453
1107.619521,-56.6599998474121
1107.635146,-53.9599990844727
1107.650771,-50.7599983215332
1107.666396,-46.7200012207031
1107.682021,-41.4500007629395
1107.697646,-34.2099990844727
1107.713271,-23.9099998474121
1107.728896,-9.82999992370605
1107.744521,7.63000011444092
1107.760146,27.0
1107.775771,46.2999992370605
1107.791396,63.7099990844727
1107.807021,78.0500030517578
1107.822646,88.9300003051758
1107.838271,96.6399993896484
1107.853896,101.779998779297
1107.869521,104.830001831055
1107.885146,105.75
1107.900771,104.160003662109
1107.916396,99.6999969482422
1107.932021,92.3499984741211
1107.947646,82.4800033569336
1107.963271,70.75
1107.978896,57.9099998474121
1107.994521,44.810001373291
1108.010146,32.2999992370605
1108.025771,20.9899997711182
1108.041396,11.1099996566772
1108.057021,2.52999997138977
1108.072646,-5.07999992370605
1108.088271,-12.1499996185303
1108.103896,-18.9500007629395
1108.119521,-25.5699996948242
1108.135146,-31.8799991607666
1108.150771,-37.5999984741211
1108.166396,-42.4599990844727
1108.182021,-46.3800010681152
1108.197646,-49.5099983215332
1108.213271,-52.1699981689453
1108.228896,-54.5800018310547
1108.244521,-56.7099990844727
1108.260146,-58.2799987792969
1108.275771,-59.0200004577637
1108.291396,-58.8199996948242
1108.307021,-57.75
1108.322646,-56.0800018310547
1108.338271,-54.2400016784668
1108.353896,-52.5699996948242
1108.369521,-51.1699981689453
1108.385146,-49.8300018310547
1108.400771,-48.2200012207031
1108.416396,-46.0499992370605
1108.432021,-43.2900009155273
1108.447646,-40.0999984741211
1108.463271,-36.5099983215332
1108.478896,-32.1300010681152
1108.494521,-25.8799991607666
1108.510146,-16.4899997711182
1108.525771,-3.25999999046326
1108.541396,13.3900003433228
1108.557021,32.0099983215332
1108.572646,50.5699996948242
1108.588271,67.3099975585938
1108.603896,81.3300018310547
1108.619521,92.4800033569336
1108.635146,100.699996948242
1108.650771,105.819999694824
1108.666396,107.779998779297
1108.682021,106.650001525879
1108.697646,102.599998474121
1108.713271,95.870002746582
1108.728896,86.7600021362305
1108.744521,75.7099990844727
1108.760146,63.3300018310547
1108.775771,50.3800010681152
1108.791396,37.6699981689453
1108.807021,25.8199996948242
1108.822646,15.1499996185303
1108.838271,5.69999980926514
1108.853896,-2.76999998092651
1108.869521,-10.6000003814697
1108.885146,-17.8700008392334
1108.900771,-24.4599990844727
1108.916396,-30.3099994659424
1108.932021,-35.5099983215332
1108.947646,-40.2000007629395
1108.963271,-44.4700012207031
1108.978896,-48.2999992370605
1108.994521,-51.560001373291
1109.010146,-54.0699996948242
1109.025771,-55.7000007629395
1109.041396,-56.5
1109.057021,-56.6500015258789
1109.072646,-56.310001373291
1109.088271,-55.5900001525879
1109.103896,-54.4199981689453
1109.119521,-52.7599983215332
1109.135146,-50.7000007629395
1109.150771,-48.5
1109.166396,-46.4000015258789
1109.182021,-44.5299987792969
1109.197646,-42.9199981689453
1109.213271,-41.5
1109.228896,-40.0900001525879
1109.244521,-38.4300003051758
1109.260146,-36.1300010681152
1109.275771,-32.8199996948242
1109.291396,-27.9599990844727
1109.307021,-20.7800006866455
1109.322646,-10.5200004577637
1109.338271,3.16000008583069
1109.353896,19.8899993896484
1109.369521,38.6199989318848
1109.385146,57.6500015258789
1109.400771,74.9400024414063
1109.416396,88.75
1109.432021,98.2699966430664
1109.447646,103.599998474121
1109.463271,105.379997253418
1109.478896,104.449996948242
1109.494521,101.309997558594
1109.510146,95.9000015258789
1109.525771,87.9100036621094
1109.541396,77.3399963378906
1109.557021,64.7399978637695
1109.572646,51.060001373291
1109.588271,37.3699989318848
1109.603896,24.7299995422363
1109.619521,13.789999961853
1109.635146,4.57000017166138
1109.650771,-3.4300000667572
1109.666396,-10.7200002670288
1109.682021,-17.5200004577637
1109.697646,-23.8700008392334
1109.713271,-29.7800006866455
1109.728896,-35.3199996948242
1109.744521,-40.560001373291
1109.760146,-45.4799995422363
1109.775771,-49.8800010681152
1109.791396,-53.4900016784668
1109.807021,-56.189998626709
1109.822646,-58.0499992370605
1109.838271,-59.2999992370605
1109.853896,-60.1500015258789
1109.869521,-60.6800003051758
1109.885146,-60.9500007629395
1109.900771,-61.0099983215332
1109.916396,-60.7299995422363
1109.932021,-59.9099998474121
1109.947646,-58.439998626709
1109.963271,-56.2900009155273
1109.978896,-53.5999984741211
1109.994521,-50.6699981689453
1110.010146,-47.8600006103516
1110.025771,-45.3300018310547
1110.041396,-42.9599990844727
1110.057021,-40.4700012207031
1110.072646,-37.6399993896484
1110.088271,-34.3499984741211
1110.103896,-30.3099994659424
1110.119521,-24.7999992370605
1110.135146,-16.6200008392334
1110.150771,-4.59000015258789
1110.166396,11.6599998474121
1110.182021,31.3099994659424
1110.197646,52.5099983215332
1110.213271,73.1100006103516
1110.228896,91.4599990844727
1110.244521,106.809997558594
1110.260146,118.930000305176
1110.275771,127.400001525879
1110.291396,131.669998168945
1110.307021,131.649993896484
1110.322646,127.680000305176
1110.338271,120.349998474121
1110.353896,110.160003662109
1110.369521,97.4899978637695
1110.385146,82.6600036621094
1110.400771,66.1999969482422
1110.416396,48.9900016784668
1110.432021,32.1399993896484
1110.447646,16.6100006103516
1110.463271,2.97000002861023
1110.478896,-8.68000030517578
1110.494521,-18.7000007629395
1110.510146,-27.6000003814697
1110.525771,-35.689998626709
1110.541396,-42.9900016784668
1110.557021,-49.4300003051758
1110.572646,-54.939998626709
1110.588271,-59.5999984741211
1110.603896,-63.4799995422363
1110.619521,-66.7099990844727
1110.635146,-69.5199966430664
1110.650771,-72.120002746582
1110.666396,-74.3899993896484
1110.682021,-76.0199966430664
1110.697646,-76.8000030517578
1110.713271,-76.7200012207031
1110.728896,-75.9400024414063
1110.744521,-74.6999969482422
1110.760146,-73.1500015258789
1110.775771,-71.1900024414063
1110.791396,-68.620002746582
1110.807021,-65.370002746582
1110.822646,-61.6199989318848
1110.838271,-57.689998626709
1110.853896,-53.8199996948242
1110.869521,-50.1300010681152
1110.885146,-46.6800003051758
1110.900771,-43.4700012207031
1110.916396,-40.25
1110.932021,-36.6399993896484
1110.947646,-32.2599983215332
1110.963271,-26.7700004577637
1110.978896,-19.3500003814697
1110.994521,-8.57999992370605
1111.010146,6.76000022888184
1111.025771,26.5300006866455
1111.041396,49.0499992370605
1111.057021,71.8099975585938
1111.072646,92.5
1111.088271,109.629997253418
1111.103896,122.610000610352
1111.119521,131.490005493164
1111.135146,136.729995727539
1111.150771,138.770004272461
1111.166396,137.610000610352
1111.182021,132.979995727539
1111.197646,124.690002441406
1111.213271,112.940002441406
1111.228896,98.370002746582
1111.244521,81.8000030517578
1111.260146,64.1800003051758
1111.275771,46.5999984741211
1111.291396,30.1200008392334
1111.307021,15.4700002670288
1111.322646,2.92000007629395
1111.338271,-7.67000007629395
1111.353896,-16.6900005340576
1111.369521,-24.6000003814697
1111.385146,-31.8199996948242
1111.400771,-38.6100006103516
1111.416396,-44.9300003051758
1111.432021,-50.5999984741211
1111.447646,-55.4700012207031
1111.463271,-59.4900016784668
1111.478896,-62.7299995422363
1111.494521,-65.2699966430664
1111.510146,-67.2399978637695
1111.525771,-68.7699966430664
1111.541396,-69.879997253418
1111.557021,-70.5299987792969
1111.572646,-70.5699996948242
1111.588271,-69.9100036621094
1111.603896,-68.5500030517578
1111.619521,-66.6500015258789
1111.635146,-64.4800033569336
1111.650771,-62.2299995422363
1111.666396,-59.8199996948242
1111.682021,-57.0299987792969
1111.697646,-53.7000007629395
1111.713271,-49.939998626709
1111.728896,-46.0200004577637
1111.744521,-42.2599983215332
1111.760146,-38.7799987792969
1111.775771,-35.5
1111.791396,-32.1599998474121
1111.807021,-28.4799995422363
1111.822646,-24.1399993896484
1111.838271,-18.6000003814697
1111.853896,-11.0100002288818
1111.869521,-0.129999995231628
1111.885146,15.1999998092651
1111.900771,35.0699996948242
1111.916396,57.7200012207031
1111.932021,80.2600021362305
1111.947646,100.069999694824
1111.963271,115.629997253418
1111.978896,126.690002441406
1111.994521,133.889999389648
1112.010146,137.960006713867
1112.025771,139.009994506836
1112.041396,136.679992675781
1112.057021,130.75
1112.072646,121.349998474121
1112.088271,108.889999389648
1112.103896,93.9800033569336
1112.119521,77.4599990844727
1112.135146,60.25
1112.150771,43.2900009155273
1112.166396,27.5100002288818
1112.182021,13.5699996948242
1112.197646,1.62000000476837
1112.213271,-8.60000038146973
1112.228896,-17.5599994659424
1112.244521,-25.7199993133545
1112.260146,-33.3699989318848
1112.275771,-40.5299987792969
1112.291396,-47.060001373291
1112.307021,-52.7999992370605
1112.322646,-57.6800003051758
1112.338271,-61.7200012207031
1112.353896,-65.0299987792969
1112.369521,-67.7200012207031
1112.385146,-69.9700012207031
1112.400771,-71.8300018310547
1112.416396,-73.1900024414063
1112.432021,-73.9100036621094
1112.447646,-73.9400024414063
1112.463271,-73.3099975585938
1112.478896,-72.0599975585938
1112.494521,-70.3300018310547
1112.510146,-68.3000030517578
1112.525771,-65.9800033569336
1112.541396,-63.3199996948242
1112.557021,-60.2999992370605
1112.572646,-56.9599990844727
1112.588271,-53.3899993896484
1112.603896,-49.7099990844727
1112.619521,-45.9900016784668
1112.635146,-42.0999984741211
1112.650771,-37.8400001525879
1112.666396,-33.189998626709
1112.682021,-28.4500007629395
1112.697646,-23.9699993133545
1112.713271,-19.8199996948242
1112.728896,-15.5600004196167
1112.744521,-9.97999954223633
1112.760146,-1.20000004768372
1112.775771,12.2200002670288
1112.791396,30.1800003051758
1112.807021,50.9000015258789
1112.822646,71.75
1112.838271,90.3300018310547
1112.853896,105.190002441406
1112.869521,115.900001525879
1112.885146,122.790000915527
1112.900771,126.569999694824
1112.916396,127.809997558594
1112.932021,126.449996948242
1112.947646,122.069999694824
1112.963271,114.419998168945
1112.978896,103.569999694824
1112.994521,90.0100021362305
1113.010146,74.5699996948242
1113.025771,58.4000015258789
1113.041396,42.7299995422363
1113.057021,28.4500007629395
1113.072646,15.9499998092651
1113.088271,5.09999990463257
1113.103896,-4.48000001907349
1113.119521,-13.1000003814697
1113.135146,-20.6800003051758
1113.150771,-27.1200008392334
1113.166396,-32.689998626709
1113.182021,-37.8899993896484
1113.197646,-43.060001373291
1113.213271,-48.1800003051758
1113.228896,-53.0299987792969
1113.244521,-57.2900009155273
1113.260146,-60.7799987792969
1113.275771,-63.5900001525879
1113.291396,-65.9100036621094
1113.307021,-67.7699966430664
1113.322646,-69.0400009155273
1113.338271,-69.5800018310547
1113.353896,-69.3399963378906
1113.369521,-68.370002746582
1113.385146,-66.8000030517578
1113.400771,-64.8300018310547
1113.416396,-62.7299995422363
1113.432021,-60.6199989318848
1113.447646,-58.3899993896484
1113.463271,-55.8400001525879
1113.478896,-52.8400001525879
1113.494521,-49.4799995422363
1113.510146,-45.9300003051758
1113.525771,-42.4199981689453
1113.541396,-39.1399993896484
1113.557021,-36.1500015258789
1113.572646,-33.3199996948242
1113.588271,-30.3799991607666
1113.603896,-26.9699993133545
1113.619521,-22.7000007629395
1113.635146,-17.0200004577637
1113.650771,-8.97000026702881
1113.666396,2.67000007629395
1113.682021,18.5200004577637
1113.697646,37.7000007629395
1113.713271,58.0400009155273
1113.728896,76.9700012207031
1113.744521,92.5
1113.760146,103.870002746582
1113.775771,111.480003356934
1113.791396,116.150001525879
1113.807021,118.339996337891
1113.822646,118.080001831055
1113.838271,115.150001525879
1113.853896,109.440002441406
1113.869521,101.059997558594
1113.885146,90.3600006103516
1113.900771,77.9800033569336
1113.916396,64.7200012207031
1113.932021,51.3800010681152
1113.947646,38.7799987792969
1113.963271,27.4799995422363
1113.978896,17.6399993896484
1113.994521,9.07999992370605
1114.010146,1.57000005245209
1114.025771,-5.13000011444092
1114.041396,-11.25
1114.057021,-16.8400001525879
1114.072646,-21.7800006866455
1114.088271,-25.9599990844727
1114.103896,-29.4200000762939
1114.119521,-32.3800010681152
1114.135146,-35.1300010681152
1114.150771,-37.8199996948242
1114.166396,-40.4799995422363
1114.182021,-43.060001373291
1114.197646,-45.4500007629395
1114.213271,-47.5099983215332
1114.228896,-49.1500015258789
1114.244521,-50.3499984741211
1114.260146,-51.1699981689453
1114.275771,-51.6699981689453
1114.291396,-51.8300018310547
1114.307021,-51.6199989318848
1114.322646,-51.0
1114.338271,-49.9099998474121
1114.353896,-48.310001373291
1114.369521,-46.2700004577637
1114.385146,-44.0400009155273
1114.400771,-41.9000015258789
1114.416396,-39.9000015258789
1114.432021,-37.8400001525879
1114.447646,-35.3400001525879
1114.463271,-32.0299987792969
1114.478896,-27.7900009155273
1114.494521,-22.6399993896484
1114.510146,-16.4099998474121
1114.525771,-8.5
1114.541396,1.73000001907349
1114.557021,14.3100004196167
1114.572646,28.2399997711182
1114.588271,41.8699989318848
1114.603896,53.6500015258789
1114.619521,62.810001373291
1114.635146,69.4199981689453
1114.650771,73.9599990844727
1114.666396,76.9899978637695
1114.682021,78.7399978637695
1114.697646,79.0199966430664
1114.713271,77.5800018310547
1114.728896,74.379997253418
1114.744521,69.4599990844727
1114.760146,62.6800003051758
1114.775771,53.6699981689453
1114.791396,42.2200012207031
1114.807021,28.6200008392334
1114.822646,13.8000001907349
1114.838271,-0.879999995231628
1114.853896,-14.2600002288818
1114.869521,-25.75
1114.885146,-35.4000015258789
1114.900771,-43.7400016784668
1114.916396,-51.5499992370605
1114.932021,-59.3600006103516
1114.947646,-67.0299987792969
1114.963271,-73.8899993896484
1114.978896,-79.2699966430664
1114.994521,-82.9100036621094
1115.010146,-84.9800033569336
1115.025771,-85.8899993896484
1115.041396,-85.9300003051758
1115.057021,-85.0500030517578
1115.072646,-83.1100006103516
1115.088271,-80.129997253418
1115.103896,-76.3000030517578
1115.119521,-71.9400024414063
1115.135146,-67.25
1115.150771,-62.2999992370605
1115.166396,-57.2000007629395
1115.182021,-52.0499992370605
1115.197646,-46.689998626709
1115.213271,-40.7700004577637
1115.228896,-34.0900001525879
1115.244521,-26.7600002288818
1115.260146,-19.1200008392334
1115.275771,-11.5900001525879
1115.291396,-4.48999977111816
1115.307021,2.21000003814697
1115.322646,9.07999992370605
1115.338271,16.9599990844727
1115.353896,26.5900001525879
1115.369521,38.3300018310547
1115.385146,51.9000015258789
1115.400771,66.4700012207031
1115.416396,80.9800033569336
1115.432021,94.4499969482422
1115.447646,106.029998779297
1115.463271,115.110000610352
1115.478896,121.470001220703
1115.494521,125.230003356934
1115.510146,126.639999389648
1115.525771,125.930000305176
1115.541396,123.220001220703
1115.557021,118.410003662109
1115.572646,111.449996948242
1115.588271,102.580001831055
1115.603896,92.4400024414063
1115.619521,81.7900009155273
1115.635146,71.2099990844727
1115.650771,60.9799995422363
1115.666396,51.1199989318848
1115.682021,41.4799995422363
1115.697646,32.0499992370605
1115.713271,22.9500007629395
1115.728896,14.3800001144409
1115.744521,6.46999979019165
1115.760146,-0.810000002384186
1115.775771,-7.6100001335144
1115.791396,-14.0799999237061
1115.807021,-20.2999992370605
1115.822646,-26.1900005340576
1115.838271,-31.6000003814697
1115.853896,-36.3600006103516
1115.869521,-40.3600006103516
1115.885146,-43.6300010681152
1115.900771,-46.2999992370605
1115.916396,-48.4500007629395
1115.932021,-50.0
1115.947646,-50.939998626709
1115.963271,-51.5
1115.978896,-52.0099983215332
1115.994521,-52.6199989318848
1116.010146,-53.2200012207031
1116.025771,-53.6199989318848
1116.041396,-53.6599998474121
1116.057021,-53.2599983215332
1116.072646,-52.3499984741211
1116.088271,-50.6699981689453
1116.103896,-47.75
1116.119521,-42.9199981689453
1116.135146,-35.6599998474121
1116.150771,-25.9799995422363
1116.166396,-14.3800001144409
1116.182021,-1.64999997615814
1116.197646,11.1499996185303
1116.213271,22.8099994659424
1116.228896,32.25
1116.244521,38.9599990844727
1116.260146,42.9900016784668
1116.275771,44.7999992370605
1116.291396,45.0099983215332
1116.307021,44.0099983215332
1116.322646,41.7799987792969
1116.338271,38.0499992370605
1116.353896,32.6500015258789
1116.369521,25.7600002288818
1116.385146,17.9400005340576
1116.400771,9.94999980926514
1116.416396,2.48000001907349
1116.432021,-4.07999992370605
1116.447646,-9.75
1116.463271,-14.8000001907349
1116.478896,-19.4400005340576
1116.494521,-23.75
1116.510146,-27.7299995422363
1116.525771,-31.3899993896484
1116.541396,-34.7599983215332
1116.557021,-37.8699989318848
1116.572646,-40.7999992370605
1116.588271,-43.5
1116.603896,-45.8400001525879
1116.619521,-47.7000007629395
1116.635146,-49.0099983215332
1116.650771,-49.7599983215332
1116.666396,-50.0499992370605
1116.682021,-50.0299987792969
1116.697646,-49.8699989318848
1116.713271,-49.5699996948242
1116.728896,-49.0
1116.744521,-48.0499992370605
1116.760146,-46.7000007629395
