Time(s),Value(%)
1338.0093332,187.070007324219
1338.0249582,202.440002441406
1338.0405832,214.440002441406
1338.0562082,223.860000610352
1338.0718332,229.729995727539
1338.0874582,231.259994506836
1338.1030832,228.740005493164
1338.1187082,222.559997558594
1338.1343332,212.169998168945
1338.1499582,196.160003662109
1338.1655832,173.009994506836
1338.1812082,142.080001831055
1338.1968332,104.540000915527
1338.2124582,63.4500007629395
1338.2280832,22.6599998474121
1338.2437082,-14.6300001144409
1338.2593332,-46.8499984741211
1338.2749582,-74.1100006103516
1338.2905832,-97.5699996948242
1338.3062082,-118.629997253418
1338.3218332,-138.520004272461
1338.3374582,-157.589996337891
1338.3530832,-175.009994506836
1338.3687082,-189.410003662109
1338.3843332,-199.860000610352
1338.3999582,-206.350006103516
1338.4155832,-209.660003662109
1338.4312082,-210.899993896484
1338.4468332,-210.899993896484
1338.4624582,-209.720001220703
1338.4780832,-206.889999389648
1338.4937082,-202.020004272461
1338.5093332,-195.110000610352
1338.5249582,-186.559997558594
1338.5405832,-176.699996948242
1338.5562082,-165.460006713867
1338.5718332,-152.729995727539
1338.5874582,-139.300003051758
1338.6030832,-126.430000305176
1338.6187082,-114.860000610352
1338.6343332,-104.389999389648
1338.6499582,-94.4100036621094
1338.6655832,-84.3000030517578
1338.6812082,-73.3300018310547
1338.6968332,-60.1300010681152
1338.7124582,-42.2099990844727
1338.7280832,-16.5599994659424
1338.7437082,18.2700004577637
1338.7593332,60.4199981689453
1338.7749582,105.160003662109
1338.7905832,147.020004272461
1338.8062082,182.0
1338.8218332,208.75
1338.8374582,228.460006713867
1338.8530832,243.149993896484
1338.8687082,253.809997558594
1338.8843332,260.119995117188
1338.8999582,261.160003662109
1338.9155832,256.070007324219
1338.9312082,244.289993286133
1338.9468332,225.559997558594
1338.9624582,200.149993896484
1338.9780832,169.149993896484
1338.9937082,134.639999389648
1339.0093332,99.4599990844727
1339.0249582,66.3399963378906
1339.0405832,37.2000007629395
1339.0562082,12.8199996948242
1339.0718332,-7.19999980926514
1339.0874582,-24.1700000762939
1339.1030832,-39.4599990844727
1339.1187082,-53.7200012207031
1339.1343332,-66.8099975585938
1339.1499582,-78.3300018310547
1339.1655832,-88.0
1339.1812082,-95.9599990844727
1339.1968332,-102.639999389648
1339.2124582,-108.459999084473
1339.2280832,-113.389999389648
1339.2437082,-117.059997558594
1339.2593332,-119.059997558594
1339.2749582,-119.180000305176
1339.2905832,-117.529998779297
1339.3062082,-114.48999786377
1339.3218332,-110.519996643066
1339.3374582,-106.040000915527
1339.3530832,-101.319999694824
1339.3687082,-96.3199996948242
1339.3843332,-90.9100036621094
1339.3999582,-85.1500015258789
1339.4155832,-79.1500015258789
1339.4312082,-72.9400024414063
1339.4468332,-66.3499984741211
1339.4624582,-58.2900009155273
1339.4780832,-45.8499984741211
1339.4937082,-25.2099990844727
1339.5093332,5.69999980926514
1339.5249582,45.2099990844727
1339.5405832,88.5199966430664
1339.5562082,129.940002441406
1339.5718332,165.449996948242
1339.5874582,193.940002441406
1339.6030832,216.360000610352
1339.6187082,233.830001831055
1339.6343332,246.880004882813
1339.6499582,255.520004272461
1339.6655832,259.470001220703
1339.6812082,258.309997558594
1339.6968332,251.639999389648
1339.7124582,238.910003662109
1339.7280832,219.309997558594
1339.7437082,192.259994506836
1339.7593332,158.369995117188
1339.7749582,119.709999084473
1339.7905832,79.4700012207031
1339.8062082,40.9799995422363
1339.8218332,6.65000009536743
1339.8374582,-22.6200008392334
1339.8530832,-47.2900009155273
1339.8687082,-68.3499984741211
1339.8843332,-86.8199996948242
1339.8999582,-103.410003662109
1339.9155832,-118.400001525879
1339.9312082,-131.880004882813
1339.9468332,-144.059997558594
1339.9624582,-155.130004882813
1339.9780832,-164.990005493164
1339.9937082,-173.309997558594
1340.0093332,-179.770004272461
1340.0249582,-184.279998779297
1340.0405832,-186.990005493164
1340.0562082,-188.160003662109
1340.0718332,-188.0
1340.0874582,-186.770004272461
1340.1030832,-184.580001831055
1340.1187082,-181.229995727539
1340.1343332,-176.460006713867
1340.1499582,-170.199996948242
1340.1655832,-162.639999389648
1340.1812082,-154.289993286133
1340.1968332,-145.740005493164
1340.2124582,-137.229995727539
1340.2280832,-128.029998779297
1340.2437082,-116.180000305176
1340.2593332,-98.6100006103516
1340.2749582,-72.3600006103516
1340.2905832,-36.5999984741211
1340.3062082,6.26000022888184
1340.3218332,51.7200012207031
1340.3374582,95.3199996948242
1340.3530832,133.869995117188
1340.3687082,165.539993286133
1340.3843332,189.899993896484
1340.3999582,207.639999389648
1340.4155832,219.940002441406
1340.4312082,227.800003051758
1340.4468332,231.710006713867
1340.4624582,231.289993286133
1340.4780832,225.210006713867
1340.4937082,211.949996948242
1340.5093332,190.809997558594
1340.5249582,162.440002441406
1340.5405832,128.839996337891
1340.5562082,93.0100021362305
1340.5718332,58.0800018310547
1340.5874582,26.2800006866455
1340.6030832,-1.28999996185303
1340.6187082,-24.3299999237061
1340.6343332,-43.0900001525879
1340.6499582,-58.310001373291
1340.6655832,-70.9599990844727
1340.6812082,-81.9100036621094
1340.6968332,-91.879997253418
1340.7124582,-101.160003662109
1340.7280832,-109.5
1340.7437082,-116.379997253418
1340.7593332,-121.339996337891
1340.7749582,-124.290000915527
1340.7905832,-125.440002441406
1340.8062082,-125.129997253418
1340.8218332,-123.699996948242
1340.8374582,-121.540000915527
1340.8530832,-118.860000610352
1340.8687082,-115.480003356934
1340.8843332,-111.0
1340.8999582,-105.23999786377
1340.9155832,-98.4499969482422
1340.9312082,-91.2200012207031
1340.9468332,-84.25
1340.9624582,-77.8899993896484
1340.9780832,-71.879997253418
1340.9937082,-65.4199981689453
1341.0093332,-57.4300003051758
1341.0249582,-46.3600006103516
1341.0405832,-29.7299995422363
1341.0562082,-4.90999984741211
1341.0718332,29.0
1341.0874582,70.1600036621094
1341.1030832,114.080001831055
1341.1187082,155.029998779297
1341.1343332,188.389999389648
1341.1499582,212.289993286133
1341.1655832,227.460006713867
1341.1812082,236.240005493164
1341.1968332,241.240005493164
1341.2124582,243.940002441406
1341.2280832,243.839996337891
1341.2437082,239.139999389648
1341.2593332,228.0
1341.2749582,209.449996948242
1341.2905832,183.860000610352
1341.3062082,152.839996337891
1341.3218332,118.75
1341.3374582,84.0100021362305
1341.3530832,50.7200012207031
1341.3687082,20.6900005340576
1341.3843332,-4.86999988555908
1341.3999582,-25.7999992370605
1341.4155832,-42.8899993896484
1341.4312082,-57.4599990844727
1341.4468332,-70.8399963378906
1341.4624582,-83.7399978637695
1341.4780832,-96.0299987792969
1341.4937082,-107.120002746582
1341.5093332,-116.459999084473
1341.5249582,-123.889999389648
1341.5405832,-129.639999389648
1341.5562082,-134.119995117188
1341.5718332,-137.490005493164
1341.5874582,-139.369995117188
1341.6030832,-139.229995727539
1341.6187082,-137.059997558594
1341.6343332,-133.610000610352
1341.6499582,-129.699996948242
1341.6655832,-125.690002441406
1341.6812082,-121.51000213623
1341.6968332,-116.98999786377
1341.7124582,-112.190002441406
1341.7280832,-107.209999084473
1341.7437082,-102.01000213623
1341.7593332,-96.4499969482422
1341.7749582,-90.4400024414063
1341.7905832,-83.8499984741211
1341.8062082,-76.4100036621094
1341.8218332,-67.1399993896484
1341.8374582,-53.3300018310547
1341.8530832,-30.8999996185303
1341.8687082,2.46000003814697
1341.8843332,44.4900016784668
1341.8999582,89.0500030517578
1341.9155832,129.559997558594
1341.9312082,161.710006713867
1341.9468332,184.490005493164
1341.9624582,199.639999389648
1341.9780832,209.630004882813
1341.9937082,215.899993896484
1342.0093332,218.539993286133
1342.0249582,217.020004272461
1342.0405832,210.720001220703
1342.0562082,199.270004272461
1342.0718332,182.759994506836
1342.0874582,161.809997558594
1342.1030832,137.360000610352
1342.1187082,110.220001220703
1342.1343332,81.2200012207031
1342.1499582,51.7400016784668
1342.1655832,23.5900001525879
1342.1812082,-1.60000002384186
1342.1968332,-22.9799995422363
1342.2124582,-40.5
1342.2280832,-54.8199996948242
1342.2437082,-66.9199981689453
1342.2593332,-77.5699996948242
1342.2749582,-87.1500015258789
1342.2905832,-95.8199996948242
1342.3062082,-103.650001525879
1342.3218332,-110.690002441406
1342.3374582,-116.839996337891
1342.3530832,-122.080001831055
1342.3687082,-126.569999694824
1342.3843332,-130.399993896484
1342.3999582,-133.339996337891
1342.4155832,-135.009994506836
1342.4312082,-135.289993286133
1342.4468332,-134.289993286133
1342.4624582,-132.240005493164
1342.4780832,-129.449996948242
1342.4937082,-126.139999389648
1342.5093332,-122.129997253418
1342.5249582,-117.040000915527
1342.5405832,-110.629997253418
1342.5562082,-103.110000610352
1342.5718332,-94.9800033569336
1342.5874582,-86.6399993896484
1342.6030832,-77.25
1342.6187082,-63.9799995422363
1342.6343332,-42.9799995422363
1342.6499582,-12.2200002670288
1342.6655832,26.5799999237061
1342.6812082,68.4700012207031
1342.6968332,107.589996337891
1342.7124582,139.839996337891
1342.7280832,164.100006103516
1342.7437082,181.389999389648
1342.7593332,193.199996948242
1342.7749582,200.610000610352
1342.7905832,204.240005493164
1342.8062082,204.389999389648
1342.8218332,201.020004272461
1342.8374582,193.690002441406
1342.8530832,181.679992675781
1342.8687082,164.389999389648
1342.8843332,141.979995727539
1342.8999582,115.720001220703
1342.9155832,87.7799987792969
1342.9312082,60.6199989318848
1342.9468332,36.1599998474121
1342.9624582,15.2600002288818
1342.9780832,-2.40000009536743
1342.9937082,-17.7800006866455
1343.0093332,-31.7099990844727
1343.0249582,-44.6199989318848
1343.0405832,-56.5900001525879
1343.0562082,-67.5
1343.0718332,-77.2399978637695
1343.0874582,-85.8600006103516
1343.1030832,-93.5699996948242
1343.1187082,-100.709999084473
1343.1343332,-107.480003356934
1343.1499582,-113.769996643066
1343.1655832,-119.319999694824
1343.1812082,-123.809997558594
1343.1968332,-126.970001220703
1343.2124582,-128.830001831055
1343.2280832,-129.699996948242
1343.2437082,-129.860000610352
1343.2593332,-129.289993286133
1343.2749582,-127.830001831055
1343.2905832,-125.400001525879
1343.3062082,-122.019996643066
1343.3218332,-117.290000915527
1343.3374582,-109.970001220703
1343.3530832,-97.3899993896484
1343.3687082,-76.0699996948242
1343.3843332,-44.1599998474121
1343.3999582,-3.61999988555908
1343.4155832,40.3400001525879
1343.4312082,81.9199981689453
1343.4468332,117.040000915527
1343.4624582,144.729995727539
1343.4780832,166.789993286133
1343.4937082,185.610000610352
1343.5093332,201.850006103516
1343.5249582,214.220001220703
1343.5405832,220.809997558594
1343.5562082,220.220001220703
1343.5718332,211.899993896484
1343.5874582,195.889999389648
1343.6030832,172.619995117188
1343.6187082,142.830001831055
1343.6343332,108.050003051758
1343.6499582,70.879997253418
1343.6655832,34.439998626709
1343.6812082,1.41999995708466
1343.6968332,-26.7000007629395
1343.7124582,-50.0200004577637
1343.7280832,-69.8099975585938
1343.7437082,-87.5800018310547
1343.7593332,-104.089996337891
1343.7749582,-119.25
1343.7905832,-132.610000610352
1343.8062082,-143.770004272461
1343.8218332,-152.559997558594
1343.8374582,-159.029998779297
1343.8530832,-163.509994506836
1343.8687082,-166.550003051758
1343.8843332,-168.619995117188
1343.8999582,-169.740005493164
1343.9155832,-169.619995117188
1343.9312082,-168.070007324219
1343.9468332,-165.139999389648
1343.9624582,-161.210006713867
1343.9780832,-156.839996337891
1343.9937082,-152.339996337891
1344.0093332,-147.309997558594
1344.0249582,-141.059997558594
1344.0405832,-133.210006713867
1344.0562082,-123.699996948242
1344.0718332,-112.330001831055
1344.0874582,-97.9899978637695
1344.1030832,-78.1100006103516
1344.1187082,-49.4500007629395
1344.1343332,-10.6899995803833
1344.1499582,35.5900001525879
1344.1655832,83.9300003051758
1344.1812082,128.539993286133
1344.1968332,165.880004882813
1344.2124582,195.809997558594
1344.2280832,220.839996337891
1344.2437082,243.559997558594
1344.2593332,264.25
1344.2749582,281.040008544922
1344.2905832,291.339996337891
1344.3062082,293.070007324219
1344.3218332,285.149993896484
1344.3374582,267.510009765625
1344.3530832,240.800003051758
1344.3687082,206.179992675781
1344.3843332,165.729995727539
1344.3999582,122.5
1344.4155832,79.7799987792969
1344.4312082,40.1599998474121
1344.4468332,5.07999992370605
1344.4624582,-25.1399993896484
1344.4780832,-51.1300010681152
1344.4937082,-73.5
1344.5093332,-92.3399963378906
1344.5249582,-107.410003662109
1344.5405832,-118.800003051758
1344.5562082,-126.970001220703
1344.5718332,-132.619995117188
1344.5874582,-136.429992675781
1344.6030832,-138.869995117188
1344.6187082,-140.270004272461
1344.6343332,-140.710006713867
1344.6499582,-139.940002441406
1344.6655832,-137.520004272461
1344.6812082,-133.160003662109
1344.6968332,-127.059997558594
1344.7124582,-119.98999786377
1344.7280832,-113.0
1344.7437082,-106.650001525879
1344.7593332,-100.620002746582
1344.7749582,-94.1500015258789
1344.7905832,-86.6999969482422
1344.8062082,-78.0999984741211
1344.8218332,-68.0599975585938
1344.8374582,-55.5900001525879
1344.8530832,-38.7900009155273
1344.8687082,-15.960000038147
1344.8843332,12.9799995422363
1344.8999582,46.8499984741211
1344.9155832,83.8499984741211
1344.9312082,121.730003356934
1344.9468332,157.830001831055
1344.9624582,189.710006713867
1344.9780832,216.039993286133
1344.9937082,237.009994506836
1345.0093332,253.279998779297
1345.0249582,264.519989013672
1345.0405832,269.420013427734
1345.0562082,266.769989013672
1345.0718332,256.179992675781
1345.0874582,238.089996337891
1345.1030832,213.449996948242
1345.1187082,183.509994506836
1345.1343332,149.639999389648
1345.1499582,113.48999786377
1345.1655832,76.9700012207031
1345.1812082,41.6300010681152
1345.1968332,7.86999988555908
1345.2124582,-24.6499996185303
1345.2280832,-55.9799995422363
1345.2437082,-85.3300018310547
1345.2593332,-111.430000305176
1345.2749582,-132.860000610352
1345.2905832,-148.610000610352
1345.3062082,-158.649993896484
1345.3218332,-164.029998779297
1345.3374582,-166.550003051758
1345.3530832,-167.720001220703
1345.3687082,-167.759994506836
1345.3843332,-166.070007324219
1345.3999582,-162.589996337891
1345.4155832,-158.0
1345.4312082,-152.910003662109
1345.4468332,-147.449996948242
1345.4624582,-141.410003662109
1345.4780832,-134.440002441406
1345.4937082,-126.279998779297
1345.5093332,-117.160003662109
1345.5249582,-107.779998779297
1345.5405832,-98.8499984741211
1345.5562082,-90.8000030517578
1345.5718332,-83.5899963378906
1345.5874582,-76.7699966430664
1345.6030832,-69.4100036621094
1345.6187082,-59.5400009155273
1345.6343332,-43.689998626709
1345.6499582,-18.2099990844727
1345.6655832,17.3899993896484
1345.6812082,58.9000015258789
1345.6968332,99.4300003051758
1345.7124582,132.979995727539
1345.7280832,156.5
1345.7437082,170.440002441406
1345.7593332,177.669998168945
1345.7749582,181.509994506836
1345.7905832,183.839996337891
1345.8062082,184.729995727539
1345.8218332,183.020004272461
1345.8374582,177.149993896484
1345.8530832,165.949996948242
1345.8687082,149.080001831055
1345.8843332,127.160003662109
1345.8999582,101.629997253418
1345.9155832,74.5500030517578
1345.9312082,48.2200012207031
1345.9468332,24.5699996948242
1345.9624582,4.67999982833862
1345.9780832,-11.3699998855591
1345.9937082,-24.4300003051758
1346.0093332,-35.8199996948242
1346.0249582,-46.6399993896484
1346.0405832,-57.2599983215332
1346.0562082,-67.4100036621094
1346.0718332,-76.5999984741211
1346.0874582,-84.5
1346.1030832,-91.0699996948242
1346.1187082,-96.4400024414063
1346.1343332,-100.860000610352
1346.1499582,-104.389999389648
1346.1655832,-106.769996643066
1346.1812082,-107.540000915527
1346.1968332,-106.470001220703
1346.2124582,-104.01000213623
1346.2280832,-101.279998779297
1346.2437082,-99.8499984741211
1346.2593332,-101.0
1346.2749582,-104.779998779297
1346.2905832,-109.669998168945
1346.3062082,-113.459999084473
1346.3218332,-114.459999084473
1346.3374582,-111.559997558594
1346.3530832,-102.930000305176
1346.3687082,-85.4499969482422
1346.3843332,-56.5999984741211
1346.3999582,-17.0900001525879
1346.4155832,28.0300006866455
1346.4312082,71.3899993896484
1346.4468332,106.769996643066
1346.4624582,131.479995727539
1346.4780832,146.309997558594
1346.4937082,154.070007324219
1346.5093332,157.949996948242
1346.5249582,159.929992675781
1346.5405832,160.039993286133
1346.5562082,157.119995117188
1346.5718332,149.970001220703
1346.5874582,137.929992675781
1346.6030832,121.110000610352
1346.6187082,100.430000305176
1346.6343332,77.4899978637695
1346.6499582,54.1300010681152
1346.6655832,32.0099983215332
1346.6812082,12.3400001525879
1346.6968332,-4.28999996185303
1346.7124582,-17.8999996185303
1346.7280832,-28.8500003814697
1346.7437082,-37.7799987792969
1346.7593332,-45.4900016784668
1346.7749582,-52.6599998474121
1346.7905832,-59.439998626709
1346.8062082,-65.5299987792969
1346.8218332,-70.5599975585938
1346.8374582,-74.3600006103516
1346.8530832,-76.9700012207031
1346.8687082,-78.4599990844727
1346.8843332,-78.9199981689453
1346.8999582,-78.5999984741211
1346.9155832,-77.8499984741211
1346.9312082,-76.75
1346.9468332,-75.1500015258789
1346.9624582,-73.0999984741211
1346.9780832,-70.9400024414063
1346.9937082,-69.0500030517578
1347.0093332,-67.5100021362305
1347.0249582,-65.9300003051758
1347.0405832,-63.5900001525879
1347.0562082,-60.0699996948242
1347.0718332,-55.3800010681152
1347.0874582,-49.0
1347.1030832,-38.7700004577637
1347.1187082,-21.7600002288818
1347.1343332,3.41000008583069
1347.1499582,35.2599983215332
1347.1655832,69.5100021362305
1347.1812082,100.51000213623
1347.1968332,123.790000915527
1347.2124582,137.919998168945
1347.2280832,144.479995727539
1347.2437082,146.440002441406
1347.2593332,146.520004272461
1347.2749582,145.960006713867
1347.2905832,144.179992675781
1347.3062082,139.759994506836
1347.3218332,131.529998779297
1347.3374582,119.110000610352
1347.3530832,102.889999389648
1347.3687082,83.7200012207031
1347.3843332,62.8300018310547
1347.3999582,41.689998626709
1347.4155832,21.7999992370605
1347.4312082,4.34000015258789
1347.4468332,-10.0600004196167
1347.4624582,-21.5
1347.4780832,-30.6000003814697
1347.4937082,-38.3400001525879
1347.5093332,-45.8300018310547
1347.5249582,-53.810001373291
1347.5405832,-62.3499984741211
1347.5562082,-71.0100021362305
1347.5718332,-79.2099990844727
1347.5874582,-86.4499969482422
1347.6030832,-92.4599990844727
1347.6187082,-97.1399993896484
1347.6343332,-100.5
1347.6499582,-102.720001220703
1347.6655832,-103.870002746582
1347.6812082,-103.699996948242
1347.6968332,-101.769996643066
1347.7124582,-97.9300003051758
1347.7280832,-92.3899993896484
1347.7437082,-85.6999969482422
1347.7593332,-78.6699981689453
1347.7749582,-72.120002746582
1347.7905832,-66.4499969482422
1347.8062082,-61.4000015258789
1347.8218332,-55.9500007629395
1347.8374582,-48.2400016784668
1347.8530832,-35.8600006103516
1347.8687082,-17.1900005340576
1347.8843332,7.42000007629395
1347.8999582,35.6199989318848
1347.9155832,63.8400001525879
1347.9312082,88.4700012207031
1347.9468332,107.319999694824
1347.9624582,120.26000213623
1347.9780832,128.820007324219
1347.9937082,134.979995727539
1348.0093332,140.289993286133
1348.0249582,145.089996337891
1348.0405832,148.320007324219
1348.0562082,148.169998168945
1348.0718332,142.880004882813
1348.0874582,131.330001831055
1348.1030832,113.589996337891
1348.1187082,90.9899978637695
1348.1343332,65.75
1348.1499582,40.4300003051758
1348.1655832,17.2700004577637
1348.1812082,-2.47000002861023
1348.1968332,-18.7700004577637
1348.2124582,-32.25
1348.2280832,-43.7299995422363
1348.2437082,-53.9500007629395
1348.2593332,-63.560001373291
1348.2749582,-73.0
1348.2905832,-82.2399978637695
1348.3062082,-90.7699966430664
1348.3218332,-98.0100021362305
1348.3374582,-103.73999786377
1348.3530832,-108.029998779297
1348.3687082,-111.069999694824
