Time(s),Value(%)
1044.0008137,33.6800003051758
1044.0164387,37.8499984741211
1044.0320637,38.9000015258789
1044.0476887,37.6599998474121
1044.0633137,35.2099990844727
1044.0789387,32.4000015258789
1044.0945637,29.5699996948242
1044.1101887,26.5799999237061
1044.1258137,23.1800003051758
1044.1414387,19.3600006103516
1044.1570637,15.4200000762939
1044.1726887,11.7700004577637
1044.1883137,8.73999977111816
1044.2039387,6.30999994277954
1044.2195637,4.13000011444092
1044.2351887,1.82000005245209
1044.2508137,-0.769999980926514
1044.2664387,-3.52999997138977
1044.2820637,-6.23999977111816
1044.2976887,-8.64000034332275
1044.3133137,-10.6599998474121
1044.3289387,-12.3400001525879
1044.3445637,-13.8299999237061
1044.3601887,-15.3599996566772
1044.3758137,-17.0799999237061
1044.3914387,-18.8299999237061
1044.4070637,-20.25
1044.4226887,-20.9899997711182
1044.4383137,-20.9400005340576
1044.4539387,-20.3500003814697
1044.4695637,-19.5900001525879
1044.4851887,-18.9899997711182
1044.5008137,-18.6399993896484
1044.5164387,-18.4400005340576
1044.5320637,-18.1599998474121
1044.5476887,-17.6100006103516
1044.5633137,-16.7099990844727
1044.5789387,-15.5299997329712
1044.5945637,-14.0
1044.6101887,-11.710000038147
1044.6258137,-8.02000045776367
1044.6414387,-2.39000010490417
1044.6570637,5.21999979019165
1044.6726887,14.2600002288818
1044.6883137,23.5699996948242
1044.7039387,31.6800003051758
1044.7195637,37.2900009155273
1044.7351887,39.8800010681152
1044.7508137,39.810001373291
1044.7664387,37.9599990844727
1044.7820637,35.2900009155273
1044.7976887,32.3800010681152
1044.8133137,29.4099998474121
1044.8289387,26.2800006866455
1044.8445637,22.9099998474121
1044.8601887,19.2399997711182
1044.8758137,15.3699998855591
1044.8914387,11.539999961853
1044.9070637,8.10999965667725
1044.9226887,5.28000020980835
1044.9383137,2.96000003814697
1044.9539387,0.829999983310699
1044.9695637,-1.45000004768372
1044.9851887,-4.01999998092651
1045.0008137,-6.75
1045.0164387,-9.46000003814697
1045.0320637,-12.0100002288818
1045.0476887,-14.4099998474121
1045.0633137,-16.6599998474121
1045.0789387,-18.75
1045.0945637,-20.6100006103516
1045.1101887,-22.2299995422363
1045.1258137,-23.5699996948242
1045.1414387,-24.5599994659424
1045.1570637,-25.1700000762939
1045.1726887,-25.5300006866455
1045.1883137,-25.7800006866455
1045.2039387,-25.9899997711182
1045.2195637,-26.1399993896484
1045.2351887,-26.1599998474121
1045.2508137,-25.8600006103516
1045.2664387,-25.0100002288818
1045.2820637,-23.6700000762939
1045.2976887,-21.9699993133545
1045.3133137,-19.8899993896484
1045.3289387,-17.0400009155273
1045.3445637,-12.710000038147
1045.3601887,-6.19000005722046
1045.3758137,2.57999992370605
1045.3914387,12.6499996185303
1045.4070637,22.3899993896484
1045.4226887,30.1700000762939
1045.4383137,35.0800018310547
1045.4539387,37.0400009155273
1045.4695637,36.6699981689453
1045.4851887,34.8699989318848
1045.5008137,32.4199981689453
1045.5164387,29.7199993133545
1045.5320637,26.8600006103516
1045.5476887,23.8400001525879
1045.5633137,20.6499996185303
1045.5789387,17.4200000762939
1045.5945637,14.3999996185303
1045.6101887,11.8100004196167
1045.6258137,9.71000003814697
1045.6414387,7.96999979019165
1045.6570637,6.40000009536743
1045.6726887,4.76999998092651
1045.6883137,2.84999990463257
1045.7039387,0.540000021457672
1045.7195637,-2.0699999332428
1045.7351887,-4.73000001907349
1045.7508137,-7.17999982833862
1045.7664387,-9.35999965667725
1045.7820637,-11.3400001525879
1045.7976887,-13.2200002670288
1045.8133137,-15.0
1045.8289387,-16.6000003814697
1045.8445637,-17.9400005340576
1045.8601887,-19.0799999237061
1045.8758137,-20.0900001525879
1045.8914387,-20.9099998474121
1045.9070637,-21.3400001525879
1045.9226887,-21.1900005340576
1045.9383137,-20.5200004577637
1045.9539387,-19.6599998474121
1045.9695637,-19.0
1045.9851887,-18.6499996185303
1046.0008137,-18.2399997711182
1046.0164387,-17.0799999237061
1046.0320637,-14.460000038147
1046.0476887,-9.88000011444092
1046.0633137,-3.29999995231628
1046.0789387,4.76000022888184
1046.0945637,13.2399997711182
1046.1101887,20.8400001525879
1046.1258137,26.4500007629395
1046.1414387,29.5
1046.1570637,30.0200004577637
1046.1726887,28.5200004577637
1046.1883137,25.7800006866455
1046.2039387,22.4699993133545
1046.2195637,18.9799995422363
1046.2351887,15.4200000762939
1046.2508137,11.8500003814697
1046.2664387,8.44999980926514
1046.2820637,5.42000007629395
1046.2976887,3.0
1046.3133137,1.28999996185303
1046.3289387,0.189999997615814
1046.3445637,-0.589999973773956
1046.3601887,-1.45000004768372
1046.3758137,-2.60999989509583
1046.3914387,-4.09000015258789
1046.4070637,-5.80999994277954
1046.4226887,-7.61999988555908
1046.4383137,-9.42000007629395
1046.4539387,-11.1499996185303
1046.4695637,-12.8699998855591
1046.4851887,-14.6599998474121
1046.5008137,-16.3999996185303
1046.5164387,-17.8299999237061
1046.5320637,-18.6800003051758
1046.5476887,-18.9799995422363
1046.5633137,-18.9599990844727
1046.5789387,-18.9300003051758
1046.5945637,-19.0599994659424
1046.6101887,-19.3099994659424
1046.6258137,-19.5699996948242
1046.6414387,-19.6800003051758
1046.6570637,-19.4899997711182
1046.6726887,-18.8799991607666
1046.6883137,-17.8600006103516
1046.7039387,-16.4200000762939
1046.7195637,-14.3199996948242
1046.7351887,-11.0299997329712
1046.7508137,-6.03000020980835
1046.7664387,0.709999978542328
1046.7820637,8.75
1046.7976887,17.0799999237061
1046.8133137,24.4799995422363
1046.8289387,30.0
1046.8445637,33.2000007629395
1046.8601887,34.1399993896484
1046.8758137,33.25
1046.8914387,31.2299995422363
1046.9070637,28.8199996948242
1046.9226887,26.4599990844727
1046.9383137,24.1399993896484
1046.9539387,21.6700000762939
1046.9695637,18.9200000762939
1046.9851887,15.960000038147
1047.0008137,12.9099998474121
1047.0164387,9.93000030517578
1047.0320637,7.26999998092651
1047.0476887,5.15000009536743
1047.0633137,3.64000010490417
1047.0789387,2.59999990463257
1047.0945637,1.73000001907349
1047.1101887,0.709999978542328
1047.1258137,-0.689999997615814
1047.1414387,-2.54999995231628
1047.1570637,-4.76999998092651
1047.1726887,-7.09000015258789
1047.1883137,-9.25
1047.2039387,-11.0699996948242
1047.2195637,-12.4799995422363
1047.2351887,-13.4799995422363
1047.2508137,-14.1099996566772
1047.2664387,-14.4499998092651
1047.2820637,-14.5600004196167
1047.2976887,-14.5200004577637
1047.3133137,-14.539999961853
1047.3289387,-14.8100004196167
1047.3445637,-15.3400001525879
1047.3601887,-16.0200004577637
1047.3758137,-16.6599998474121
1047.3914387,-17.1599998474121
1047.4070637,-17.3299999237061
1047.4226887,-16.7199993133545
1047.4383137,-14.7700004577637
1047.4539387,-11.0200004577637
1047.4695637,-5.3600001335144
1047.4851887,1.88999998569489
1047.5008137,9.89000034332275
1047.5164387,17.4300003051758
1047.5320637,23.3400001525879
1047.5476887,26.9300003051758
1047.5633137,28.2199993133545
1047.5789387,27.7600002288818
1047.5945637,26.2999992370605
1047.6101887,24.3899993896484
1047.6258137,22.2600002288818
1047.6414387,19.9200000762939
1047.6570637,17.3199996948242
1047.6726887,14.4499998092651
1047.6883137,11.3999996185303
1047.7039387,8.47999954223633
1047.7195637,6.0
1047.7351887,4.15999984741211
1047.7508137,2.94000005722046
1047.7664387,2.04999995231628
1047.7820637,1.01999998092651
1047.7976887,-0.479999989271164
1047.8133137,-2.45000004768372
1047.8289387,-4.6399998664856
1047.8445637,-6.78000020980835
1047.8601887,-8.73999977111816
1047.8758137,-10.4899997711182
1047.8914387,-12.0799999237061
1047.9070637,-13.5500001907349
1047.9226887,-14.8400001525879
1047.9383137,-15.8500003814697
1047.9539387,-16.5699996948242
1047.9695637,-17.0400009155273
1047.9851887,-17.3299999237061
1048.0008137,-17.5
1048.0164387,-17.5300006866455
1048.0320637,-17.3400001525879
1048.0476887,-16.8899993896484
1048.0633137,-16.2600002288818
1048.0789387,-15.6000003814697
1048.0945637,-14.8500003814697
1048.1101887,-13.7600002288818
1048.1258137,-11.9899997711182
1048.1414387,-9.07999992370605
1048.1570637,-4.61999988555908
1048.1726887,1.4099999666214
1048.1883137,8.39000034332275
1048.2039387,15.1400003433228
1048.2195637,20.6200008392334
1048.2351887,24.2600002288818
1048.2508137,26.0900001525879
1048.2664387,26.3899993896484
1048.2820637,25.5499992370605
1048.2976887,23.9699993133545
1048.3133137,22.0
1048.3289387,19.8400001525879
1048.3445637,17.5300006866455
1048.3601887,15.0100002288818
1048.3758137,12.4300003051758
1048.3914387,10.1499996185303
1048.4070637,8.38000011444092
1048.4226887,7.07000017166138
1048.4383137,6.01999998092651
1048.4539387,5.01000022888184
1048.4695637,3.90000009536743
1048.4851887,2.55999994277954
1048.5008137,0.920000016689301
1048.5164387,-0.930000007152557
1048.5320637,-2.85999989509583
1048.5476887,-4.73000001907349
1048.5633137,-6.42999982833862
1048.5789387,-7.88000011444092
1048.5945637,-9.0600004196167
1048.6101887,-9.98999977111816
1048.6258137,-10.710000038147
1048.6414387,-11.3100004196167
1048.6570637,-11.8599996566772
1048.6726887,-12.3599996566772
1048.6883137,-12.8000001907349
1048.7039387,-13.1400003433228
1048.7195637,-13.3599996566772
1048.7351887,-13.4099998474121
1048.7508137,-13.3000001907349
1048.7664387,-13.0200004577637
1048.7820637,-12.5
1048.7976887,-11.5100002288818
1048.8133137,-9.75
1048.8289387,-6.92999982833862
1048.8445637,-3.02999997138977
1048.8601887,1.69000005722046
1048.8758137,6.73000001907349
1048.8914387,11.3999996185303
1048.9070637,15.0299997329712
1048.9226887,17.1499996185303
1048.9383137,17.7099990844727
1048.9539387,16.9599990844727
1048.9695637,15.3599996566772
1048.9851887,13.3500003814697
1049.0008137,11.2200002670288
1049.0164387,9.0600004196167
1049.0320637,6.92000007629395
1049.0476887,4.86999988555908
1049.0633137,3.0699999332428
1049.0789387,1.58000004291534
1049.0945637,0.379999995231628
1049.1101887,-0.579999983310699
1049.1258137,-1.45000004768372
1049.1414387,-2.33999991416931
1049.1570637,-3.3199999332428
1049.1726887,-4.42000007629395
1049.1883137,-5.65999984741211
1049.2039387,-7.0
1049.2195637,-8.28999996185303
1049.2351887,-9.47999954223633
1049.2508137,-10.6499996185303
1049.2664387,-11.8699998855591
1049.2820637,-13.0600004196167
1049.2976887,-13.9700002670288
1049.3133137,-14.3500003814697
1049.3289387,-14.1899995803833
1049.3445637,-13.7299995422363
1049.3601887,-13.3100004196167
1049.3758137,-13.0600004196167
1049.3914387,-12.9799995422363
1049.4070637,-13.0299997329712
1049.4226887,-13.1300001144409
1049.4383137,-13.1599998474121
1049.4539387,-12.9799995422363
1049.4695637,-12.6099996566772
1049.4851887,-12.0500001907349
1049.5008137,-11.1000003814697
1049.5164387,-9.34000015258789
1049.5320637,-6.34999990463257
1049.5476887,-2.09999990463257
1049.5633137,3.01999998092651
1049.5789387,8.30000019073486
1049.5945637,12.9499998092651
1049.6101887,16.3299999237061
1049.6258137,18.0599994659424
1049.6414387,18.0100002288818
1049.6570637,16.4400005340576
1049.6726887,13.8599996566772
1049.6883137,10.9099998474121
1049.7039387,8.10000038146973
1049.7195637,5.71000003814697
1049.7351887,3.80999994277954
1049.7508137,2.48000001907349
1049.7664387,1.85000002384186
1049.7820637,1.91999995708466
1049.7976887,2.55999994277954
1049.8133137,3.65000009536743
1049.8289387,5.07999992370605
1049.8445637,6.65000009536743
1049.8601887,8.10000038146973
1049.8758137,9.02000045776367
1049.8914387,8.98999977111816
1049.9070637,7.98000001907349
1049.9226887,6.46999979019165
1049.9383137,5.11999988555908
1049.9539387,4.23999977111816
1049.9695637,3.72000002861023
1049.9851887,3.32999992370605
1050.0008137,2.78999996185303
1050.0164387,1.87000000476837
1050.0320637,0.430000007152557
1050.0476887,-1.42999994754791
1050.0633137,-3.50999999046326
1050.0789387,-5.55999994277954
1050.0945637,-7.46000003814697
1050.1101887,-9.10000038146973
1050.1258137,-10.4399995803833
1050.1414387,-11.5799999237061
1050.1570637,-12.7200002670288
1050.1726887,-13.8599996566772
1050.1883137,-14.6899995803833
1050.2039387,-14.8299999237061
1050.2195637,-14.0200004577637
1050.2351887,-12.1499996185303
1050.2508137,-9.3100004196167
1050.2664387,-5.84999990463257
1050.2820637,-2.40000009536743
1050.2976887,0.379999995231628
1050.3133137,2.15000009536743
1050.3289387,2.88000011444092
1050.3445637,2.76999998092651
1050.3601887,2.11999988555908
1050.3758137,1.32000005245209
1050.3914387,0.839999973773956
1050.4070637,0.980000019073486
1050.4226887,1.6599999666214
1050.4383137,2.46000003814697
1050.4539387,3.0
1050.4695637,3.25
1050.4851887,3.52999997138977
1050.5008137,4.28999996185303
1050.5164387,5.65999984741211
1050.5320637,7.26999998092651
1050.5476887,8.55000019073486
1050.5633137,9.10000038146973
1050.5789387,8.97000026702881
1050.5945637,8.51000022888184
1050.6101887,8.05000019073486
1050.6258137,7.78000020980835
1050.6414387,7.82000017166138
1050.6570637,8.21000003814697
1050.6726887,8.85999965667725
1050.6883137,9.5
1050.7039387,9.80000019073486
1050.7195637,9.5600004196167
1050.7351887,8.84000015258789
1050.7508137,7.8899998664856
1050.7664387,6.96999979019165
1050.7820637,6.23000001907349
1050.7976887,5.76999998092651
1050.8133137,5.6100001335144
1050.8289387,5.59000015258789
1050.8445637,5.57999992370605
1050.8601887,5.51999998092651
1050.8758137,5.46000003814697
1050.8914387,5.48000001907349
1050.9070637,5.63000011444092
1050.9226887,6.13000011444092
1050.9383137,7.23999977111816
1050.9539387,9.17000007629395
1050.9695637,11.8599996566772
1050.9851887,14.9499998092651
1051.0008137,17.8500003814697
1051.0164387,19.8799991607666
1051.0320637,20.4899997711182
1051.0476887,19.5
1051.0633137,17.2700004577637
1051.0789387,14.5100002288818
1051.0945637,11.8699998855591
1051.1101887,9.64000034332275
1051.1258137,7.76000022888184
1051.1414387,6.21999979019165
1051.1570637,5.01000022888184
1051.1726887,4.07000017166138
1051.1883137,3.20000004768372
1051.2039387,2.13000011444092
1051.2195637,0.689999997615814
1051.2351887,-1.05999994277954
1051.2508137,-2.90000009536743
1051.2664387,-4.6100001335144
1051.2820637,-6.07999992370605
1051.2976887,-7.30999994277954
1051.3133137,-8.43000030517578
1051.3289387,-9.56999969482422
1051.3445637,-10.7600002288818
1051.3601887,-11.8699998855591
1051.3758137,-12.8000001907349
1051.3914387,-13.5900001525879
1051.4070637,-14.3199996948242
1051.4226887,-15.1700000762939
1051.4383137,-16.3099994659424
1051.4539387,-17.8299999237061
1051.4695637,-19.6499996185303
1051.4851887,-21.5599994659424
1051.5008137,-23.2900009155273
1051.5164387,-24.5900001525879
1051.5320637,-25.3099994659424
1051.5476887,-25.3899993896484
1051.5633137,-24.7299995422363
1051.5789387,-23.1800003051758
1051.5945637,-20.5100002288818
1051.6101887,-16.6700000762939
1051.6258137,-12.0500001907349
1051.6414387,-7.38000011444092
1051.6570637,-3.4300000667572
1051.6726887,-0.709999978542328
1051.6883137,0.589999973773956
1051.7039387,0.639999985694885
1051.7195637,-0.0199999995529652
1051.7351887,-0.810000002384186
1051.7508137,-1.22000002861023
1051.7664387,-1.08000004291534
1051.7820637,-0.589999973773956
1051.7976887,-0.150000005960464
1051.8133137,-0.100000001490116
1051.8289387,-0.560000002384186
1051.8445637,-1.28999996185303
1051.8601887,-1.9099999666214
1051.8758137,-2.16000008583069
1051.8914387,-2.07999992370605
1051.9070637,-1.92999994754791
1051.9226887,-1.95000004768372
1051.9383137,-2.26999998092651
1051.9539387,-2.82999992370605
1051.9695637,-3.49000000953674
1051.9851887,-4.09000015258789
1052.0008137,-4.5
1052.0164387,-4.71000003814697
1052.0320637,-4.84999990463257
1052.0476887,-5.03000020980835
1052.0633137,-5.30999994277954
1052.0789387,-5.6399998664856
1052.0945637,-5.98000001907349
1052.1101887,-6.28999996185303
1052.1258137,-6.51999998092651
1052.1414387,-6.59000015258789
1052.1570637,-6.51999998092651
1052.1726887,-6.40999984741211
1052.1883137,-6.30999994277954
1052.2039387,-6.01999998092651
1052.2195637,-5.15000009536743
1052.2351887,-3.28999996185303
1052.2508137,-0.159999996423721
1052.2664387,4.13000011444092
1052.2820637,8.89999961853027
1052.2976887,13.1400003433228
1052.3133137,16.0900001525879
1052.3289387,17.5
1052.3445637,17.5499992370605
1052.3601887,16.6000003814697
1052.3758137,15.0699996948242
1052.3914387,13.3900003433228
1052.4070637,11.8000001907349
1052.4226887,10.3000001907349
1052.4383137,8.81999969482422
1052.4539387,7.55999994277954
1052.4695637,6.80999994277954
1052.4851887,6.69000005722046
1052.5008137,6.96000003814697
1052.5164387,7.19999980926514
1052.5320637,7.01999998092651
1052.5476887,6.26999998092651
1052.5633137,5.07000017166138
1052.5789387,3.6800000667572
1052.5945637,2.33999991416931
1052.6101887,1.22000002861023
1052.6258137,0.46000000834465
1052.6414387,0.129999995231628
1052.6570637,0.0799999982118607
1052.6726887,-0.0900000035762787
1052.6883137,-0.730000019073486
1052.7039387,-1.78999996185303
1052.7195637,-2.96000003814697
1052.7351887,-3.94000005722046
1052.7508137,-4.67000007629395
1052.7664387,-5.23999977111816
1052.7820637,-5.75
1052.7976887,-6.25
1052.8133137,-6.65000009536743
1052.8289387,-6.71999979019165
1052.8445637,-6.3600001335144
1052.8601887,-5.65999984741211
1052.8758137,-4.65999984741211
1052.8914387,-3.08999991416931
1052.9070637,-0.569999992847443
1052.9226887,3.01999998092651
1052.9383137,7.32000017166138
1052.9539387,11.4200000762939
1052.9695637,14.3699998855591
1052.9851887,15.7200002670288
1053.0008137,15.6999998092651
1053.0164387,14.9099998474121
1053.0320637,13.8900003433228
1053.0476887,12.8999996185303
1053.0633137,11.9799995422363
1053.0789387,11.0200004577637
1053.0945637,9.84000015258789
1053.1101887,8.30000019073486
1053.1258137,6.46000003814697
1053.1414387,4.55000019073486
1053.1570637,2.86999988555908
1053.1726887,1.51999998092651
1053.1883137,0.479999989271164
1053.2039387,-0.330000013113022
1053.2195637,-1.07000005245209
1053.2351887,-1.88999998569489
1053.2508137,-2.86999988555908
1053.2664387,-3.9300000667572
1053.2820637,-4.96999979019165
1053.2976887,-5.90000009536743
1053.3133137,-6.63000011444092
1053.3289387,-7.07000017166138
1053.3445637,-7.21999979019165
1053.3601887,-7.19999980926514
1053.3758137,-7.17999982833862
1053.3914387,-7.36999988555908
1053.4070637,-7.84999990463257
1053.4226887,-8.51000022888184
1053.4383137,-9.06999969482422
1053.4539387,-9.26000022888184
1053.4695637,-9.02999973297119
1053.4851887,-8.51000022888184
1053.5008137,-7.80999994277954
1053.5164387,-7.0
1053.5320637,-6.26000022888184
1053.5476887,-5.80000019073486
1053.5633137,-5.55000019073486
1053.5789387,-4.92999982833862
1053.5945637,-3.26999998092651
1053.6101887,-0.409999996423721
1053.6258137,3.17000007629395
1053.6414387,6.69999980926514
1053.6570637,9.46000003814697
1053.6726887,11.0600004196167
1053.6883137,11.5500001907349
1053.7039387,11.3100004196167
1053.7195637,10.7799997329712
1053.7351887,10.25
1053.7508137,9.85000038146973
1053.7664387,9.55000019073486
1053.7820637,9.10000038146973
1053.7976887,8.22000026702881
1053.8133137,6.69999980926514
1053.8289387,4.65000009536743
1053.8445637,2.47000002861023
1053.8601887,0.569999992847443
1053.8758137,-0.779999971389771
1053.8914387,-1.48000001907349
1053.9070637,-1.54999995231628
1053.9226887,-1.29999995231628
1053.9383137,-1.1599999666214
1053.9539387,-1.51999998092651
1053.9695637,-2.48000001907349
1053.9851887,-3.79999995231628
1054.0008137,-5.15000009536743
1054.0164387,-6.28999996185303
1054.0320637,-7.17000007629395
1054.0476887,-7.90999984741211
1054.0633137,-8.72999954223633
1054.0789387,-9.69999980926514
1054.0945637,-10.6099996566772
1054.1101887,-11.1999998092651
1054.1258137,-11.3800001144409
1054.1414387,-11.3400001525879
1054.1570637,-11.2799997329712
1054.1726887,-11.3400001525879
1054.1883137,-11.5100002288818
1054.2039387,-11.7600002288818
1054.2195637,-12.0
1054.2351887,-11.9899997711182
1054.2508137,-11.3299999237061
1054.2664387,-9.71000003814697
1054.2820637,-7.05999994277954
1054.2976887,-3.57999992370605
1054.3133137,0.310000002384186
1054.3289387,4.07000017166138
1054.3445637,7.1399998664856
1054.3601887,9.17000007629395
1054.3758137,10.1800003051758
