Time(s),Value(℃)
0.022401,90.9300003051758
0.038026,90.9599990844727
0.053651,90.9800033569336
0.069276,91.0
0.084901,91.0199966430664
0.100526,91.0400009155273
0.116151,91.0599975585938
0.131776,91.0800018310547
0.147401,91.0899963378906
0.163026,91.1100006103516
0.178651,91.120002746582
0.194276,91.129997253418
0.209901,91.1500015258789
0.225526,91.1600036621094
0.241151,91.1699981689453
0.256776,91.1800003051758
0.272401,91.1999969482422
0.288026,91.2099990844727
0.303651,91.2200012207031
0.319276,91.2399978637695
0.334901,91.25
0.350526,91.2699966430664
0.366151,91.2799987792969
0.381776,91.3000030517578
0.397401,91.3199996948242
0.413026,91.3300018310547
0.428651,91.3499984741211
0.444276,91.3600006103516
0.459901,91.379997253418
0.475526,91.3899993896484
0.491151,91.4000015258789
0.506776,91.4199981689453
0.522401,91.4300003051758
0.538026,91.4400024414063
0.553651,91.4499969482422
0.569276,91.4599990844727
0.584901,91.4700012207031
0.600526,91.4800033569336
0.616151,91.4899978637695
0.631776,91.4899978637695
0.647401,91.5
0.663026,91.5100021362305
0.678651,91.5199966430664
0.694276,91.5400009155273
0.709901,91.5500030517578
0.725526,91.5699996948242
0.741151,91.5800018310547
0.756776,91.5999984741211
0.772401,91.620002746582
0.788026,91.629997253418
0.803651,91.6399993896484
0.819276,91.6500015258789
0.834901,91.6500015258789
0.850526,91.6500015258789
0.866151,91.6500015258789
0.881776,91.6399993896484
0.897401,91.620002746582
0.913026,91.6100006103516
0.928651,91.5899963378906
0.944276,91.5699996948242
0.959901,91.5599975585938
0.975526,91.5400009155273
0.991151,91.5299987792969
1.006776,91.5199966430664
1.022401,91.5100021362305
1.038026,91.5
1.053651,91.4899978637695
1.069276,91.4800033569336
1.084901,91.4800033569336
1.100526,91.4700012207031
1.116151,91.4700012207031
1.131776,91.4599990844727
1.147401,91.4599990844727
1.163026,91.4499969482422
1.178651,91.4499969482422
1.194276,91.4400024414063
1.209901,91.4400024414063
1.225526,91.4300003051758
1.241151,91.4199981689453
1.256776,91.4100036621094
1.272401,91.4100036621094
1.288026,91.4000015258789
1.303651,91.3899993896484
1.319276,91.370002746582
1.334901,91.3600006103516
1.350526,91.3499984741211
1.366151,91.3399963378906
1.381776,91.3300018310547
1.397401,91.3199996948242
1.413026,91.3099975585938
1.428651,91.3000030517578
1.444276,91.2799987792969
1.459901,91.2699966430664
1.475526,91.2600021362305
1.491151,91.2399978637695
1.506776,91.2300033569336
1.522401,91.2200012207031
1.538026,91.2099990844727
1.553651,91.1999969482422
1.569276,91.1900024414063
1.584901,91.1900024414063
1.600526,91.1900024414063
1.616151,91.1900024414063
1.631776,91.1900024414063
1.647401,91.1900024414063
1.663026,91.1900024414063
1.678651,91.1900024414063
1.694276,91.1900024414063
1.709901,91.1900024414063
1.725526,91.1900024414063
1.741151,91.1900024414063
1.756776,91.1999969482422
1.772401,91.1999969482422
1.788026,91.2099990844727
1.803651,91.2200012207031
1.819276,91.2399978637695
1.834901,91.25
1.850526,91.2600021362305
1.866151,91.2799987792969
1.881776,91.2900009155273
1.897401,91.3000030517578
1.913026,91.3099975585938
1.928651,91.3199996948242
1.944276,91.3300018310547
1.959901,91.3300018310547
1.975526,91.3300018310547
1.991151,91.3399963378906
2.006776,91.3399963378906
2.022401,91.3399963378906
2.038026,91.3399963378906
2.053651,91.3399963378906
2.069276,91.3399963378906
2.084901,91.3399963378906
2.100526,91.3399963378906
2.116151,91.3399963378906
2.131776,91.3399963378906
2.147401,91.3399963378906
2.163026,91.3399963378906
2.178651,91.3399963378906
2.194276,91.3399963378906
2.209901,91.3399963378906
2.225526,91.3300018310547
2.241151,91.3300018310547
2.256776,91.3199996948242
2.272401,91.3199996948242
2.288026,91.3099975585938
2.303651,91.3099975585938
2.319276,91.3000030517578
2.334901,91.3000030517578
2.350526,91.2900009155273
2.366151,91.2900009155273
2.381776,91.2799987792969
2.397401,91.2799987792969
2.413026,91.2699966430664
2.428651,91.2699966430664
2.444276,91.2600021362305
2.459901,91.2600021362305
2.475526,91.25
2.491151,91.2399978637695
2.506776,91.2300033569336
2.522401,91.2200012207031
2.538026,91.1999969482422
2.553651,91.1900024414063
2.569276,91.1800003051758
2.584901,91.1600036621094
2.600526,91.1500015258789
2.616151,91.1399993896484
2.631776,91.120002746582
2.647401,91.1100006103516
2.663026,91.0899963378906
2.678651,91.0800018310547
2.694276,91.0599975585938
2.709901,91.0500030517578
2.725526,91.0400009155273
2.741151,91.0199966430664
2.756776,91.0100021362305
2.772401,91.0
2.788026,90.9800033569336
2.803651,90.9700012207031
2.819276,90.9599990844727
2.834901,90.9499969482422
2.850526,90.9400024414063
2.866151,90.9300003051758
2.881776,90.9300003051758
2.897401,90.9199981689453
2.913026,90.9199981689453
2.928651,90.9199981689453
2.944276,90.9199981689453
2.959901,90.9300003051758
2.975526,90.9300003051758
2.991151,90.9300003051758
3.006776,90.9400024414063
3.022401,90.9400024414063
3.038026,90.9400024414063
3.053651,90.9499969482422
3.069276,90.9499969482422
3.084901,90.9499969482422
3.100526,90.9499969482422
3.116151,90.9599990844727
3.131776,90.9599990844727
3.147401,90.9700012207031
3.163026,90.9700012207031
3.178651,90.9800033569336
3.194276,90.9800033569336
3.209901,90.9899978637695
3.225526,91.0
3.241151,91.0100021362305
3.256776,91.0100021362305
3.272401,91.0199966430664
3.288026,91.0299987792969
3.303651,91.0400009155273
3.319276,91.0500030517578
3.334901,91.0599975585938
3.350526,91.0800018310547
3.366151,91.0899963378906
3.381776,91.1100006103516
3.397401,91.129997253418
3.413026,91.1500015258789
3.428651,91.1699981689453
3.444276,91.1900024414063
3.459901,91.2099990844727
3.475526,91.2300033569336
3.491151,91.25
3.506776,91.2699966430664
3.522401,91.2900009155273
3.538026,91.3099975585938
3.553651,91.3199996948242
3.569276,91.3399963378906
3.584901,91.3600006103516
3.600526,91.370002746582
3.616151,91.3899993896484
3.631776,91.4000015258789
3.647401,91.4100036621094
3.663026,91.4300003051758
3.678651,91.4400024414063
3.694276,91.4599990844727
3.709901,91.4700012207031
3.725526,91.4899978637695
3.741151,91.5100021362305
3.756776,91.5299987792969
3.772401,91.5500030517578
3.788026,91.5699996948242
3.803651,91.5999984741211
3.819276,91.620002746582
3.834901,91.6399993896484
3.850526,91.6699981689453
3.866151,91.6900024414063
3.881776,91.7200012207031
3.897401,91.7399978637695
3.913026,91.7699966430664
3.928651,91.8000030517578
3.944276,91.8199996948242
3.959901,91.8499984741211
3.975526,91.879997253418
3.991151,91.9100036621094
4.006776,91.9400024414063
4.022401,91.9700012207031
4.038026,92.0
4.053651,92.0299987792969
4.069276,92.0599975585938
4.084901,92.0999984741211
4.100526,92.129997253418
4.116151,92.1600036621094
4.131776,92.1999969482422
4.147401,92.2300033569336
4.163026,92.2699966430664
4.178651,92.3000030517578
4.194276,92.3300018310547
4.209901,92.370002746582
4.225526,92.4000015258789
4.241151,92.4400024414063
4.256776,92.4700012207031
4.272401,92.5
4.288026,92.5299987792969
4.303651,92.5599975585938
4.319276,92.5899963378906
4.334901,92.620002746582
4.350526,92.6399993896484
4.366151,92.6600036621094
4.381776,92.6800003051758
4.397401,92.6999969482422
4.413026,92.7200012207031
4.428651,92.7300033569336
4.444276,92.75
4.459901,92.7600021362305
4.475526,92.7799987792969
4.491151,92.7900009155273
4.506776,92.8000030517578
4.522401,92.8199996948242
4.538026,92.8300018310547
4.553651,92.8499984741211
4.569276,92.870002746582
4.584901,92.879997253418
4.600526,92.9000015258789
4.616151,92.9100036621094
4.631776,92.9199981689453
4.647401,92.9300003051758
4.663026,92.9499969482422
4.678651,92.9599990844727
4.694276,92.9700012207031
4.709901,92.9800033569336
4.725526,92.9899978637695
4.741151,92.9899978637695
4.756776,93.0
4.772401,93.0100021362305
4.788026,93.0199966430664
4.803651,93.0199966430664
4.819276,93.0299987792969
4.834901,93.0299987792969
4.850526,93.0299987792969
4.866151,93.0400009155273
4.881776,93.0400009155273
4.897401,93.0400009155273
4.913026,93.0400009155273
4.928651,93.0400009155273
4.944276,93.0500030517578
4.959901,93.0500030517578
4.975526,93.0500030517578
4.991151,93.0599975585938
5.006776,93.0699996948242
5.022401,93.0699996948242
5.038026,93.0800018310547
5.053651,93.0899963378906
5.069276,93.1100006103516
5.084901,93.120002746582
5.100526,93.129997253418
5.116151,93.1500015258789
5.131776,93.1600036621094
5.147401,93.1699981689453
5.163026,93.1900024414063
5.178651,93.1999969482422
5.194276,93.2200012207031
5.209901,93.2300033569336
5.225526,93.2399978637695
5.241151,93.2600021362305
5.256776,93.2799987792969
5.272401,93.2900009155273
5.288026,93.3099975585938
5.303651,93.3300018310547
5.319276,93.3499984741211
5.334901,93.370002746582
5.350526,93.3899993896484
5.366151,93.4100036621094
5.381776,93.4300003051758
5.397401,93.4499969482422
5.413026,93.4700012207031
5.428651,93.4800033569336
5.444276,93.5
5.459901,93.5199966430664
5.475526,93.5400009155273
5.491151,93.5599975585938
5.506776,93.5800018310547
5.522401,93.5999984741211
5.538026,93.620002746582
5.553651,93.6500015258789
5.569276,93.6699981689453
5.584901,93.6900024414063
5.600526,93.7099990844727
5.616151,93.7399978637695
5.631776,93.7600021362305
5.647401,93.7799987792969
5.663026,93.8099975585938
5.678651,93.8300018310547
5.694276,93.8499984741211
5.709901,93.870002746582
5.725526,93.8899993896484
5.741151,93.9100036621094
5.756776,93.9300003051758
5.772401,93.9499969482422
5.788026,93.9700012207031
5.803651,93.9899978637695
5.819276,94.0100021362305
5.834901,94.0299987792969
5.850526,94.0500030517578
5.866151,94.0699996948242
5.881776,94.0800018310547
5.897401,94.0999984741211
5.913026,94.1100006103516
5.928651,94.120002746582
5.944276,94.129997253418
5.959901,94.129997253418
5.975526,94.129997253418
5.991151,94.129997253418
6.006776,94.129997253418
6.022401,94.120002746582
6.038026,94.1100006103516
6.053651,94.0999984741211
6.069276,94.0999984741211
6.084901,94.0899963378906
6.100526,94.0899963378906
6.116151,94.0899963378906
6.131776,94.0899963378906
6.147401,94.0899963378906
6.163026,94.0999984741211
6.178651,94.0999984741211
6.194276,94.1100006103516
6.209901,94.120002746582
6.225526,94.120002746582
6.241151,94.129997253418
6.256776,94.129997253418
6.272401,94.129997253418
6.288026,94.1399993896484
6.303651,94.1399993896484
6.319276,94.129997253418
6.334901,94.129997253418
6.350526,94.129997253418
6.366151,94.120002746582
6.381776,94.1100006103516
6.397401,94.1100006103516
6.413026,94.0999984741211
6.428651,94.0899963378906
6.444276,94.0800018310547
6.459901,94.0699996948242
6.475526,94.0599975585938
6.491151,94.0400009155273
6.506776,94.0299987792969
6.522401,94.0199966430664
6.538026,94.0100021362305
6.553651,93.9899978637695
6.569276,93.9800033569336
6.584901,93.9700012207031
6.600526,93.9599990844727
6.616151,93.9499969482422
6.631776,93.9400024414063
6.647401,93.9300003051758
6.663026,93.9300003051758
6.678651,93.9199981689453
6.694276,93.9100036621094
6.709901,93.9000015258789
6.725526,93.8899993896484
6.741151,93.879997253418
6.756776,93.870002746582
6.772401,93.8600006103516
6.788026,93.8399963378906
6.803651,93.8300018310547
6.819276,93.8099975585938
6.834901,93.8000030517578
6.850526,93.7900009155273
6.866151,93.7799987792969
6.881776,93.7699966430664
6.897401,93.7600021362305
6.913026,93.75
6.928651,93.75
6.944276,93.7399978637695
6.959901,93.7399978637695
6.975526,93.7399978637695
6.991151,93.7300033569336
7.006776,93.7300033569336
7.022401,93.7200012207031
7.038026,93.7099990844727
7.053651,93.6999969482422
7.069276,93.6800003051758
7.084901,93.6600036621094
7.100526,93.6399993896484
7.116151,93.6100006103516
7.131776,93.5899963378906
7.147401,93.5599975585938
7.163026,93.5299987792969
7.178651,93.5
7.194276,93.4700012207031
7.209901,93.4400024414063
7.225526,93.4100036621094
7.241151,93.379997253418
7.256776,93.3600006103516
7.272401,93.3399963378906
7.288026,93.3199996948242
7.303651,93.3099975585938
7.319276,93.2900009155273
7.334901,93.2799987792969
7.350526,93.2699966430664
7.366151,93.25
7.381776,93.2399978637695
7.397401,93.2200012207031
7.413026,93.1999969482422
7.428651,93.1800003051758
7.444276,93.1600036621094
7.459901,93.1399993896484
7.475526,93.1100006103516
7.491151,93.0800018310547
7.506776,93.0500030517578
7.522401,93.0100021362305
7.538026,92.9599990844727
7.553651,92.9100036621094
7.569276,92.8600006103516
7.584901,92.8099975585938
7.600526,92.75
7.616151,92.6900024414063
7.631776,92.6399993896484
7.647401,92.5800018310547
7.663026,92.5199966430664
7.678651,92.4700012207031
7.694276,92.4199981689453
7.709901,92.379997253418
7.725526,92.3399963378906
7.741151,92.3099975585938
7.756776,92.2799987792969
7.772401,92.25
7.788026,92.2300033569336
7.803651,92.2099990844727
7.819276,92.1900024414063
7.834901,92.1699981689453
7.850526,92.1600036621094
7.866151,92.1399993896484
7.881776,92.129997253418
7.897401,92.120002746582
7.913026,92.1100006103516
7.928651,92.0999984741211
7.944276,92.0899963378906
7.959901,92.0699996948242
7.975526,92.0599975585938
7.991151,92.0400009155273
8.006776,92.0199966430664
8.022401,92.0
8.038026,91.9700012207031
8.053651,91.9499969482422
8.069276,91.9199981689453
8.084901,91.8899993896484
8.100526,91.870002746582
8.116151,91.8399963378906
8.131776,91.8199996948242
8.147401,91.7900009155273
8.163026,91.7799987792969
8.178651,91.7600021362305
8.194276,91.75
8.209901,91.7399978637695
8.225526,91.7300033569336
8.241151,91.7200012207031
8.256776,91.7099990844727
8.272401,91.6900024414063
8.288026,91.6800003051758
8.303651,91.6600036621094
8.319276,91.6399993896484
8.334901,91.629997253418
8.350526,91.620002746582
8.366151,91.6100006103516
8.381776,91.6100006103516
8.397401,91.6100006103516
8.413026,91.620002746582
8.428651,91.6399993896484
8.444276,91.6600036621094
8.459901,91.6900024414063
8.475526,91.7200012207031
8.491151,91.7600021362305
8.506776,91.8000030517578
8.522401,91.8499984741211
8.538026,91.8899993896484
8.553651,91.9400024414063
8.569276,91.9899978637695
8.584901,92.0400009155273
8.600526,92.0899963378906
8.616151,92.1500015258789
8.631776,92.1999969482422
8.647401,92.25
8.663026,92.2900009155273
8.678651,92.3300018310547
8.694276,92.370002746582
8.709901,92.4100036621094
8.725526,92.4400024414063
8.741151,92.4700012207031
8.756776,92.5
8.772401,92.5199966430664
8.788026,92.5400009155273
8.803651,92.5599975585938
8.819276,92.5800018310547
8.834901,92.5999984741211
8.850526,92.620002746582
8.866151,92.6500015258789
8.881776,92.6800003051758
8.897401,92.7099990844727
8.913026,92.75
8.928651,92.8000030517578
8.944276,92.8499984741211
8.959901,92.9100036621094
8.975526,92.9800033569336
8.991151,93.0400009155273
9.006776,93.120002746582
9.022401,93.1900024414063
9.038026,93.2699966430664
9.053651,93.3499984741211
9.069276,93.4300003051758
9.084901,93.5100021362305
9.100526,93.5899963378906
9.116151,93.6600036621094
9.131776,93.7399978637695
9.147401,93.8099975585938
9.163026,93.879997253418
9.178651,93.9499969482422
9.194276,94.0299987792969
9.209901,94.0999984741211
9.225526,94.1800003051758
9.241151,94.2600021362305
9.256776,94.3399963378906
9.272401,94.4199981689453
9.288026,94.4899978637695
9.303651,94.5599975585938
9.319276,94.629997253418
9.334901,94.6900024414063
9.350526,94.75
9.366151,94.8099975585938
9.381776,94.8600006103516
9.397401,94.9100036621094
9.413026,94.9599990844727
9.428651,95.0100021362305
9.444276,95.0599975585938
9.459901,95.0999984741211
9.475526,95.1500015258789
9.491151,95.2099990844727
9.506776,95.2600021362305
9.522401,95.3099975585938
9.538026,95.370002746582
9.553651,95.4199981689453
9.569276,95.4800033569336
9.584901,95.5299987792969
9.600526,95.5800018310547
9.616151,95.629997253418
9.631776,95.6800003051758
9.647401,95.7300033569336
9.663026,95.7799987792969
9.678651,95.8300018310547
9.694276,95.870002746582
9.709901,95.9199981689453
9.725526,95.9700012207031
9.741151,96.0100021362305
9.756776,96.0500030517578
9.772401,96.0899963378906
9.788026,96.129997253418
9.803651,96.1699981689453
9.819276,96.1999969482422
9.834901,96.2300033569336
9.850526,96.2600021362305
9.866151,96.2900009155273
9.881776,96.3199996948242
9.897401,96.3399963378906
9.913026,96.3600006103516
9.928651,96.379997253418
9.944276,96.4000015258789
9.959901,96.4199981689453
9.975526,96.4300003051758
9.991151,96.4400024414063
10.006776,96.4499969482422
10.022401,96.4499969482422
10.038026,96.4599990844727
10.053651,96.4599990844727
10.069276,96.4700012207031
10.084901,96.4700012207031
10.100526,96.4700012207031
10.116151,96.4700012207031
10.131776,96.4599990844727
10.147401,96.4599990844727
10.163026,96.4599990844727
10.178651,96.4599990844727
10.194276,96.4599990844727
10.209901,96.4599990844727
10.225526,96.4599990844727
10.241151,96.4700012207031
10.256776,96.4700012207031
10.272401,96.4800033569336
10.288026,96.4899978637695
10.303651,96.5
10.319276,96.5199966430664
10.334901,96.5400009155273
10.350526,96.5599975585938
10.366151,96.5699996948242
10.381776,96.5899963378906
10.397401,96.6100006103516
10.413026,96.629997253418
10.428651,96.6399993896484
10.444276,96.6500015258789
10.459901,96.6600036621094
10.475526,96.6699981689453
10.491151,96.6800003051758
10.506776,96.6800003051758
10.522401,96.6900024414063
10.538026,96.6900024414063
10.553651,96.6900024414063
10.569276,96.6999969482422
10.584901,96.6999969482422
10.600526,96.6999969482422
10.616151,96.7099990844727
10.631776,96.7099990844727
10.647401,96.7200012207031
10.663026,96.7300033569336
10.678651,96.75
10.694276,96.7699966430664
10.709901,96.7900009155273
10.725526,96.8099975585938
10.741151,96.8300018310547
10.756776,96.8499984741211
10.772401,96.870002746582
10.788026,96.9000015258789
10.803651,96.9199981689453
10.819276,96.9400024414063
10.834901,96.9599990844727
10.850526,96.9800033569336
10.866151,97.0
10.881776,97.0199966430664
10.897401,97.0500030517578
10.913026,97.0699996948242
10.928651,97.0899963378906
10.944276,97.120002746582
10.959901,97.1399993896484
10.975526,97.1699981689453
10.991151,97.1999969482422
11.006776,97.2300033569336
11.022401,97.2600021362305
11.038026,97.3000030517578
11.053651,97.3300018310547
11.069276,97.370002746582
11.084901,97.4000015258789
11.100526,97.4400024414063
11.116151,97.4800033569336
11.131776,97.5100021362305
11.147401,97.5500030517578
11.163026,97.5899963378906
11.178651,97.629997253418
11.194276,97.6600036621094
11.209901,97.6999969482422
11.225526,97.7300033569336
11.241151,97.7699966430664
11.256776,97.8000030517578
11.272401,97.8300018310547
11.288026,97.8600006103516
11.303651,97.8899993896484
11.319276,97.9199981689453
11.334901,97.9499969482422
11.350526,97.9700012207031
11.366151,98.0
11.381776,98.0299987792969
11.397401,98.0599975585938
11.413026,98.0899963378906
11.428651,98.120002746582
11.444276,98.1500015258789
11.459901,98.1800003051758
11.475526,98.2099990844727
11.491151,98.25
11.506776,98.2799987792969
11.522401,98.3199996948242
11.538026,98.3600006103516
11.553651,98.4000015258789
11.569276,98.4400024414063
11.584901,98.4800033569336
11.600526,98.5199966430664
11.616151,98.5599975585938
11.631776,98.5999984741211
11.647401,98.629997253418
11.663026,98.6699981689453
11.678651,98.6999969482422
11.694276,98.7399978637695
11.709901,98.7699966430664
11.725526,98.8000030517578
11.741151,98.8300018310547
11.756776,98.870002746582
11.772401,98.9000015258789
11.788026,98.9300003051758
11.803651,98.9599990844727
11.819276,98.9899978637695
11.834901,99.0199966430664
11.850526,99.0500030517578
11.866151,99.0899963378906
11.881776,99.120002746582
11.897401,99.1399993896484
11.913026,99.1699981689453
11.928651,99.1999969482422
11.944276,99.2300033569336
11.959901,99.2600021362305
11.975526,99.2799987792969
11.991151,99.3099975585938
12.006776,99.3399963378906
12.022401,99.3600006103516
12.038026,99.3899993896484
12.053651,99.4199981689453
12.069276,99.4400024414063
12.084901,99.4700012207031
12.100526,99.4899978637695
12.116151,99.5199966430664
12.131776,99.5500030517578
12.147401,99.5699996948242
12.163026,99.5999984741211
12.178651,99.620002746582
