Time(s),Value(℃)
290.0126751,18.7600002288818
290.0283001,18.7399997711182
290.0439251,18.7199993133545
290.0595501,18.7000007629395
290.0751751,18.6900005340576
290.0908001,18.6700000762939
290.1064251,18.6599998474121
290.1220501,18.6399993896484
290.1376751,18.6299991607666
290.1533001,18.6100006103516
290.1689251,18.5900001525879
290.1845501,18.5699996948242
290.2001751,18.5499992370605
290.2158001,18.5300006866455
290.2314251,18.5
290.2470501,18.4699993133545
290.2626751,18.4400005340576
290.2783001,18.4099998474121
290.2939251,18.3700008392334
290.3095501,18.3299999237061
290.3251751,18.2900009155273
290.3408001,18.2399997711182
290.3564251,18.1900005340576
290.3720501,18.1399993896484
290.3876751,18.0900001525879
290.4033001,18.0400009155273
290.4189251,17.9899997711182
290.4345501,17.9500007629395
290.4501751,17.9099998474121
290.4658001,17.8799991607666
290.4814251,17.8500003814697
290.4970501,17.8199996948242
290.5126751,17.7999992370605
290.5283001,17.7800006866455
290.5439251,17.7600002288818
290.5595501,17.7399997711182
290.5751751,17.7199993133545
290.5908001,17.7099990844727
290.6064251,17.7000007629395
290.6220501,17.6800003051758
290.6376751,17.6700000762939
290.6533001,17.6599998474121
290.6689251,17.6499996185303
290.6845501,17.6399993896484
290.7001751,17.6299991607666
290.7158001,17.6299991607666
290.7314251,17.6200008392334
290.7470501,17.6100006103516
290.7626751,17.6100006103516
290.7783001,17.6000003814697
290.7939251,17.5900001525879
290.8095501,17.5900001525879
290.8251751,17.5900001525879
290.8408001,17.5900001525879
290.8564251,17.5900001525879
290.8720501,17.5900001525879
290.8876751,17.6000003814697
290.9033001,17.6100006103516
290.9189251,17.6299991607666
290.9345501,17.6499996185303
290.9501751,17.6800003051758
290.9658001,17.7099990844727
290.9814251,17.7399997711182
290.9970501,17.7700004577637
291.0126751,17.7999992370605
291.0283001,17.8299999237061
291.0439251,17.8500003814697
291.0595501,17.8700008392334
291.0751751,17.8899993896484
291.0908001,17.9099998474121
291.1064251,17.9200000762939
291.1220501,17.9400005340576
291.1376751,17.9599990844727
291.1533001,17.9899997711182
291.1689251,18.0200004577637
291.1845501,18.0499992370605
291.2001751,18.0799999237061
291.2158001,18.1100006103516
291.2314251,18.1399993896484
291.2470501,18.1700000762939
291.2626751,18.2000007629395
291.2783001,18.2299995422363
291.2939251,18.2600002288818
291.3095501,18.2900009155273
291.3251751,18.3299999237061
291.3408001,18.3700008392334
291.3564251,18.4099998474121
291.3720501,18.4500007629395
291.3876751,18.4899997711182
291.4033001,18.5400009155273
291.4189251,18.5799999237061
291.4345501,18.6299991607666
291.4501751,18.6800003051758
291.4658001,18.7299995422363
291.4814251,18.7800006866455
291.4970501,18.8299999237061
291.5126751,18.8700008392334
291.5283001,18.9099998474121
291.5439251,18.9400005340576
291.5595501,18.9599990844727
291.5751751,18.9699993133545
291.5908001,18.9699993133545
291.6064251,18.9699993133545
291.6220501,18.9699993133545
291.6376751,18.9599990844727
291.6533001,18.9500007629395
291.6689251,18.9300003051758
291.6845501,18.9200000762939
291.7001751,18.8999996185303
291.7158001,18.8899993896484
291.7314251,18.8700008392334
291.7470501,18.8500003814697
291.7626751,18.8299999237061
291.7783001,18.8199996948242
291.7939251,18.7999992370605
291.8095501,18.7900009155273
291.8251751,18.7800006866455
291.8408001,18.7600002288818
291.8564251,18.75
291.8720501,18.7299995422363
291.8876751,18.7099990844727
291.9033001,18.6900005340576
291.9189251,18.6599998474121
291.9345501,18.6299991607666
291.9501751,18.6000003814697
291.9658001,18.5699996948242
291.9814251,18.5400009155273
291.9970501,18.5100002288818
292.0126751,18.4799995422363
292.0283001,18.4500007629395
292.0439251,18.4200000762939
292.0595501,18.3899993896484
292.0751751,18.3500003814697
292.0908001,18.3199996948242
292.1064251,18.2800006866455
292.1220501,18.2399997711182
292.1376751,18.1900005340576
292.1533001,18.1499996185303
292.1689251,18.1200008392334
292.1845501,18.0900001525879
292.2001751,18.0499992370605
292.2158001,18.0300006866455
292.2314251,18.0
292.2470501,17.9699993133545
292.2626751,17.9500007629395
292.2783001,17.9200000762939
292.2939251,17.8999996185303
292.3095501,17.8700008392334
292.3251751,17.8500003814697
292.3408001,17.8199996948242
292.3564251,17.7900009155273
292.3720501,17.75
292.3876751,17.7199993133545
292.4033001,17.6800003051758
292.4189251,17.6299991607666
292.4345501,17.5900001525879
292.4501751,17.5499992370605
292.4658001,17.5200004577637
292.4814251,17.4899997711182
292.4970501,17.4599990844727
292.5126751,17.4500007629395
292.5283001,17.4400005340576
292.5439251,17.4300003051758
292.5595501,17.4300003051758
292.5751751,17.4300003051758
292.5908001,17.4400005340576
292.6064251,17.4500007629395
292.6220501,17.4599990844727
292.6376751,17.4699993133545
292.6533001,17.4699993133545
292.6689251,17.4799995422363
292.6845501,17.4799995422363
292.7001751,17.4799995422363
292.7158001,17.4699993133545
292.7314251,17.4599990844727
292.7470501,17.4400005340576
292.7626751,17.4200000762939
292.7783001,17.4099998474121
292.7939251,17.3899993896484
292.8095501,17.3799991607666
292.8251751,17.3600006103516
292.8408001,17.3500003814697
292.8564251,17.3400001525879
292.8720501,17.3299999237061
292.8876751,17.3199996948242
292.9033001,17.3099994659424
292.9189251,17.2999992370605
292.9345501,17.2900009155273
292.9501751,17.2800006866455
292.9658001,17.2700004577637
292.9814251,17.2600002288818
292.9970501,17.2600002288818
293.0126751,17.25
293.0283001,17.25
293.0439251,17.2399997711182
293.0595501,17.2399997711182
293.0751751,17.2299995422363
293.0908001,17.2199993133545
293.1064251,17.2000007629395
293.1220501,17.1800003051758
293.1376751,17.1499996185303
293.1533001,17.1200008392334
293.1689251,17.0900001525879
293.1845501,17.0499992370605
293.2001751,17.0100002288818
293.2158001,16.9699993133545
293.2314251,16.9300003051758
293.2470501,16.8899993896484
293.2626751,16.8500003814697
293.2783001,16.8199996948242
293.2939251,16.7800006866455
293.3095501,16.75
293.3251751,16.7199993133545
293.3408001,16.6900005340576
293.3564251,16.6700000762939
293.3720501,16.6399993896484
293.3876751,16.6200008392334
293.4033001,16.5900001525879
293.4189251,16.5699996948242
293.4345501,16.5499992370605
293.4501751,16.5300006866455
293.4658001,16.5100002288818
293.4814251,16.4899997711182
293.4970501,16.4699993133545
293.5126751,16.4400005340576
293.5283001,16.4099998474121
293.5439251,16.3799991607666
293.5595501,16.3600006103516
293.5751751,16.3299999237061
293.5908001,16.3099994659424
293.6064251,16.2999992370605
293.6220501,16.2900009155273
293.6376751,16.2800006866455
293.6533001,16.2800006866455
293.6689251,16.2800006866455
293.6845501,16.2800006866455
293.7001751,16.2900009155273
293.7158001,16.2900009155273
293.7314251,16.2800006866455
293.7470501,16.2800006866455
293.7626751,16.2700004577637
293.7783001,16.2600002288818
293.7939251,16.25
293.8095501,16.2399997711182
293.8251751,16.2299995422363
293.8408001,16.2299995422363
293.8564251,16.2199993133545
293.8720501,16.2199993133545
293.8876751,16.2299995422363
293.9033001,16.2399997711182
293.9189251,16.25
293.9345501,16.2700004577637
293.9501751,16.2999992370605
293.9658001,16.3299999237061
293.9814251,16.3700008392334
293.9970501,16.4099998474121
294.0126751,16.4400005340576
294.0283001,16.4799995422363
294.0439251,16.5200004577637
294.0595501,16.5599994659424
294.0751751,16.6000003814697
294.0908001,16.6299991607666
294.1064251,16.6700000762939
294.1220501,16.7099990844727
294.1376751,16.75
294.1533001,16.7800006866455
294.1689251,16.8199996948242
294.1845501,16.8500003814697
294.2001751,16.8799991607666
294.2158001,16.9099998474121
294.2314251,16.9300003051758
294.2470501,16.9500007629395
294.2626751,16.9699993133545
294.2783001,16.9899997711182
294.2939251,17.0100002288818
294.3095501,17.0300006866455
294.3251751,17.0400009155273
294.3408001,17.0599994659424
294.3564251,17.0799999237061
294.3720501,17.1000003814697
294.3876751,17.1200008392334
294.4033001,17.1399993896484
294.4189251,17.1599998474121
294.4345501,17.1800003051758
294.4501751,17.2000007629395
294.4658001,17.2199993133545
294.4814251,17.2299995422363
294.4970501,17.2399997711182
294.5126751,17.25
294.5283001,17.25
294.5439251,17.2399997711182
294.5595501,17.2299995422363
294.5751751,17.2099990844727
294.5908001,17.1900005340576
294.6064251,17.1700000762939
294.6220501,17.1399993896484
294.6376751,17.1100006103516
294.6533001,17.0799999237061
294.6689251,17.0499992370605
294.6845501,17.0300006866455
294.7001751,17.0100002288818
294.7158001,16.9899997711182
294.7314251,16.9699993133545
294.7470501,16.9500007629395
294.7626751,16.9300003051758
294.7783001,16.9099998474121
294.7939251,16.8899993896484
294.8095501,16.8700008392334
294.8251751,16.8400001525879
294.8408001,16.8099994659424
294.8564251,16.7800006866455
294.8720501,16.7399997711182
294.8876751,16.6900005340576
294.9033001,16.6499996185303
294.9189251,16.6000003814697
294.9345501,16.5499992370605
294.9501751,16.5100002288818
294.9658001,16.4699993133545
294.9814251,16.4300003051758
294.9970501,16.4099998474121
295.0126751,16.3799991607666
295.0283001,16.3600006103516
295.0439251,16.3400001525879
295.0595501,16.3299999237061
295.0751751,16.3199996948242
295.0908001,16.2999992370605
295.1064251,16.2900009155273
295.1220501,16.2800006866455
295.1376751,16.2800006866455
295.1533001,16.2700004577637
295.1689251,16.2700004577637
295.1845501,16.2600002288818
295.2001751,16.2600002288818
295.2158001,16.2600002288818
295.2314251,16.2600002288818
295.2470501,16.2600002288818
295.2626751,16.2700004577637
295.2783001,16.2700004577637
295.2939251,16.2700004577637
295.3095501,16.2700004577637
295.3251751,16.2700004577637
295.3408001,16.2700004577637
295.3564251,16.2700004577637
295.3720501,16.2700004577637
295.3876751,16.2800006866455
295.4033001,16.2800006866455
295.4189251,16.2800006866455
295.4345501,16.2900009155273
295.4501751,16.2999992370605
295.4658001,16.3199996948242
295.4814251,16.3400001525879
295.4970501,16.3600006103516
295.5126751,16.3899993896484
295.5283001,16.4200000762939
295.5439251,16.4599990844727
295.5595501,16.5
295.5751751,16.5499992370605
295.5908001,16.5900001525879
295.6064251,16.6399993896484
295.6220501,16.6800003051758
295.6376751,16.7299995422363
295.6533001,16.7700004577637
295.6689251,16.8099994659424
295.6845501,16.8500003814697
295.7001751,16.8799991607666
295.7158001,16.9200000762939
295.7314251,16.9500007629395
295.7470501,16.9899997711182
295.7626751,17.0200004577637
295.7783001,17.0599994659424
295.7939251,17.1000003814697
295.8095501,17.1399993896484
295.8251751,17.1800003051758
295.8408001,17.2199993133545
295.8564251,17.2600002288818
295.8720501,17.2999992370605
295.8876751,17.3299999237061
295.9033001,17.3700008392334
295.9189251,17.3999996185303
295.9345501,17.4400005340576
295.9501751,17.4699993133545
295.9658001,17.5
295.9814251,17.5200004577637
295.9970501,17.5499992370605
296.0126751,17.5799999237061
296.0283001,17.6100006103516
296.0439251,17.6399993896484
296.0595501,17.6700000762939
296.0751751,17.6900005340576
296.0908001,17.7199993133545
296.1064251,17.7399997711182
296.1220501,17.7700004577637
296.1376751,17.7900009155273
296.1533001,17.8099994659424
296.1689251,17.8400001525879
296.1845501,17.8600006103516
296.2001751,17.8799991607666
296.2158001,17.9099998474121
296.2314251,17.9300003051758
296.2470501,17.9500007629395
296.2626751,17.9599990844727
296.2783001,17.9699993133545
296.2939251,17.9699993133545
296.3095501,17.9599990844727
296.3251751,17.9599990844727
296.3408001,17.9400005340576
296.3564251,17.9200000762939
296.3720501,17.8999996185303
296.3876751,17.8799991607666
296.4033001,17.8600006103516
296.4189251,17.8299999237061
296.4345501,17.8099994659424
296.4501751,17.7900009155273
296.4658001,17.7700004577637
296.4814251,17.7600002288818
296.4970501,17.75
296.5126751,17.75
296.5283001,17.75
296.5439251,17.75
296.5595501,17.7600002288818
296.5751751,17.7700004577637
296.5908001,17.7800006866455
296.6064251,17.7900009155273
296.6220501,17.7900009155273
296.6376751,17.7999992370605
296.6533001,17.7999992370605
296.6689251,17.7999992370605
296.6845501,17.7999992370605
296.7001751,17.7900009155273
296.7158001,17.7800006866455
296.7314251,17.7700004577637
296.7470501,17.75
296.7626751,17.7299995422363
296.7783001,17.7099990844727
296.7939251,17.6800003051758
296.8095501,17.6499996185303
296.8251751,17.6299991607666
296.8408001,17.6000003814697
296.8564251,17.5799999237061
296.8720501,17.5499992370605
296.8876751,17.5300006866455
296.9033001,17.5100002288818
296.9189251,17.4799995422363
296.9345501,17.4500007629395
296.9501751,17.4200000762939
296.9658001,17.3799991607666
296.9814251,17.3400001525879
296.9970501,17.2999992370605
297.0126751,17.25
297.0283001,17.2099990844727
297.0439251,17.1599998474121
297.0595501,17.1100006103516
297.0751751,17.0599994659424
297.0908001,17.0200004577637
297.1064251,16.9699993133545
297.1220501,16.9200000762939
297.1376751,16.8700008392334
297.1533001,16.8099994659424
297.1689251,16.7600002288818
297.1845501,16.7099990844727
297.2001751,16.6599998474121
297.2158001,16.6100006103516
297.2314251,16.5599994659424
297.2470501,16.5200004577637
297.2626751,16.4799995422363
297.2783001,16.4400005340576
297.2939251,16.4099998474121
297.3095501,16.3899993896484
297.3251751,16.3600006103516
297.3408001,16.3299999237061
297.3564251,16.3099994659424
297.3720501,16.2800006866455
297.3876751,16.25
297.4033001,16.2099990844727
297.4189251,16.1700000762939
297.4345501,16.1200008392334
297.4501751,16.0599994659424
297.4658001,16.0
297.4814251,15.9300003051758
297.4970501,15.8699998855591
297.5126751,15.8000001907349
297.5283001,15.7299995422363
297.5439251,15.6700000762939
297.5595501,15.6099996566772
297.5751751,15.539999961853
297.5908001,15.4899997711182
297.6064251,15.4300003051758
297.6220501,15.3699998855591
297.6376751,15.3199996948242
297.6533001,15.2700004577637
297.6689251,15.2200002670288
297.6845501,15.1700000762939
297.7001751,15.1199998855591
297.7158001,15.0699996948242
297.7314251,15.0299997329712
297.7470501,14.9899997711182
297.7626751,14.9399995803833
297.7783001,14.8999996185303
297.7939251,14.8599996566772
297.8095501,14.8100004196167
297.8251751,14.7700004577637
297.8408001,14.7299995422363
297.8564251,14.6999998092651
297.8720501,14.6700000762939
297.8876751,14.6400003433228
297.9033001,14.6199998855591
297.9189251,14.6000003814697
297.9345501,14.5900001525879
297.9501751,14.5799999237061
297.9658001,14.5699996948242
297.9814251,14.5600004196167
297.9970501,14.5500001907349
298.0126751,14.5299997329712
298.0283001,14.5200004577637
298.0439251,14.5
298.0595501,14.4799995422363
298.0751751,14.460000038147
298.0908001,14.4399995803833
298.1064251,14.4200000762939
298.1220501,14.3999996185303
298.1376751,14.3900003433228
298.1533001,14.3800001144409
298.1689251,14.3699998855591
298.1845501,14.3699998855591
298.2001751,14.3599996566772
298.2158001,14.3599996566772
298.2314251,14.3500003814697
298.2470501,14.3500003814697
298.2626751,14.3400001525879
298.2783001,14.3299999237061
298.2939251,14.3199996948242
298.3095501,14.3199996948242
298.3251751,14.3100004196167
298.3408001,14.3100004196167
298.3564251,14.3000001907349
298.3720501,14.3000001907349
298.3876751,14.3000001907349
298.4033001,14.3000001907349
298.4189251,14.3000001907349
298.4345501,14.3000001907349
298.4501751,14.3000001907349
298.4658001,14.3000001907349
298.4814251,14.3000001907349
298.4970501,14.3100004196167
298.5126751,14.3100004196167
298.5283001,14.3100004196167
298.5439251,14.3199996948242
298.5595501,14.3199996948242
298.5751751,14.3299999237061
298.5908001,14.3299999237061
298.6064251,14.3400001525879
298.6220501,14.3500003814697
298.6376751,14.3599996566772
298.6533001,14.3699998855591
298.6689251,14.3699998855591
298.6845501,14.3800001144409
298.7001751,14.3800001144409
298.7158001,14.3900003433228
298.7314251,14.3900003433228
298.7470501,14.3900003433228
298.7626751,14.3900003433228
298.7783001,14.3800001144409
298.7939251,14.3800001144409
298.8095501,14.3699998855591
298.8251751,14.3599996566772
298.8408001,14.3599996566772
298.8564251,14.3500003814697
298.8720501,14.3400001525879
298.8876751,14.3299999237061
298.9033001,14.3199996948242
298.9189251,14.3100004196167
298.9345501,14.3100004196167
298.9501751,14.3000001907349
298.9658001,14.3000001907349
298.9814251,14.3000001907349
298.9970501,14.3000001907349
299.0126751,14.3100004196167
299.0283001,14.3100004196167
299.0439251,14.3100004196167
299.0595501,14.3100004196167
299.0751751,14.3100004196167
299.0908001,14.3100004196167
299.1064251,14.3100004196167
299.1220501,14.3000001907349
299.1376751,14.3000001907349
299.1533001,14.3000001907349
299.1689251,14.3000001907349
299.1845501,14.3000001907349
299.2001751,14.3000001907349
299.2158001,14.3100004196167
299.2314251,14.3100004196167
299.2470501,14.3100004196167
299.2626751,14.3199996948242
299.2783001,14.3199996948242
299.2939251,14.3199996948242
299.3095501,14.3100004196167
299.3251751,14.3100004196167
299.3408001,14.3000001907349
299.3564251,14.289999961853
299.3720501,14.2799997329712
299.3876751,14.2700004577637
299.4033001,14.2600002288818
299.4189251,14.2399997711182
299.4345501,14.2299995422363
299.4501751,14.210000038147
299.4658001,14.1999998092651
299.4814251,14.1800003051758
299.4970501,14.1599998474121
299.5126751,14.1400003433228
299.5283001,14.1199998855591
299.5439251,14.1000003814697
299.5595501,14.0799999237061
299.5751751,14.0699996948242
299.5908001,14.0500001907349
299.6064251,14.039999961853
299.6220501,14.0200004577637
299.6376751,14.0100002288818
299.6533001,14.0
299.6689251,14.0
299.6845501,13.9899997711182
299.7001751,13.9799995422363
299.7158001,13.9700002670288
299.7314251,13.960000038147
299.7470501,13.960000038147
299.7626751,13.9499998092651
299.7783001,13.9399995803833
299.7939251,13.9300003051758
299.8095501,13.9300003051758
299.8251751,13.9200000762939
299.8408001,13.9099998474121
299.8564251,13.9099998474121
299.8720501,13.8999996185303
299.8876751,13.8900003433228
299.9033001,13.8900003433228
299.9189251,13.8800001144409
299.9345501,13.8699998855591
299.9501751,13.8699998855591
299.9658001,13.8599996566772
299.9814251,13.8599996566772
299.9970501,13.8500003814697
300.0126751,13.8500003814697
300.0283001,13.8400001525879
300.0439251,13.8400001525879
300.0595501,13.8400001525879
300.0751751,13.8299999237061
300.0908001,13.8199996948242
300.1064251,13.8199996948242
300.1220501,13.8100004196167
300.1376751,13.8000001907349
300.1533001,13.789999961853
300.1689251,13.7799997329712
300.1845501,13.7700004577637
300.2001751,13.7600002288818
300.2158001,13.75
300.2314251,13.75
300.2470501,13.75
300.2626751,13.7600002288818
300.2783001,13.7600002288818
300.2939251,13.7700004577637
300.3095501,13.789999961853
300.3251751,13.8000001907349
300.3408001,13.8100004196167
300.3564251,13.8299999237061
300.3720501,13.8500003814697
300.3876751,13.8599996566772
300.4033001,13.8800001144409
300.4189251,13.8999996185303
300.4345501,13.9200000762939
300.4501751,13.9300003051758
300.4658001,13.9499998092651
300.4814251,13.9700002670288
300.4970501,13.9899997711182
300.5126751,14.0
300.5283001,14.0200004577637
300.5439251,14.0299997329712
300.5595501,14.0500001907349
300.5751751,14.0600004196167
300.5908001,14.0699996948242
300.6064251,14.0900001525879
300.6220501,14.1000003814697
300.6376751,14.1099996566772
300.6533001,14.1199998855591
300.6689251,14.1300001144409
300.6845501,14.1400003433228
300.7001751,14.1499996185303
300.7158001,14.1599998474121
300.7314251,14.1700000762939
300.7470501,14.1800003051758
300.7626751,14.1899995803833
300.7783001,14.1999998092651
300.7939251,14.2200002670288
300.8095501,14.2299995422363
300.8251751,14.25
300.8408001,14.2600002288818
300.8564251,14.2799997329712
300.8720501,14.289999961853
300.8876751,14.3100004196167
300.9033001,14.3199996948242
300.9189251,14.3400001525879
300.9345501,14.3500003814697
300.9501751,14.3699998855591
