Time(s),Value(%)
290.0126751,22.7000007629395
290.0283001,23.2900009155273
290.0439251,23.1299991607666
290.0595501,22.6499996185303
290.0751751,21.4200000762939
290.0908001,18.8400001525879
290.1064251,14.8000001907349
290.1220501,9.85999965667725
290.1376751,4.78999996185303
290.1533001,0.310000002384186
290.1689251,-3.03999996185303
290.1845501,-4.98999977111816
290.2001751,-5.69000005722046
290.2158001,-5.92000007629395
290.2314251,-6.6100001335144
290.2470501,-8.11999988555908
290.2626751,-9.85999965667725
290.2783001,-10.8000001907349
290.2939251,-10.3999996185303
290.3095501,-8.94999980926514
290.3251751,-7.40000009536743
290.3408001,-6.73999977111816
290.3564251,-7.57000017166138
290.3720501,-9.86999988555908
290.3876751,-12.9399995803833
290.4033001,-15.6099996566772
290.4189251,-16.9300003051758
290.4345501,-16.5699996948242
290.4501751,-14.9300003051758
290.4658001,-12.8900003433228
290.4814251,-11.3900003433228
290.4970501,-10.8000001907349
290.5126751,-10.4300003051758
290.5283001,-8.6899995803833
290.5439251,-4.17999982833862
290.5595501,3.19000005722046
290.5751751,12.1099996566772
290.5908001,20.5100002288818
290.6064251,26.4400005340576
290.6220501,28.7199993133545
290.6376751,27.1599998474121
290.6533001,22.6900005340576
290.6689251,17.1100006103516
290.6845501,12.4499998092651
290.7001751,10.039999961853
290.7158001,10.0100002288818
290.7314251,11.4399995803833
290.7470501,12.9200000762939
290.7626751,12.9899997711182
290.7783001,10.7600002288818
290.7939251,6.46999979019165
290.8095501,1.5
290.8251751,-2.48000001907349
290.8408001,-4.59999990463257
290.8564251,-5.11999988555908
290.8720501,-4.96000003814697
290.8876751,-4.96000003814697
290.9033001,-5.38000011444092
290.9189251,-6.1100001335144
290.9345501,-6.90000009536743
290.9501751,-7.59999990463257
290.9658001,-8.25
290.9814251,-8.92000007629395
290.9970501,-9.57999992370605
291.0126751,-10.1000003814697
291.0283001,-10.4899997711182
291.0439251,-11.0
291.0595501,-11.9700002670288
291.0751751,-13.3999996185303
291.0908001,-14.8100004196167
291.1064251,-15.6400003433228
291.1220501,-15.6000003814697
291.1376751,-14.5900001525879
291.1533001,-12.2799997329712
291.1689251,-8.15999984741211
291.1845501,-1.88999998569489
291.2001751,6.1100001335144
291.2158001,14.6000003814697
291.2314251,21.9799995422363
291.2470501,27.1399993896484
291.2626751,30.1000003814697
291.2783001,31.7299995422363
291.2939251,33.0099983215332
291.3095501,34.2900009155273
291.3251751,34.9599990844727
291.3408001,33.7700004577637
291.3564251,29.7800006866455
291.3720501,23.3400001525879
291.3876751,16.0499992370605
291.4033001,9.64999961853027
291.4189251,5.21999979019165
291.4345501,3.02999997138977
291.4501751,2.73000001907349
291.4658001,3.59999990463257
291.4814251,4.73000001907349
291.4970501,5.19999980926514
291.5126751,4.11999988555908
291.5283001,1.11000001430511
291.5439251,-3.16000008583069
291.5595501,-7.34000015258789
291.5751751,-10.460000038147
291.5908001,-12.4899997711182
291.6064251,-13.8599996566772
291.6220501,-14.8599996566772
291.6376751,-15.5200004577637
291.6533001,-15.7299995422363
291.6689251,-15.4300003051758
291.6845501,-14.8999996185303
291.7001751,-14.6400003433228
291.7158001,-15.0100002288818
291.7314251,-16.0400009155273
291.7470501,-17.2600002288818
291.7626751,-17.75
291.7783001,-16.5499992370605
291.7939251,-13.289999961853
291.8095501,-8.38000011444092
291.8251751,-2.58999991416931
291.8408001,3.27999997138977
291.8564251,8.64000034332275
291.8720501,13.0500001907349
291.8876751,16.25
291.9033001,18.3199996948242
291.9189251,19.6299991607666
291.9345501,20.5400009155273
291.9501751,20.9899997711182
291.9658001,20.5599994659424
291.9814251,18.9400005340576
291.9970501,16.2199993133545
292.0126751,12.7799997329712
292.0283001,9.02999973297119
292.0439251,5.32000017166138
292.0595501,2.00999999046326
292.0751751,-0.379999995231628
292.0908001,-1.35000002384186
292.1064251,-1.03999996185303
292.1220501,-0.560000002384186
292.1376751,-1.46000003814697
292.1533001,-4.48000001907349
292.1689251,-9.02000045776367
292.1845501,-13.5600004196167
292.2001751,-16.6200008392334
292.2158001,-17.5699996948242
292.2314251,-16.8700008392334
292.2470501,-15.5900001525879
292.2626751,-14.7200002670288
292.2783001,-14.6599998474121
292.2939251,-15.2600002288818
292.3095501,-16.1299991607666
292.3251751,-16.9200000762939
292.3408001,-17.5900001525879
292.3564251,-18.3199996948242
292.3720501,-19.2700004577637
292.3876751,-20.2600002288818
292.4033001,-20.7099990844727
292.4189251,-19.9400005340576
292.4345501,-17.4099998474121
292.4501751,-12.8900003433228
292.4658001,-6.69000005722046
292.4814251,0.119999997317791
292.4970501,6.26999998092651
292.5126751,11.1599998474121
292.5283001,15.2700004577637
292.5439251,19.3400001525879
292.5595501,23.4500007629395
292.5751751,26.8299999237061
292.5908001,28.4200000762939
292.6064251,27.6399993896484
292.6220501,24.7999992370605
292.6376751,20.8299999237061
292.6533001,16.7199993133545
292.6689251,12.9700002670288
292.6845501,9.55000019073486
292.7001751,6.42999982833862
292.7158001,3.75
292.7314251,1.50999999046326
292.7470501,-0.670000016689301
292.7626751,-3.35999989509583
292.7783001,-6.55000019073486
292.7939251,-9.52000045776367
292.8095501,-11.1199998855591
292.8251751,-10.6199998855591
292.8408001,-8.31999969482422
292.8564251,-5.51999998092651
292.8720501,-3.66000008583069
292.8876751,-3.73000001907349
292.9033001,-6.09999990463257
292.9189251,-10.5200004577637
292.9345501,-16.0499992370605
292.9501751,-21.3899993896484
292.9658001,-25.4500007629395
292.9814251,-27.7000007629395
292.9970501,-28.1000003814697
293.0126751,-26.9300003051758
293.0283001,-24.6299991607666
293.0439251,-21.6100006103516
293.0595501,-17.9799995422363
293.0751751,-13.5
293.0908001,-7.57000017166138
293.1064251,0.28999999165535
293.1220501,9.82999992370605
293.1376751,19.8600006103516
293.1533001,28.6599998474121
293.1689251,34.8699989318848
293.1845501,38.0400009155273
293.2001751,38.5400009155273
293.2158001,37.0999984741211
293.2314251,34.5200004577637
293.2470501,31.5599994659424
293.2626751,28.4400005340576
293.2783001,24.7700004577637
293.2939251,19.9300003051758
293.3095501,13.9700002670288
293.3251751,7.73999977111816
293.3408001,2.24000000953674
293.3564251,-2.09999990463257
293.3720501,-5.28999996185303
293.3876751,-7.34000015258789
293.4033001,-8.3100004196167
293.4189251,-8.64999961853027
293.4345501,-9.18000030517578
293.4501751,-10.5799999237061
293.4658001,-12.9700002670288
293.4814251,-15.8299999237061
293.4970501,-18.1299991607666
293.5126751,-18.7900009155273
293.5283001,-17.2399997711182
293.5439251,-13.8699998855591
293.5595501,-9.92000007629395
293.5751751,-6.73000001907349
293.5908001,-4.96999979019165
293.6064251,-4.65000009536743
293.6220501,-5.53999996185303
293.6376751,-7.46999979019165
293.6533001,-10.0100002288818
293.6689251,-12.25
293.6845501,-13.1199998855591
293.7001751,-12.0299997329712
293.7158001,-9.1899995803833
293.7314251,-5.21999979019165
293.7470501,-0.649999976158142
293.7626751,4.32999992370605
293.7783001,9.77999973297119
293.7939251,15.5299997329712
293.8095501,20.9899997711182
293.8251751,25.3199996948242
293.8408001,28.0
293.8564251,29.2199993133545
293.8720501,29.4699993133545
293.8876751,28.9500007629395
293.9033001,27.4699993133545
293.9189251,24.9099998474121
293.9345501,21.2999992370605
293.9501751,16.6299991607666
293.9658001,10.9499998092651
293.9814251,4.86999988555908
293.9970501,-0.579999983310699
294.0126751,-4.48999977111816
294.0283001,-6.46999979019165
294.0439251,-6.63000011444092
294.0595501,-5.48999977111816
294.0751751,-3.66000008583069
294.0908001,-1.75999999046326
294.1064251,-0.5
294.1220501,-0.649999976158142
294.1376751,-2.71000003814697
294.1533001,-6.51999998092651
294.1689251,-11.1199998855591
294.1845501,-15.0799999237061
294.2001751,-17.1399993896484
294.2158001,-16.7800006866455
294.2314251,-14.4399995803833
294.2470501,-11.3900003433228
294.2626751,-9.31999969482422
294.2783001,-9.27000045776367
294.2939251,-10.9700002670288
294.3095501,-13.0500001907349
294.3251751,-14.1199998855591
294.3408001,-13.7600002288818
294.3564251,-12.6300001144409
294.3720501,-11.5900001525879
294.3876751,-10.7700004577637
294.4033001,-9.43000030517578
294.4189251,-6.65000009536743
294.4345501,-2.08999991416931
294.4501751,3.78999996185303
294.4658001,10.0500001907349
294.4814251,15.7299995422363
294.4970501,20.4300003051758
294.5126751,24.3199996948242
294.5283001,27.6100006103516
294.5439251,30.2999992370605
294.5595501,32.2299995422363
294.5751751,33.1399993896484
294.5908001,32.439998626709
294.6064251,29.4200000762939
294.6220501,23.7000007629395
294.6376751,15.5500001907349
294.6533001,6.17999982833862
294.6689251,-2.30999994277954
294.6845501,-7.88000011444092
294.7001751,-9.72999954223633
294.7158001,-8.71000003814697
294.7314251,-6.55999994277954
294.7470501,-4.84999990463257
294.7626751,-4.46999979019165
294.7783001,-5.51000022888184
294.7939251,-7.44000005722046
294.8095501,-9.4399995803833
294.8251751,-10.8299999237061
294.8408001,-11.4700002670288
294.8564251,-11.7200002670288
294.8720501,-12.1199998855591
294.8876751,-13.0200004577637
294.9033001,-14.289999961853
294.9189251,-15.3999996185303
294.9345501,-15.9300003051758
294.9501751,-15.9899997711182
294.9658001,-16.2199993133545
294.9814251,-17.3500003814697
294.9970501,-19.6399993896484
295.0126751,-22.5599994659424
295.0283001,-24.8099994659424
295.0439251,-24.9200000762939
295.0595501,-21.9699993133545
295.0751751,-15.9700002670288
295.0908001,-7.73000001907349
295.1064251,1.4099999666214
295.1220501,9.96000003814697
295.1376751,16.6299991607666
295.1533001,20.75
295.1689251,22.4099998474121
295.1845501,22.3700008392334
295.2001751,21.5200004577637
295.2158001,20.4799995422363
295.2314251,19.5200004577637
295.2470501,18.4899997711182
295.2626751,16.9500007629395
295.2783001,14.5500001907349
295.2939251,11.4499998092651
295.3095501,8.27000045776367
295.3251751,5.80999994277954
295.3408001,4.46000003814697
295.3564251,3.85999989509583
295.3720501,3.30999994277954
295.3876751,2.45000004768372
295.4033001,1.32000005245209
295.4189251,-0.0500000007450581
295.4345501,-1.97000002861023
295.4501751,-4.82000017166138
295.4658001,-8.43000030517578
295.4814251,-11.8000001907349
295.4970501,-13.8100004196167
295.5126751,-14.3999996185303
295.5283001,-14.7799997329712
295.5439251,-16.3199996948242
295.5595501,-19.2700004577637
295.5751751,-22.4300003051758
295.5908001,-24.0200004577637
295.6064251,-22.9400005340576
295.6220501,-19.4500007629395
295.6376751,-14.9799995422363
295.6533001,-11.25
295.6689251,-9.39000034332275
295.6845501,-9.47000026702881
295.7001751,-10.6300001144409
295.7158001,-11.5900001525879
295.7314251,-11.4799995422363
295.7470501,-10.0699996948242
295.7626751,-7.30000019073486
295.7783001,-2.95000004768372
295.7939251,2.96000003814697
295.8095501,9.72000026702881
295.8251751,16.1599998474121
295.8408001,21.3799991607666
295.8564251,24.8999996185303
295.8720501,26.3700008392334
295.8876751,25.7399997711182
295.9033001,23.6100006103516
295.9189251,21.0200004577637
295.9345501,18.6800003051758
295.9501751,16.6700000762939
295.9658001,14.6899995803833
295.9814251,12.4399995803833
295.9970501,9.8100004196167
296.0126751,6.94000005722046
296.0283001,4.23999977111816
296.0439251,2.04999995231628
296.0595501,0.400000005960464
296.0751751,-0.819999992847443
296.0908001,-1.87999999523163
296.1064251,-2.98000001907349
296.1220501,-4.30000019073486
296.1376751,-5.82000017166138
296.1533001,-7.40999984741211
296.1689251,-8.85000038146973
296.1845501,-10.0100002288818
296.2001751,-10.9099998474121
296.2158001,-11.6199998855591
296.2314251,-12.1599998474121
296.2470501,-12.5100002288818
296.2626751,-12.6499996185303
296.2783001,-12.710000038147
296.2939251,-12.8999996185303
296.3095501,-13.3400001525879
296.3251751,-13.6800003051758
296.3408001,-13.289999961853
296.3564251,-11.7200002670288
296.3720501,-9.09000015258789
296.3876751,-5.67999982833862
296.4033001,-1.47000002861023
296.4189251,3.78999996185303
296.4345501,10.0500001907349
296.4501751,16.5400009155273
296.4658001,22.2000007629395
296.4814251,26.0799999237061
296.4970501,27.6100006103516
296.5126751,26.6800003051758
296.5283001,23.7800006866455
296.5439251,19.7199993133545
296.5595501,15.3699998855591
296.5751751,11.4300003051758
296.5908001,8.35999965667725
296.6064251,6.19000005722046
296.6220501,4.46000003814697
296.6376751,2.65000009536743
296.6533001,0.639999985694885
296.6689251,-1.4099999666214
296.6845501,-3.30999994277954
296.7001751,-4.78999996185303
296.7158001,-5.73000001907349
296.7314251,-6.17000007629395
296.7470501,-6.42999982833862
296.7626751,-6.90999984741211
296.7783001,-7.92999982833862
296.7939251,-9.44999980926514
296.8095501,-11.1499996185303
296.8251751,-12.6599998474121
296.8408001,-13.5900001525879
296.8564251,-13.8000001907349
296.8720501,-13.5699996948242
296.8876751,-13.210000038147
296.9033001,-12.6099996566772
296.9189251,-11.3500003814697
296.9345501,-9.38000011444092
296.9501751,-7.23999977111816
296.9658001,-5.73000001907349
296.9814251,-5.28999996185303
296.9970501,-5.75
297.0126751,-6.55000019073486
297.0283001,-6.88000011444092
297.0439251,-5.69999980926514
297.0595501,-2.25999999046326
297.0751751,3.26999998092651
297.0908001,9.80000019073486
297.1064251,15.7299995422363
297.1220501,19.8299999237061
297.1376751,21.7199993133545
297.1533001,21.8199996948242
297.1689251,20.6800003051758
297.1845501,18.5400009155273
297.2001751,15.4399995803833
297.2158001,11.5699996948242
297.2314251,7.32000017166138
297.2470501,3.25
297.2626751,-0.0399999991059303
297.2783001,-2.29999995231628
297.2939251,-3.83999991416931
297.3095501,-5.25
297.3251751,-6.69000005722046
297.3408001,-7.75
297.3564251,-8.0600004196167
297.3720501,-7.78000020980835
297.3876751,-7.44000005722046
297.4033001,-7.38000011444092
297.4189251,-7.44999980926514
297.4345501,-7.36999988555908
297.4501751,-7.30000019073486
297.4658001,-7.73000001907349
297.4814251,-8.84000015258789
297.4970501,-10.2600002288818
297.5126751,-11.3000001907349
297.5283001,-11.2799997329712
297.5439251,-9.89000034332275
297.5595501,-7.57999992370605
297.5751751,-5.53000020980835
297.5908001,-4.84999990463257
297.6064251,-5.84999990463257
297.6220501,-7.69000005722046
297.6376751,-8.93000030517578
297.6533001,-8.36999988555908
297.6689251,-5.78999996185303
297.6845501,-1.8400000333786
297.7001751,2.66000008583069
297.7158001,7.23000001907349
297.7314251,11.6199998855591
297.7470501,15.539999961853
297.7626751,18.5599994659424
297.7783001,20.3700008392334
297.7939251,20.9300003051758
297.8095501,20.3999996185303
297.8251751,19.0799999237061
297.8408001,17.2000007629395
297.8564251,14.7700004577637
297.8720501,11.8100004196167
297.8876751,8.52000045776367
297.9033001,5.26999998092651
297.9189251,2.40000009536743
297.9345501,0.150000005960464
297.9501751,-1.52999997138977
297.9658001,-2.9300000667572
297.9814251,-4.23999977111816
297.9970501,-5.3600001335144
298.0126751,-5.94999980926514
298.0283001,-5.76000022888184
298.0439251,-4.84000015258789
298.0595501,-3.65000009536743
298.0751751,-2.75
298.0908001,-2.38000011444092
298.1064251,-2.41000008583069
298.1220501,-2.63000011444092
298.1376751,-2.97000002861023
298.1533001,-3.52999997138977
298.1689251,-4.51999998092651
298.1845501,-5.94999980926514
298.2001751,-7.34999990463257
298.2158001,-7.84000015258789
298.2314251,-6.71000003814697
298.2470501,-3.84999990463257
298.2626751,0.419999986886978
298.2783001,5.3600001335144
298.2939251,9.89999961853027
298.3095501,13.1800003051758
298.3251751,15.1300001144409
298.3408001,16.2700004577637
298.3564251,16.9599990844727
298.3720501,17.0100002288818
298.3876751,16.1100006103516
298.4033001,14.2600002288818
298.4189251,11.8699998855591
298.4345501,9.55000019073486
298.4501751,7.67000007629395
298.4658001,5.98000001907349
298.4814251,3.95000004768372
298.4970501,1.5
298.5126751,-0.899999976158142
298.5283001,-2.69000005722046
298.5439251,-3.60999989509583
298.5595501,-3.66000008583069
298.5751751,-3.26999998092651
298.5908001,-3.53999996185303
298.6064251,-5.73000001907349
298.6220501,-10.1300001144409
298.6376751,-15.5799999237061
298.6533001,-20.2900009155273
298.6689251,-23.0900001525879
298.6845501,-23.7900009155273
298.7001751,-22.8700008392334
298.7158001,-20.9400005340576
298.7314251,-18.5699996948242
298.7470501,-16.3999996185303
298.7626751,-15.0699996948242
298.7783001,-14.960000038147
298.7939251,-15.9099998474121
298.8095501,-17.2999992370605
298.8251751,-18.3899993896484
298.8408001,-18.6700000762939
298.8564251,-17.8999996185303
298.8720501,-15.9700002670288
298.8876751,-12.8900003433228
298.9033001,-8.67000007629395
298.9189251,-3.30999994277954
298.9345501,2.97000002861023
298.9501751,9.52999973297119
298.9658001,15.3000001907349
298.9814251,19.3600006103516
298.9970501,21.6100006103516
299.0126751,22.7399997711182
299.0283001,23.5699996948242
299.0439251,24.5100002288818
299.0595501,25.3199996948242
299.0751751,25.3099994659424
299.0908001,23.9699993133545
299.1064251,21.2199993133545
299.1220501,17.4500007629395
299.1376751,13.2600002288818
299.1533001,9.3100004196167
299.1689251,6.0
299.1845501,3.24000000953674
299.2001751,0.550000011920929
299.2158001,-2.57999992370605
299.2314251,-6.34999990463257
299.2470501,-10.4799995422363
299.2626751,-14.3500003814697
299.2783001,-17.1200008392334
299.2939251,-18.0499992370605
299.3095501,-16.8600006103516
299.3251751,-14.1400003433228
299.3408001,-11.1800003051758
299.3564251,-9.35000038146973
299.3720501,-9.30000019073486
299.3876751,-10.8400001525879
299.4033001,-13.1199998855591
299.4189251,-15.0500001907349
299.4345501,-15.6899995803833
299.4501751,-14.7700004577637
299.4658001,-12.8299999237061
299.4814251,-10.8299999237061
299.4970501,-9.59000015258789
299.5126751,-9.02999973297119
299.5283001,-7.98000001907349
299.5439251,-4.98000001907349
299.5595501,0.610000014305115
299.5751751,7.92999982833862
299.5908001,15.0799999237061
299.6064251,20.2600002288818
299.6220501,22.4699993133545
299.6376751,21.6599998474121
299.6533001,18.7099990844727
299.6689251,15.1499996185303
299.6845501,12.6000003814697
299.7001751,12.0600004196167
299.7158001,13.2799997329712
299.7314251,14.7799997329712
299.7470501,14.7700004577637
299.7626751,12.3500003814697
299.7783001,8.14000034332275
299.7939251,3.84999990463257
299.8095501,0.949999988079071
299.8251751,-0.230000004172325
299.8408001,-0.519999980926514
299.8564251,-1.00999999046326
299.8720501,-2.40000009536743
299.8876751,-4.6399998664856
299.9033001,-7.0
299.9189251,-8.6899995803833
299.9345501,-9.36999988555908
299.9501751,-9.3100004196167
299.9658001,-9.0600004196167
299.9814251,-8.92000007629395
299.9970501,-8.81999969482422
300.0126751,-8.57999992370605
300.0283001,-8.18000030517578
300.0439251,-7.92999982833862
300.0595501,-8.28999996185303
300.0751751,-9.52999973297119
300.0908001,-11.4700002670288
300.1064251,-13.5299997329712
300.1220501,-14.8699998855591
300.1376751,-14.460000038147
300.1533001,-11.3299999237061
300.1689251,-5.32999992370605
300.1845501,2.44000005722046
300.2001751,10.1700000762939
300.2158001,16.2199993133545
300.2314251,19.8199996948242
300.2470501,21.0900001525879
300.2626751,20.8199996948242
300.2783001,20.1599998474121
300.2939251,19.9699993133545
300.3095501,20.2000007629395
300.3251751,20.0400009155273
300.3408001,18.6200008392334
300.3564251,15.7399997711182
300.3720501,11.8100004196167
300.3876751,7.55999994277954
300.4033001,3.79999995231628
300.4189251,1.22000002861023
300.4345501,0.100000001490116
300.4501751,0.159999996423721
300.4658001,0.850000023841858
300.4814251,1.58000004291534
300.4970501,1.96000003814697
300.5126751,1.85000002384186
300.5283001,1.22000002861023
300.5439251,-0.0500000007450581
300.5595501,-2.26999998092651
300.5751751,-5.44000005722046
300.5908001,-9.09000015258789
300.6064251,-12.4099998474121
300.6220501,-14.8199996948242
300.6376751,-16.2900009155273
300.6533001,-17.3099994659424
300.6689251,-18.3400001525879
