Time(s),Value(%)
1020.0071752,-16.4899997711182
1020.0228002,-14.0299997329712
1020.0384252,-13.1899995803833
1020.0540502,-13.5
1020.0696752,-13.8400001525879
1020.0853002,-12.4300003051758
1020.1009252,-7.03000020980835
1020.1165502,3.82999992370605
1020.1321752,19.4699993133545
1020.1478002,36.8300018310547
1020.1634252,51.939998626709
1020.1790502,61.939998626709
1020.1946752,66.1100006103516
1020.2103002,65.6800003051758
1020.2259252,62.7799987792969
1020.2415502,59.2299995422363
1020.2571752,55.7400016784668
1020.2728002,52.1500015258789
1020.2884252,48.0999984741211
1020.3040502,43.5
1020.3196752,38.3800010681152
1020.3353002,32.4900016784668
1020.3509252,25.4099998474121
1020.3665502,17.2700004577637
1020.3821752,9.03999996185303
1020.3978002,2.02999997138977
1020.4134252,-2.91000008583069
1020.4290502,-5.92000007629395
1020.4446752,-7.96000003814697
1020.4603002,-10.1599998474121
1020.4759252,-13.1800003051758
1020.4915502,-16.8899993896484
1020.5071752,-20.6800003051758
1020.5228002,-23.8700008392334
1020.5384252,-26.0599994659424
1020.5540502,-27.2099990844727
1020.5696752,-27.6100006103516
1020.5853002,-27.6800003051758
1020.6009252,-27.8400001525879
1020.6165502,-28.3999996185303
1020.6321752,-29.5
1020.6478002,-30.9099998474121
1020.6634252,-32.0299987792969
1020.6790502,-32.1500015258789
1020.6946752,-30.7999992370605
1020.7103002,-28.1200008392334
1020.7259252,-24.8799991607666
1020.7415502,-22.0799999237061
1020.7571752,-20.3299999237061
1020.7728002,-19.4599990844727
1020.7884252,-18.7399997711182
1020.8040502,-17.6100006103516
1020.8196752,-15.9799995422363
1020.8353002,-14.1400003433228
1020.8509252,-12.6000003814697
1020.8665502,-11.8800001144409
1020.8821752,-12.25
1020.8978002,-13.4799995422363
1020.9134252,-14.4200000762939
1020.9290502,-12.9799995422363
1020.9446752,-6.71999979019165
1020.9603002,5.80000019073486
1020.9759252,23.9099998474121
1020.9915502,44.5400009155273
1021.0071752,63.3600006103516
1021.0228002,76.5800018310547
1021.0384252,82.3600006103516
1021.0540502,81.1399993896484
1021.0696752,75.0199966430664
1021.0853002,66.75
1021.1009252,58.6699981689453
1021.1165502,52.0200004577637
1021.1321752,46.9199981689453
1021.1478002,42.6599998474121
1021.1634252,38.0
1021.1790502,31.8099994659424
1021.1946752,23.9200000762939
1021.2103002,15.4700002670288
1021.2259252,8.15999984741211
1021.2415502,3.23000001907349
1021.2571752,0.850000023841858
1021.2728002,0.180000007152557
1021.2884252,-0.0299999993294477
1021.3040502,-0.829999983310699
1021.3196752,-2.73000001907349
1021.3353002,-5.80000019073486
1021.3509252,-9.97999954223633
1021.3665502,-15.0799999237061
1021.3821752,-20.5
1021.3978002,-25.2600002288818
1021.4134252,-28.7099990844727
1021.4290502,-31.0400009155273
1021.4446752,-32.9599990844727
1021.4603002,-34.8600006103516
1021.4759252,-36.310001373291
1021.4915502,-36.4000015258789
1021.5071752,-34.5200004577637
1021.5228002,-30.7099990844727
1021.5384252,-25.6399993896484
1021.5540502,-20.4500007629395
1021.5696752,-16.4599990844727
1021.5853002,-14.6099996566772
1021.6009252,-14.8999996185303
1021.6165502,-16.3799991607666
1021.6321752,-17.6499996185303
1021.6478002,-17.6299991607666
1021.6634252,-16.0400009155273
1021.6790502,-13.460000038147
1021.6946752,-11.0100002288818
1021.7103002,-9.65999984741211
1021.7259252,-9.52999973297119
1021.7415502,-9.23999977111816
1021.7571752,-6.05999994277954
1021.7728002,2.70000004768372
1021.7884252,17.6200008392334
1021.8040502,36.0499992370605
1021.8196752,53.1699981689453
1021.8353002,64.4599990844727
1021.8509252,67.7799987792969
1021.8665502,63.9099998474121
1021.8821752,55.6800003051758
1021.8978002,46.3699989318848
1021.9134252,38.3400001525879
1021.9290502,32.5400009155273
1021.9446752,28.7999992370605
1021.9603002,26.3799991607666
1021.9759252,24.3099994659424
1021.9915502,21.5799999237061
1022.0071752,17.6200008392334
1022.0228002,12.75
1022.0384252,8.02000045776367
1022.0540502,4.34000015258789
1022.0696752,1.97000002861023
1022.0853002,0.479999989271164
1022.1009252,-0.899999976158142
1022.1165502,-2.99000000953674
1022.1321752,-6.13000011444092
1022.1478002,-10.039999961853
1022.1634252,-14.0100002288818
1022.1790502,-17.4699993133545
1022.1946752,-20.3500003814697
1022.2103002,-22.7999992370605
1022.2259252,-24.7299995422363
1022.2415502,-25.9699993133545
1022.2571752,-26.7299995422363
1022.2728002,-27.3299999237061
1022.2884252,-27.6700000762939
1022.3040502,-27.2000007629395
1022.3196752,-25.3999996185303
1022.3353002,-22.2399997711182
1022.3509252,-18.4599990844727
1022.3665502,-15.3299999237061
1022.3821752,-14.0
1022.3978002,-14.6400003433228
1022.4134252,-16.25
1022.4290502,-17.2999992370605
1022.4446752,-16.9200000762939
1022.4603002,-15.6400003433228
1022.4759252,-14.6800003051758
1022.4915502,-14.5200004577637
1022.5071752,-13.9399995803833
1022.5228002,-10.5900001525879
1022.5384252,-2.45000004768372
1022.5540502,10.6999998092651
1022.5696752,26.6900005340576
1022.5853002,41.6100006103516
1022.6009252,51.8400001525879
1022.6165502,55.8600006103516
1022.6321752,54.5400009155273
1022.6478002,49.9700012207031
1022.6634252,44.0699996948242
1022.6790502,38.1399993896484
1022.6946752,32.7099990844727
1022.7103002,27.7000007629395
1022.7259252,22.6200008392334
1022.7415502,16.9799995422363
1022.7571752,10.4799995422363
1022.7728002,3.3199999332428
1022.7884252,-3.72000002861023
1022.8040502,-9.65999984741211
1022.8196752,-13.75
1022.8353002,-16.0499992370605
1022.8509252,-17.5300006866455
1022.8665502,-19.4200000762939
1022.8821752,-22.3999996185303
1022.8978002,-26.1900005340576
1022.9134252,-29.8299999237061
1022.9290502,-32.2700004577637
1022.9446752,-32.939998626709
1022.9603002,-32.0099983215332
1022.9759252,-30.2399997711182
1022.9915502,-28.6000003814697
1023.0071752,-27.7999992370605
1023.0228002,-27.8199996948242
1023.0384252,-27.9200000762939
1023.0540502,-27.1900005340576
1023.0696752,-25.2600002288818
1023.0853002,-22.7800006866455
1023.1009252,-21.0200004577637
1023.1165502,-20.9300003051758
1023.1321752,-22.5400009155273
1023.1478002,-25.1900005340576
1023.1634252,-28.0900001525879
1023.1790502,-30.3899993896484
1023.1946752,-31.2099990844727
1023.2103002,-29.8500003814697
1023.2259252,-26.2800006866455
1023.2415502,-21.2399997711182
1023.2571752,-15.9899997711182
1023.2728002,-11.6700000762939
1023.2884252,-8.5600004196167
1023.3040502,-5.44999980926514
1023.3196752,-0.119999997317791
1023.3353002,9.22999954223633
1023.3509252,22.4300003051758
1023.3665502,37.0499992370605
1023.3821752,49.6199989318848
1023.3978002,57.5400009155273
1023.4134252,59.9799995422363
1023.4290502,57.6800003051758
1023.4446752,52.3300018310547
1023.4603002,45.7900009155273
1023.4759252,39.5099983215332
1023.4915502,34.2599983215332
1023.5071752,30.2000007629395
1023.5228002,27.1399993896484
1023.5384252,24.4500007629395
1023.5540502,21.0699996948242
1023.5696752,15.9300003051758
1023.5853002,8.89999961853027
1023.6009252,1.17999994754791
1023.6165502,-5.36999988555908
1023.6321752,-9.48999977111816
1023.6478002,-11.2600002288818
1023.6634252,-11.8199996948242
1023.6790502,-12.3500003814697
1023.6946752,-13.3599996566772
1023.7103002,-14.6499996185303
1023.7259252,-15.9300003051758
1023.7415502,-17.0499992370605
1023.7571752,-18.1700000762939
1023.7728002,-19.5599994659424
1023.7884252,-21.4300003051758
1023.8040502,-23.5799999237061
1023.8196752,-25.3199996948242
1023.8353002,-25.8700008392334
1023.8509252,-25.1000003814697
1023.8665502,-23.7800006866455
1023.8821752,-22.9400005340576
1023.8978002,-23.0699996948242
1023.9134252,-23.6599998474121
1023.9290502,-23.7099990844727
1023.9446752,-22.5900001525879
1023.9603002,-20.6700000762939
1023.9759252,-18.8899993896484
1023.9915502,-17.8600006103516
1024.0071752,-17.2399997711182
1024.0228002,-16.0900001525879
1024.0384252,-13.8599996566772
1024.0540502,-11.0
1024.0696752,-8.80000019073486
1024.0853002,-8.28999996185303
1024.1009252,-9.27999973297119
1024.1165502,-10.3599996566772
1024.1321752,-9.52000045776367
1024.1478002,-4.82000017166138
1024.1634252,4.73000001907349
1024.1790502,18.5400009155273
1024.1946752,34.1100006103516
1024.2103002,48.0
1024.2259252,57.5
1024.2415502,61.6399993896484
1024.2571752,60.8600006103516
1024.2728002,56.2400016784668
1024.2884252,49.1599998474121
1024.3040502,41.0299987792969
1024.3196752,32.8800010681152
1024.3353002,25.1499996185303
1024.3509252,17.9899997711182
1024.3665502,11.6199998855591
1024.3821752,6.34999990463257
1024.3978002,2.28999996185303
1024.4134252,-0.649999976158142
1024.4290502,-2.75
1024.4446752,-4.34000015258789
1024.4603002,-5.80999994277954
1024.4759252,-7.55000019073486
1024.4915502,-9.92000007629395
1024.5071752,-13.1800003051758
1024.5228002,-17.2199993133545
1024.5384252,-21.5300006866455
1024.5540502,-25.3199996948242
1024.5696752,-27.75
1024.5853002,-28.2800006866455
1024.6009252,-26.8700008392334
1024.6165502,-24.1299991607666
1024.6321752,-21.0699996948242
1024.6478002,-18.7000007629395
1024.6634252,-17.6100006103516
1024.6790502,-17.8600006103516
1024.6946752,-19.1000003814697
1024.7103002,-20.7299995422363
1024.7259252,-22.2299995422363
1024.7415502,-23.1800003051758
1024.7571752,-23.2900009155273
1024.7728002,-22.3600006103516
1024.7884252,-20.4200000762939
1024.8040502,-17.9200000762939
1024.8196752,-15.5799999237061
1024.8353002,-13.8999996185303
1024.8509252,-12.8999996185303
1024.8665502,-12.4300003051758
1024.8821752,-12.4799995422363
1024.8978002,-13.1499996185303
1024.9134252,-14.289999961853
1024.9290502,-14.9700002670288
1024.9446752,-13.5799999237061
1024.9603002,-8.32999992370605
1024.9759252,1.86000001430511
1024.9915502,16.5799999237061
1025.0071752,33.4000015258789
1025.0228002,48.4799995422363
1025.0384252,58.2799987792969
1025.0540502,61.1800003051758
1025.0696752,57.8499984741211
1025.0853002,50.4700012207031
1025.1009252,41.6800003051758
1025.1165502,33.6100006103516
1025.1321752,27.1800003051758
1025.1478002,22.1399993896484
1025.1634252,17.9799995422363
1025.1790502,14.4200000762939
1025.1946752,11.1599998474121
1025.2103002,7.55999994277954
1025.2259252,3.02999997138977
1025.2415502,-2.34999990463257
1025.2571752,-7.67000007629395
1025.2728002,-11.6800003051758
1025.2884252,-13.7600002288818
1025.3040502,-14.3500003814697
1025.3196752,-14.4099998474121
1025.3353002,-14.6599998474121
1025.3509252,-15.2200002670288
1025.3665502,-15.6199998855591
1025.3821752,-15.3000001907349
1025.3978002,-14.0600004196167
1025.4134252,-12.1599998474121
1025.4290502,-10.1700000762939
1025.4446752,-8.89000034332275
1025.4603002,-9.14999961853027
1025.4759252,-11.2399997711182
1025.4915502,-14.539999961853
1025.5071752,-17.7000007629395
1025.5228002,-19.2800006866455
1025.5384252,-18.5599994659424
1025.5540502,-15.8000001907349
1025.5696752,-11.8500003814697
1025.5853002,-7.82000017166138
1025.6009252,-4.78999996185303
1025.6165502,-3.5
1025.6321752,-3.97000002861023
1025.6478002,-5.26999998092651
1025.6634252,-5.86999988555908
1025.6790502,-4.13000011444092
1025.6946752,1.41999995708466
1025.7103002,11.5100002288818
1025.7259252,25.3299999237061
1025.7415502,40.4000015258789
1025.7571752,53.3300018310547
1025.7728002,61.2799987792969
1025.7884252,63.0800018310547
1025.8040502,59.3400001525879
1025.8196752,51.8899993896484
1025.8353002,43.0999984741211
1025.8509252,35.25
1025.8665502,29.7600002288818
1025.8821752,26.7900009155273
1025.8978002,25.7299995422363
1025.9134252,25.5699996948242
1025.9290502,24.9699993133545
1025.9446752,22.6399993896484
1025.9603002,18.1499996185303
1025.9759252,12.1800003051758
1025.9915502,5.80000019073486
1026.0071752,-0.389999985694885
1026.0228002,-6.48000001907349
1026.0384252,-12.8299999237061
1026.0540502,-19.4599990844727
1026.0696752,-25.7399997711182
1026.0853002,-30.5499992370605
1026.1009252,-33.1100006103516
1026.1165502,-33.6500015258789
1026.1321752,-33.2400016784668
1026.1478002,-32.9599990844727
1026.1634252,-33.2700004577637
1026.1790502,-33.8300018310547
1026.1946752,-34.0800018310547
1026.2103002,-33.7900009155273
1026.2259252,-33.2200012207031
1026.2415502,-32.689998626709
1026.2571752,-32.1199989318848
1026.2728002,-31.0799999237061
1026.2884252,-29.4300003051758
1026.3040502,-27.75
1026.3196752,-27.0499992370605
1026.3353002,-27.8999996185303
1026.3509252,-29.7900009155273
1026.3665502,-31.2199993133545
1026.3821752,-30.5599994659424
1026.3978002,-26.8500003814697
1026.4134252,-19.9799995422363
1026.4290502,-10.1599998474121
1026.4446752,2.49000000953674
1026.4603002,17.5799999237061
1026.4759252,33.7900009155273
1026.4915502,48.7999992370605
1026.5071752,60.0200004577637
1026.5228002,65.5899963378906
1026.5384252,65.25
1026.5540502,60.25
1026.5696752,52.7900009155273
1026.5853002,45.0999984741211
1026.6009252,38.7000007629395
1026.6165502,33.9199981689453
1026.6321752,30.1399993896484
1026.6478002,26.3899993896484
1026.6634252,21.9400005340576
1026.6790502,16.5200004577637
1026.6946752,10.3000001907349
1026.7103002,3.77999997138977
1026.7259252,-2.24000000953674
1026.7415502,-6.92000007629395
1026.7571752,-9.64999961853027
1026.7728002,-10.460000038147
1026.7884252,-10.1499996185303
1026.8040502,-9.98999977111816
1026.8196752,-11.0
1026.8353002,-13.25
1026.8509252,-15.7200002670288
1026.8665502,-17.0499992370605
1026.8821752,-16.6700000762939
1026.8978002,-15.289999961853
1026.9134252,-14.3699998855591
1026.9290502,-15.0
1026.9446752,-17.2199993133545
1026.9603002,-20.0400009155273
1026.9759252,-22.0200004577637
1026.9915502,-22.1900005340576
1027.0071752,-20.6100006103516
1027.0228002,-18.1900005340576
1027.0384252,-15.9399995803833
1027.0540502,-14.5
1027.0696752,-14.1800003051758
1027.0853002,-15.0200004577637
1027.1009252,-16.8700008392334
1027.1165502,-19.3899993896484
1027.1321752,-22.1599998474121
1027.1478002,-24.5900001525879
1027.1634252,-25.6399993896484
1027.1790502,-23.7700004577637
1027.1946752,-17.7299995422363
1027.2103002,-7.53000020980835
1027.2259252,5.21999979019165
1027.2415502,18.0300006866455
1027.2571752,28.5599994659424
1027.2728002,35.2299995422363
1027.2884252,37.3899993896484
1027.3040502,35.4799995422363
1027.3196752,30.8799991607666
1027.3353002,25.4300003051758
1027.3509252,20.7600002288818
1027.3665502,17.7800006866455
1027.3821752,16.4899997711182
1027.3978002,16.0400009155273
1027.4134252,15.1999998092651
1027.4290502,12.9799995422363
1027.4446752,9.09000015258789
1027.4603002,3.97000002861023
1027.4759252,-1.66999995708466
1027.4915502,-7.36999988555908
1027.5071752,-12.9499998092651
1027.5228002,-18.3500003814697
1027.5384252,-23.4699993133545
1027.5540502,-28.2800006866455
1027.5696752,-32.7200012207031
1027.5853002,-36.75
1027.6009252,-40.1800003051758
1027.6165502,-42.6300010681152
1027.6321752,-43.7900009155273
1027.6478002,-43.5900001525879
1027.6634252,-42.3300018310547
1027.6790502,-40.4000015258789
1027.6946752,-37.9799995422363
1027.7103002,-35.1500015258789
1027.7259252,-32.1800003051758
1027.7415502,-29.5499992370605
1027.7571752,-27.6100006103516
1027.7728002,-26.1900005340576
1027.7884252,-24.5400009155273
1027.8040502,-21.7999992370605
1027.8196752,-17.9099998474121
1027.8353002,-13.8100004196167
1027.8509252,-10.6999998092651
1027.8665502,-9.07999992370605
1027.8821752,-8.43000030517578
1027.8978002,-8.0
1027.9134252,-7.61999988555908
1027.9290502,-7.42000007629395
1027.9446752,-6.75
1027.9603002,-3.59999990463257
1027.9759252,4.38000011444092
1027.9915502,17.9099998474121
1028.0071752,35.0699996948242
1028.0228002,52.060001373291
1028.0384252,65.0699996948242
1028.0540502,72.0
1028.0696752,72.9300003051758
1028.0853002,69.4100036621094
1028.1009252,63.4599990844727
1028.1165502,57.1300010681152
1028.1321752,51.9900016784668
1028.1478002,48.6300010681152
1028.1634252,46.310001373291
1028.1790502,43.4099998474121
1028.1946752,38.2999992370605
1028.2103002,30.2399997711182
1028.2259252,19.8899993896484
1028.2415502,9.09000015258789
1028.2571752,0.0799999982118607
1028.2728002,-5.59999990463257
1028.2884252,-7.75
1028.3040502,-7.40999984741211
1028.3196752,-6.26000022888184
1028.3353002,-5.8600001335144
1028.3509252,-7.21000003814697
1028.3665502,-10.460000038147
1028.3821752,-14.8299999237061
1028.3978002,-18.8999996185303
1028.4134252,-21.5300006866455
1028.4290502,-22.6399993896484
1028.4446752,-22.9200000762939
1028.4603002,-22.9699993133545
1028.4759252,-22.8999996185303
1028.4915502,-22.5799999237061
1028.5071752,-21.7700004577637
1028.5228002,-20.4099998474121
1028.5384252,-19.0
1028.5540502,-18.2700004577637
1028.5696752,-18.5
1028.5853002,-19.3299999237061
1028.6009252,-19.9099998474121
1028.6165502,-19.2600002288818
1028.6321752,-16.9699993133545
1028.6478002,-13.6700000762939
1028.6634252,-10.6999998092651
1028.6790502,-8.98999977111816
1028.6946752,-7.94000005722046
1028.7103002,-5.28999996185303
1028.7259252,1.82000005245209
1028.7415502,14.7299995422363
1028.7571752,31.9099998474121
1028.7728002,49.5900001525879
1028.7884252,63.5499992370605
1028.8040502,70.9899978637695
1028.8196752,71.4300003051758
1028.8353002,66.3899993896484
1028.8509252,58.4000015258789
1028.8665502,50.0800018310547
1028.8821752,43.310001373291
1028.8978002,38.7700004577637
1028.9134252,35.7000007629395
1028.9290502,32.5999984741211
1028.9446752,28.1200008392334
1028.9603002,21.7999992370605
1028.9759252,14.1499996185303
1028.9915502,6.1399998664856
1029.0071752,-1.37000000476837
1029.0228002,-7.82000017166138
1029.0384252,-12.7700004577637
1029.0540502,-16.1000003814697
1029.0696752,-18.0900001525879
1029.0853002,-19.3899993896484
1029.1009252,-20.6100006103516
1029.1165502,-21.9799995422363
1029.1321752,-23.3199996948242
1029.1478002,-24.1700000762939
1029.1634252,-24.1100006103516
1029.1790502,-23.1200008392334
1029.1946752,-21.8999996185303
1029.2103002,-21.6100006103516
1029.2259252,-23.1200008392334
1029.2415502,-26.1599998474121
1029.2571752,-29.3400001525879
1029.2728002,-31.1200008392334
1029.2884252,-30.5900001525879
1029.3040502,-27.9200000762939
1029.3196752,-24.2999992370605
1029.3353002,-21.2000007629395
1029.3509252,-19.6399993896484
1029.3665502,-19.7700004577637
1029.3821752,-21.1499996185303
1029.3978002,-23.0100002288818
1029.4134252,-24.3999996185303
1029.4290502,-24.1000003814697
1029.4446752,-20.6299991607666
1029.4603002,-12.75
1029.4759252,-0.109999999403954
1029.4915502,16.0100002288818
1029.5071752,32.6599998474121
1029.5228002,46.2799987792969
1029.5384252,54.4099998474121
1029.5540502,56.7200012207031
1029.5696752,54.7900009155273
1029.5853002,50.9599990844727
1029.6009252,47.1500015258789
1029.6165502,44.1500015258789
1029.6321752,41.7200012207031
1029.6478002,38.9900016784668
1029.6634252,35.0499992370605
1029.6790502,29.4899997711182
1029.6946752,22.6800003051758
1029.7103002,15.5299997329712
1029.7259252,8.86999988555908
1029.7415502,2.97000002861023
1029.7571752,-2.24000000953674
1029.7728002,-6.78000020980835
1029.7884252,-10.4799995422363
1029.8040502,-13.3900003433228
1029.8196752,-16.0400009155273
1029.8353002,-19.1200008392334
1029.8509252,-22.8400001525879
1029.8665502,-26.7600002288818
1029.8821752,-30.2600002288818
1029.8978002,-33.1100006103516
1029.9134252,-35.4199981689453
1029.9290502,-37.1300010681152
1029.9446752,-37.7000007629395
1029.9603002,-36.2900009155273
1029.9759252,-32.439998626709
1029.9915502,-26.6299991607666
1030.0071752,-20.2800006866455
1030.0228002,-15.1199998855591
1030.0384252,-12.2700004577637
1030.0540502,-11.7700004577637
1030.0696752,-12.8000001907349
1030.0853002,-14.460000038147
1030.1009252,-16.2900009155273
1030.1165502,-18.1100006103516
1030.1321752,-19.6499996185303
1030.1478002,-20.3099994659424
1030.1634252,-19.1100006103516
1030.1790502,-14.6400003433228
1030.1946752,-5.73999977111816
1030.2103002,7.36999988555908
1030.2259252,22.6900005340576
1030.2415502,37.2099990844727
1030.2571752,48.060001373291
1030.2728002,53.5200004577637
1030.2884252,53.560001373291
1030.3040502,49.5299987792969
1030.3196752,43.3400001525879
1030.3353002,36.6699981689453
1030.3509252,30.5
1030.3665502,24.9099998474121
1030.3821752,19.4500007629395
