Time(s),Value(%)
1724.0123722,-6.28000020980835
1724.0279972,-6.53000020980835
1724.0436222,-6.57000017166138
1724.0592472,-6.42999982833862
1724.0748722,-6.19999980926514
1724.0904972,-5.96000003814697
1724.1061222,-5.78000020980835
1724.1217472,-5.67999982833862
1724.1373722,-5.57000017166138
1724.1529972,-5.44000005722046
1724.1686222,-5.30000019073486
1724.1842472,-5.15000009536743
1724.1998722,-4.98999977111816
1724.2154972,-4.84000015258789
1724.2311222,-4.67999982833862
1724.2467472,-4.51999998092651
1724.2623722,-4.40999984741211
1724.2779972,-4.3899998664856
1724.2936222,-4.46999979019165
1724.3092472,-4.63000011444092
1724.3248722,-4.82000017166138
1724.3404972,-4.98000001907349
1724.3561222,-5.11999988555908
1724.3717472,-5.25
1724.3873722,-5.19000005722046
1724.4029972,-4.51000022888184
1724.4186222,-2.78999996185303
1724.4342472,0.0399999991059303
1724.4498722,3.66000008583069
1724.4654972,7.3600001335144
1724.4811222,10.4499998092651
1724.4967472,12.4499998092651
1724.5123722,13.1899995803833
1724.5279972,12.8699998855591
1724.5436222,11.960000038147
1724.5592472,10.9499998092651
1724.5748722,10.1300001144409
1724.5904972,9.56999969482422
1724.6061222,9.19999980926514
1724.6217472,8.90999984741211
1724.6373722,8.53999996185303
1724.6529972,7.78000020980835
1724.6686222,6.44999980926514
1724.6842472,4.57999992370605
1724.6998722,2.50999999046326
1724.7154972,0.660000026226044
1724.7311222,-0.579999983310699
1724.7467472,-1.12999999523163
1724.7623722,-1.1599999666214
1724.7779972,-1.04999995231628
1724.7936222,-1.13999998569489
1724.8092472,-1.50999999046326
1724.8248722,-2.03999996185303
1724.8404972,-2.50999999046326
1724.8561222,-2.78999996185303
1724.8717472,-2.86999988555908
1724.8873722,-2.86999988555908
1724.9029972,-2.94000005722046
1724.9186222,-3.10999989509583
1724.9342472,-3.25
1724.9498722,-3.28999996185303
1724.9654972,-3.25
1724.9811222,-3.23000001907349
1724.9967472,-3.24000000953674
1725.0123722,-3.19000005722046
1725.0279972,-3.02999997138977
1725.0436222,-2.76999998092651
1725.0592472,-2.48000001907349
1725.0748722,-2.26999998092651
1725.0904972,-2.25
1725.1061222,-2.45000004768372
1725.1217472,-2.8199999332428
1725.1373722,-3.17000007629395
1725.1529972,-3.35999989509583
1725.1686222,-3.38000011444092
1725.1842472,-3.22000002861023
1725.1998722,-2.82999992370605
1725.2154972,-2.27999997138977
1725.2311222,-1.79999995231628
1725.2467472,-1.54999995231628
1725.2623722,-1.50999999046326
1725.2779972,-1.45000004768372
1725.2936222,-1.14999997615814
1725.3092472,-0.5
1725.3248722,0.449999988079071
1725.3404972,1.79999995231628
1725.3561222,3.66000008583069
1725.3717472,5.96999979019165
1725.3873722,8.44999980926514
1725.4029972,10.6999998092651
1725.4186222,12.3100004196167
1725.4342472,13.0100002288818
1725.4498722,12.7200002670288
1725.4654972,11.6800003051758
1725.4811222,10.2600002288818
1725.4967472,8.84000015258789
1725.5123722,7.53000020980835
1725.5279972,6.30000019073486
1725.5436222,5.03999996185303
1725.5592472,3.70000004768372
1725.5748722,2.33999991416931
1725.5904972,0.949999988079071
1725.6061222,-0.560000002384186
1725.6217472,-2.19000005722046
1725.6373722,-3.76999998092651
1725.6529972,-5.05000019073486
1725.6686222,-5.84000015258789
1725.6842472,-6.21999979019165
1725.6998722,-6.3600001335144
1725.7154972,-6.42000007629395
1725.7311222,-6.42000007629395
1725.7467472,-6.32999992370605
1725.7623722,-6.09999990463257
1725.7779972,-5.76999998092651
1725.7936222,-5.40999984741211
1725.8092472,-5.21999979019165
1725.8248722,-5.26999998092651
1725.8404972,-5.44999980926514
1725.8561222,-5.57000017166138
1725.8717472,-5.55000019073486
1725.8873722,-5.46999979019165
1725.9029972,-5.44999980926514
1725.9186222,-5.53999996185303
1725.9342472,-5.69999980926514
1725.9498722,-5.84000015258789
1725.9654972,-5.80000019073486
1725.9811222,-5.5
1725.9967472,-4.90999984741211
1726.0123722,-3.98000001907349
1726.0279972,-2.74000000953674
1726.0436222,-1.41999995708466
1726.0592472,-0.370000004768372
1726.0748722,0.219999998807907
1726.0904972,0.479999989271164
1726.1061222,0.730000019073486
1726.1217472,1.21000003814697
1726.1373722,1.88999998569489
1726.1529972,2.61999988555908
1726.1686222,3.26999998092651
1726.1842472,3.74000000953674
1726.1998722,3.91000008583069
1726.2154972,3.75999999046326
1726.2311222,3.49000000953674
1726.2467472,3.4300000667572
1726.2623722,3.92000007629395
1726.2779972,5.07000017166138
1726.2936222,6.6100001335144
1726.3092472,8.05000019073486
1726.3248722,8.90999984741211
1726.3404972,8.96000003814697
1726.3561222,8.34000015258789
1726.3717472,7.38000011444092
1726.3873722,6.36999988555908
1726.4029972,5.46000003814697
1726.4186222,4.63000011444092
1726.4342472,3.82999992370605
1726.4498722,3.08999991416931
1726.4654972,2.46000003814697
1726.4811222,1.85000002384186
1726.4967472,1.05999994277954
1726.5123722,0.0099999997764825
1726.5279972,-1.21000003814697
1726.5436222,-2.5
1726.5592472,-3.75
1726.5748722,-4.80000019073486
1726.5904972,-5.46000003814697
1726.6061222,-5.67999982833862
1726.6217472,-5.59999990463257
1726.6373722,-5.38000011444092
1726.6529972,-5.03000020980835
1726.6686222,-4.57999992370605
1726.6842472,-4.1399998664856
1726.6998722,-3.90000009536743
1726.7154972,-3.90000009536743
1726.7311222,-4.05999994277954
1726.7467472,-4.19999980926514
1726.7623722,-4.25
1726.7779972,-4.21999979019165
1726.7936222,-4.07000017166138
1726.8092472,-3.77999997138977
1726.8248722,-3.41000008583069
1726.8404972,-3.07999992370605
1726.8561222,-2.8199999332428
1726.8717472,-2.55999994277954
1726.8873722,-2.27999997138977
1726.9029972,-2.01999998092651
1726.9186222,-1.83000004291534
1726.9342472,-1.66999995708466
1726.9498722,-1.50999999046326
1726.9654972,-1.36000001430511
1726.9811222,-1.27999997138977
1726.9967472,-1.25
1727.0123722,-1.17999994754791
1727.0279972,-0.930000007152557
1727.0436222,-0.449999988079071
1727.0592472,0.109999999403954
1727.0748722,0.550000011920929
1727.0904972,0.740000009536743
1727.1061222,0.769999980926514
1727.1217472,0.899999976158142
1727.1373722,1.44000005722046
1727.1529972,2.60999989509583
1727.1686222,4.46000003814697
1727.1842472,6.84999990463257
1727.1998722,9.43000030517578
1727.2154972,11.7200002670288
1727.2311222,13.3000001907349
1727.2467472,13.9399995803833
1727.2623722,13.6599998474121
1727.2779972,12.710000038147
1727.2936222,11.460000038147
1727.3092472,10.2399997711182
1727.3248722,9.17000007629395
1727.3404972,8.23999977111816
1727.3561222,7.3600001335144
1727.3717472,6.48000001907349
1727.3873722,5.59000015258789
1727.4029972,4.6100001335144
1727.4186222,3.38000011444092
1727.4342472,1.80999994277954
1727.4498722,-0.0099999997764825
1727.4654972,-1.75999999046326
1727.4811222,-3.08999991416931
1727.4967472,-3.90000009536743
1727.5123722,-4.25
1727.5279972,-4.32999992370605
1727.5436222,-4.34999990463257
1727.5592472,-4.55999994277954
1727.5748722,-5.15999984741211
1727.5904972,-6.1100001335144
1727.6061222,-7.15999984741211
1727.6217472,-7.94000005722046
1727.6373722,-8.17000007629395
1727.6529972,-7.84000015258789
1727.6686222,-7.25
1727.6842472,-6.84999990463257
1727.6998722,-6.84000015258789
1727.7154972,-7.13000011444092
1727.7311222,-7.40999984741211
1727.7467472,-7.42000007629395
1727.7623722,-7.11999988555908
1727.7779972,-6.65000009536743
1727.7936222,-6.17000007629395
1727.8092472,-5.75
1727.8248722,-5.46999979019165
1727.8404972,-5.3899998664856
1727.8561222,-5.44000005722046
1727.8717472,-5.48000001907349
1727.8873722,-5.38000011444092
1727.9029972,-5.09999990463257
1727.9186222,-4.71000003814697
1727.9342472,-4.26999998092651
1727.9498722,-3.8199999332428
1727.9654972,-3.34999990463257
1727.9811222,-2.8199999332428
1727.9967472,-2.15000009536743
1728.0123722,-1.25999999046326
1728.0279972,-0.0500000007450581
1728.0436222,1.53999996185303
1728.0592472,3.58999991416931
1728.0748722,6.09999990463257
1728.0904972,8.81999969482422
1728.1061222,11.25
1728.1217472,12.9200000762939
1728.1373722,13.6199998855591
1728.1529972,13.460000038147
1728.1686222,12.8100004196167
1728.1842472,12.1099996566772
1728.1998722,11.5500001907349
1728.2154972,11.0200004577637
1728.2311222,10.2799997329712
1728.2467472,9.22999954223633
1728.2623722,7.92999982833862
1728.2779972,6.46000003814697
1728.2936222,4.84999990463257
1728.3092472,3.0699999332428
1728.3248722,1.17999994754791
1728.3404972,-0.629999995231628
1728.3561222,-2.22000002861023
1728.3717472,-3.49000000953674
1728.3873722,-4.42000007629395
1728.4029972,-5.0
1728.4186222,-5.21999979019165
1728.4342472,-5.15999984741211
1728.4498722,-5.0
1728.4654972,-4.90000009536743
1728.4811222,-4.90999984741211
1728.4967472,-4.92999982833862
1728.5123722,-4.90000009536743
1728.5279972,-4.8899998664856
1728.5436222,-4.96000003814697
1728.5592472,-5.11999988555908
1728.5748722,-5.26999998092651
1728.5904972,-5.30999994277954
1728.6061222,-5.23999977111816
1728.6217472,-5.15000009536743
1728.6373722,-5.11999988555908
1728.6529972,-5.15000009536743
1728.6686222,-5.15000009536743
1728.6842472,-4.98999977111816
1728.6998722,-4.71999979019165
1728.7154972,-4.48999977111816
1728.7311222,-4.44000005722046
1728.7467472,-4.53000020980835
1728.7623722,-4.55999994277954
1728.7779972,-4.34000015258789
1728.7936222,-3.84999990463257
1728.8092472,-3.27999997138977
1728.8248722,-2.75999999046326
1728.8404972,-2.26999998092651
1728.8561222,-1.66999995708466
1728.8717472,-0.939999997615814
1728.8873722,-0.200000002980232
1728.9029972,0.379999995231628
1728.9186222,0.740000009536743
1728.9342472,0.879999995231628
1728.9498722,1.04999995231628
1728.9654972,1.72000002861023
1728.9811222,3.28999996185303
1728.9967472,5.8600001335144
1729.0123722,9.0600004196167
1729.0279972,12.1700000762939
1729.0436222,14.460000038147
1729.0592472,15.4399995803833
1729.0748722,15.039999961853
1729.0904972,13.6099996566772
1729.1061222,11.7799997329712
1729.1217472,10.1000003814697
1729.1373722,8.88000011444092
1729.1529972,8.10000038146973
1729.1686222,7.6100001335144
1729.1842472,7.26000022888184
1729.1998722,6.90000009536743
1729.2154972,6.32000017166138
1729.2311222,5.28000020980835
1729.2467472,3.64000010490417
1729.2623722,1.44000005722046
1729.2779972,-1.0
1729.2936222,-3.21000003814697
1729.3092472,-4.80999994277954
1729.3248722,-5.65999984741211
1729.3404972,-5.80000019073486
1729.3561222,-5.44000005722046
1729.3717472,-4.90999984741211
1729.3873722,-4.46999979019165
1729.4029972,-4.1399998664856
1729.4186222,-3.79999995231628
1729.4342472,-3.46000003814697
1729.4498722,-3.15000009536743
1729.4654972,-2.86999988555908
1729.4811222,-2.69000005722046
1729.4967472,-2.75
1729.5123722,-3.16000008583069
1729.5279972,-3.94000005722046
1729.5436222,-4.98000001907349
1729.5592472,-6.05000019073486
1729.5748722,-6.90999984741211
1729.5904972,-7.53000020980835
1729.6061222,-8.0
1729.6217472,-8.42000007629395
1729.6373722,-8.6899995803833
1729.6529972,-8.64000034332275
1729.6686222,-8.25
1729.6842472,-7.78000020980835
1729.6998722,-7.53999996185303
1729.7154972,-7.67999982833862
1729.7311222,-8.10999965667725
1729.7467472,-8.64000034332275
1729.7623722,-9.0600004196167
1729.7779972,-9.06999969482422
1729.7936222,-8.47999954223633
1729.8092472,-7.3899998664856
1729.8248722,-6.15999984741211
1729.8404972,-5.07999992370605
1729.8561222,-4.01999998092651
1729.8717472,-2.5699999332428
1729.8873722,-0.379999995231628
1729.9029972,2.60999989509583
1729.9186222,6.1100001335144
1729.9342472,9.52999973297119
1729.9498722,12.2799997329712
1729.9654972,14.0200004577637
1729.9811222,14.8299999237061
1729.9967472,15.039999961853
1730.0123722,14.9899997711182
1730.0279972,14.8100004196167
1730.0436222,14.4300003051758
1730.0592472,13.789999961853
1730.0748722,12.8900003433228
1730.0904972,11.8999996185303
1730.1061222,10.9899997711182
1730.1217472,10.1999998092651
1730.1373722,9.3100004196167
1730.1529972,8.02000045776367
1730.1686222,6.17999982833862
1730.1842472,3.99000000953674
1730.1998722,1.85000002384186
1730.2154972,0.140000000596046
1730.2311222,-0.970000028610229
1730.2467472,-1.55999994277954
1730.2623722,-1.85000002384186
1730.2779972,-2.16000008583069
1730.2936222,-2.65000009536743
1730.3092472,-3.27999997138977
1730.3248722,-3.90000009536743
1730.3404972,-4.40999984741211
1730.3561222,-4.84000015258789
1730.3717472,-5.23999977111816
1730.3873722,-5.65999984741211
1730.4029972,-6.03000020980835
1730.4186222,-6.23999977111816
1730.4342472,-6.30999994277954
1730.4498722,-6.38000011444092
1730.4654972,-6.53000020980835
1730.4811222,-6.69000005722046
1730.4967472,-6.78000020980835
1730.5123722,-6.76000022888184
1730.5279972,-6.59000015258789
1730.5436222,-6.30000019073486
1730.5592472,-5.90999984741211
1730.5748722,-5.48000001907349
1730.5904972,-5.13000011444092
1730.6061222,-4.98999977111816
1730.6217472,-5.05000019073486
1730.6373722,-5.07999992370605
1730.6529972,-4.88000011444092
1730.6686222,-4.3600001335144
1730.6842472,-3.69000005722046
1730.6998722,-3.13000011444092
1730.7154972,-2.85999989509583
1730.7311222,-2.77999997138977
1730.7467472,-2.57999992370605
1730.7623722,-1.97000002861023
1730.7779972,-0.779999971389771
1730.7936222,1.12999999523163
1730.8092472,3.80999994277954
1730.8248722,7.0
1730.8404972,10.1899995803833
1730.8561222,12.7799997329712
1730.8717472,14.3500003814697
1730.8873722,14.8500003814697
1730.9029972,14.5699996948242
1730.9186222,13.9099998474121
1730.9342472,13.210000038147
1730.9498722,12.6300001144409
1730.9654972,12.1999998092651
1730.9811222,11.8199996948242
1730.9967472,11.2799997329712
1731.0123722,10.3900003433228
1731.0279972,9.02999973297119
1731.0436222,7.11999988555908
1731.0592472,4.78000020980835
1731.0748722,2.26999998092651
1731.0904972,-0.0700000002980232
1731.1061222,-2.01999998092651
1731.1217472,-3.35999989509583
1731.1373722,-4.05000019073486
1731.1529972,-4.30000019073486
1731.1686222,-4.3899998664856
1731.1842472,-4.5
1731.1998722,-4.76999998092651
1731.2154972,-5.34000015258789
1731.2311222,-6.17000007629395
1731.2467472,-7.01999998092651
1731.2623722,-7.71999979019165
1731.2779972,-8.19999980926514
1731.2936222,-8.44999980926514
1731.3092472,-8.52000045776367
1731.3248722,-8.47000026702881
1731.3404972,-8.43000030517578
1731.3561222,-8.46000003814697
1731.3717472,-8.57999992370605
1731.3873722,-8.72999954223633
1731.4029972,-8.75
1731.4186222,-8.52999973297119
1731.4342472,-8.07999992370605
1731.4498722,-7.55999994277954
1731.4654972,-7.05000019073486
1731.4811222,-6.55000019073486
1731.4967472,-6.03000020980835
1731.5123722,-5.5
1731.5279972,-5.0
1731.5436222,-4.55999994277954
1731.5592472,-4.17000007629395
1731.5748722,-3.79999995231628
1731.5904972,-3.41000008583069
1731.6061222,-2.94000005722046
1731.6217472,-2.22000002861023
1731.6373722,-1.07000005245209
1731.6529972,0.759999990463257
1731.6686222,3.60999989509583
1731.6842472,7.55000019073486
1731.6998722,12.2200002670288
1731.7154972,16.8700008392334
1731.7311222,20.6599998474121
1731.7467472,22.9699993133545
1731.7623722,23.5400009155273
1731.7779972,22.6399993896484
1731.7936222,20.8600006103516
1731.8092472,18.7800006866455
1731.8248722,16.8899993896484
1731.8404972,15.4899997711182
1731.8561222,14.6700000762939
1731.8717472,14.1999998092651
1731.8873722,13.8400001525879
1731.9029972,13.4300003051758
1731.9186222,12.8100004196167
1731.9342472,11.7399997711182
1731.9498722,10.1199998855591
1731.9654972,8.09000015258789
1731.9811222,5.94000005722046
1731.9967472,3.88000011444092
1732.0123722,1.97000002861023
1732.0279972,0.119999997317791
1732.0436222,-1.83000004291534
1732.0592472,-4.11999988555908
1732.0748722,-6.75
1732.0904972,-9.36999988555908
1732.1061222,-11.4899997711182
1732.1217472,-12.8000001907349
1732.1373722,-13.3500003814697
1732.1529972,-13.4399995803833
1732.1686222,-13.4099998474121
1732.1842472,-13.4300003051758
1732.1998722,-13.4799995422363
1732.2154972,-13.4799995422363
1732.2311222,-13.5699996948242
1732.2467472,-14.1099996566772
1732.2623722,-15.4700002670288
1732.2779972,-17.8299999237061
1732.2936222,-20.8600006103516
1732.3092472,-23.8600006103516
1732.3248722,-26.0599994659424
1732.3404972,-27.1900005340576
1732.3561222,-27.5699996948242
1732.3717472,-27.8299999237061
1732.3873722,-28.2199993133545
1732.4029972,-28.25
1732.4186222,-27.2000007629395
1732.4342472,-24.7600002288818
1732.4498722,-21.3099994659424
1732.4654972,-17.6399993896484
1732.4811222,-14.5100002288818
1732.4967472,-12.2299995422363
1732.5123722,-10.6099996566772
1732.5279972,-9.02000045776367
1732.5436222,-6.82000017166138
1732.5592472,-3.63000011444092
1732.5748722,0.370000004768372
1732.5904972,4.55000019073486
1732.6061222,8.13000011444092
1732.6217472,10.5799999237061
1732.6373722,11.8299999237061
1732.6529972,12.1499996185303
1732.6686222,12.039999961853
1732.6842472,12.0
1732.6998722,12.3999996185303
1732.7154972,13.3299999237061
1732.7311222,14.6099996566772
1732.7467472,15.8900003433228
1732.7623722,16.8799991607666
1732.7779972,17.4300003051758
1732.7936222,17.4500007629395
1732.8092472,16.8199996948242
1732.8248722,15.4899997711182
1732.8404972,13.6700000762939
1732.8561222,11.8900003433228
1732.8717472,10.6599998474121
1732.8873722,10.25
1732.9029972,10.539999961853
1732.9186222,11.0
1732.9342472,11.0100002288818
1732.9498722,10.1899995803833
1732.9654972,8.63000011444092
1732.9811222,6.90999984741211
1732.9967472,5.71999979019165
1733.0123722,5.42999982833862
1733.0279972,5.92000007629395
1733.0436222,6.69000005722046
1733.0592472,7.17000007629395
1733.0748722,7.03999996185303
1733.0904972,6.3600001335144
1733.1061222,5.48000001907349
1733.1217472,4.71999979019165
1733.1373722,4.21999979019165
1733.1529972,3.98000001907349
1733.1686222,3.97000002861023
1733.1842472,4.11999988555908
1733.1998722,4.32000017166138
1733.2154972,4.34000015258789
1733.2311222,3.94000005722046
1733.2467472,3.07999992370605
1733.2623722,2.01999998092651
1733.2779972,1.14999997615814
1733.2936222,0.680000007152557
1733.3092472,0.579999983310699
1733.3248722,0.680000007152557
1733.3404972,0.790000021457672
1733.3561222,0.680000007152557
1733.3717472,0.239999994635582
1733.3873722,-0.46000000834465
1733.4029972,-1.10000002384186
1733.4186222,-1.22000002861023
1733.4342472,-0.5
1733.4498722,1.11000001430511
1733.4654972,3.29999995231628
1733.4811222,5.46000003814697
1733.4967472,7.01000022888184
1733.5123722,7.71000003814697
1733.5279972,7.71000003814697
1733.5436222,7.34999990463257
1733.5592472,6.92999982833862
1733.5748722,6.57999992370605
1733.5904972,6.28999996185303
1733.6061222,5.84999990463257
1733.6217472,5.09000015258789
1733.6373722,4.03999996185303
1733.6529972,2.85999989509583
1733.6686222,1.62999999523163
1733.6842472,0.270000010728836
1733.6998722,-1.36000001430511
1733.7154972,-3.34999990463257
1733.7311222,-5.59000015258789
1733.7467472,-7.78999996185303
1733.7623722,-9.59000015258789
1733.7779972,-10.7700004577637
1733.7936222,-11.25
1733.8092472,-11.1700000762939
1733.8248722,-10.8599996566772
1733.8404972,-10.6400003433228
1733.8561222,-10.6899995803833
1733.8717472,-10.8999996185303
1733.8873722,-11.0200004577637
1733.9029972,-10.8699998855591
1733.9186222,-10.4499998092651
1733.9342472,-9.85000038146973
1733.9498722,-9.10000038146973
1733.9654972,-8.1899995803833
1733.9811222,-7.23000001907349
1733.9967472,-6.46000003814697
1734.0123722,-6.03000020980835
1734.0279972,-5.84999990463257
1734.0436222,-5.63000011444092
1734.0592472,-5.19999980926514
1734.0748722,-4.59000015258789
1734.0904972,-3.9300000667572
1734.1061222,-3.30999994277954
1734.1217472,-2.75
1734.1373722,-2.29999995231628
1734.1529972,-2.05999994277954
1734.1686222,-2.10999989509583
1734.1842472,-2.47000002861023
1734.1998722,-2.98000001907349
1734.2154972,-3.38000011444092
1734.2311222,-3.45000004768372
1734.2467472,-3.11999988555908
1734.2623722,-2.36999988555908
1734.2779972,-1.04999995231628
1734.2936222,1.01999998092651
1734.3092472,3.79999995231628
1734.3248722,6.88000011444092
1734.3404972,9.64999961853027
1734.3561222,11.6199998855591
1734.3717472,12.6099996566772
1734.3873722,12.7700004577637
1734.4029972,12.4499998092651
