Time(s),Value(%)
751.0154789,-32.7299995422363
751.0311039,-33.5400009155273
751.0467289,-34.1399993896484
751.0623539,-34.2099990844727
751.0779789,-33.2400016784668
751.0936039,-30.2600002288818
751.1092289,-23.8299999237061
751.1248539,-12.6700000762939
751.1404789,3.32999992370605
751.1561039,22.7700004577637
751.1717289,42.689998626709
751.1873539,59.439998626709
751.2029789,70.120002746582
751.2186039,73.7200012207031
751.2342289,71.1500015258789
751.2498539,64.3099975585938
751.2654789,55.2299995422363
751.2811039,45.5099983215332
751.2967289,36.0800018310547
751.3123539,27.2199993133545
751.3279789,18.8999996185303
751.3436039,11.2399997711182
751.3592289,4.51999998092651
751.3748539,-1.01999998092651
751.3904789,-5.40000009536743
751.4061039,-8.72000026702881
751.4217289,-11.210000038147
751.4373539,-13.1899995803833
751.4529789,-15.1000003814697
751.4686039,-17.2299995422363
751.4842289,-19.6800003051758
751.4998539,-22.4599990844727
751.5154789,-25.5200004577637
751.5311039,-28.6800003051758
751.5467289,-31.6800003051758
751.5623539,-34.189998626709
751.5779789,-36.0299987792969
751.5936039,-37.1100006103516
751.6092289,-37.5499992370605
751.6248539,-37.6399993896484
751.6404789,-37.6399993896484
751.6561039,-37.7299995422363
751.6717289,-37.6199989318848
751.6873539,-36.2299995422363
751.7029789,-31.8400001525879
751.7186039,-22.8600006103516
751.7342289,-8.84000015258789
751.7498539,8.89000034332275
751.7654789,27.6299991607666
751.7811039,43.939998626709
751.7967289,54.7599983215332
751.8123539,58.5
751.8279789,55.4900016784668
751.8436039,47.5200004577637
751.8592289,36.9300003051758
751.8748539,25.8700008392334
751.8904789,15.6000003814697
751.9061039,6.34000015258789
751.9217289,-2.35999989509583
751.9373539,-10.8299999237061
751.9529789,-18.7700004577637
751.9686039,-25.5499992370605
751.9842289,-30.5400009155273
751.9998539,-33.4199981689453
752.0154789,-34.3699989318848
752.0311039,-34.0400009155273
752.0467289,-33.189998626709
752.0623539,-32.3800010681152
752.0779789,-31.8799991607666
752.0936039,-31.7999992370605
752.1092289,-32.0900001525879
752.1248539,-32.6100006103516
752.1404789,-33.0400009155273
752.1561039,-32.9900016784668
752.1717289,-32.25
752.1873539,-31.0499992370605
752.2029789,-29.8700008392334
752.2186039,-29.0599994659424
752.2342289,-28.6100006103516
752.2498539,-28.2900009155273
752.2654789,-27.8700008392334
752.2811039,-27.1700000762939
752.2967289,-25.6299991607666
752.3123539,-21.8700008392334
752.3279789,-13.9499998092651
752.3436039,-0.5
752.3592289,18.2700004577637
752.3748539,40.2900009155273
752.3904789,62.1399993896484
752.4061039,80.2699966430664
752.4217289,92.0999984741211
752.4373539,96.7200012207031
752.4529789,94.6999969482422
752.4686039,87.6900024414063
752.4842289,77.6999969482422
752.4998539,66.5500030517578
752.5154789,55.4300003051758
752.5311039,44.75
752.5467289,34.4599990844727
752.5623539,24.5599994659424
752.5779789,15.3299999237061
752.5936039,7.17999982833862
752.6092289,0.379999995231628
752.6248539,-4.96999979019165
752.6404789,-8.96000003814697
752.6561039,-11.6800003051758
752.6717289,-13.4200000762939
752.6873539,-14.7600002288818
752.7029789,-16.3799991607666
752.7186039,-18.6399993896484
752.7342289,-21.4099998474121
752.7498539,-24.3899993896484
752.7654789,-27.3099994659424
752.7811039,-30.0400009155273
752.7967289,-32.7099990844727
752.8123539,-35.3600006103516
752.8279789,-37.7799987792969
752.8436039,-39.6300010681152
752.8592289,-40.6800003051758
752.8748539,-40.9900016784668
752.8904789,-40.8300018310547
752.9061039,-40.439998626709
752.9217289,-39.6199989318848
752.9373539,-37.4000015258789
752.9529789,-32.0
752.9686039,-21.6200008392334
752.9842289,-5.69000005722046
752.9998539,14.3800001144409
753.0154789,35.5099983215332
753.0311039,54.0499992370605
753.0467289,67.1900024414063
753.0623539,73.6600036621094
753.0779789,73.629997253418
753.0936039,68.4499969482422
753.1092289,60.0800018310547
753.1248539,50.4500007629395
753.1404789,40.8800010681152
753.1561039,31.9099998474121
753.1717289,23.4699993133545
753.1873539,15.3000001907349
753.2029789,7.42000007629395
753.2186039,0.310000002384186
753.2342289,-5.46000003814697
753.2498539,-9.51000022888184
753.2654789,-11.8900003433228
753.2811039,-13.1400003433228
753.2967289,-14.0500001907349
753.3123539,-15.3500003814697
753.3279789,-17.3400001525879
753.3436039,-19.9099998474121
753.3592289,-22.75
753.3748539,-25.5499992370605
753.3904789,-28.1200008392334
753.4061039,-30.2999992370605
753.4217289,-32.0
753.4373539,-33.3400001525879
753.4529789,-34.5900001525879
753.4686039,-35.8499984741211
753.4842289,-36.9700012207031
753.4998539,-37.5900001525879
753.5154789,-37.0299987792969
753.5311039,-33.8499984741211
753.5467289,-26.1200008392334
753.5623539,-12.7399997711182
753.5779789,5.09999990463257
753.5936039,24.2299995422363
753.6092289,40.9500007629395
753.6248539,52.5
753.6404789,57.7700004577637
753.6561039,57.2299995422363
753.6717289,52.3800010681152
753.6873539,45.0499992370605
753.7029789,36.7999992370605
753.7186039,28.6399993896484
753.7342289,21.0
753.7498539,13.8999996185303
753.7654789,7.23999977111816
753.7811039,1.04999995231628
753.7967289,-4.44999980926514
753.8123539,-8.85999965667725
753.8279789,-11.8500003814697
753.8436039,-13.460000038147
753.8592289,-14.2200002670288
753.8748539,-14.8999996185303
753.8904789,-16.1700000762939
753.9061039,-18.2000007629395
753.9217289,-20.7900009155273
753.9373539,-23.6100006103516
753.9529789,-26.4599990844727
753.9686039,-29.0699996948242
753.9842289,-31.1900005340576
753.9998539,-32.7099990844727
754.0154789,-33.689998626709
754.0311039,-34.4000015258789
754.0467289,-35.0999984741211
754.0623539,-35.7299995422363
754.0779789,-35.5800018310547
754.0936039,-33.4199981689453
754.1092289,-27.6700000762939
754.1248539,-17.0799999237061
754.1404789,-1.77999997138977
754.1561039,16.3600006103516
754.1717289,34.3600006103516
754.1873539,49.2099990844727
754.2029789,58.7400016784668
754.2186039,62.2000007629395
754.2342289,60.2299995422363
754.2498539,54.5800018310547
754.2654789,47.2799987792969
754.2811039,39.8499984741211
754.2967289,32.9700012207031
754.3123539,26.5699996948242
754.3279789,20.2800006866455
754.3436039,13.8999996185303
754.3592289,7.57000017166138
754.3748539,1.71000003814697
754.3904789,-3.24000000953674
754.4061039,-7.11999988555908
754.4217289,-10.0200004577637
754.4373539,-12.2600002288818
754.4529789,-14.2399997711182
754.4686039,-16.2399997711182
754.4842289,-18.3199996948242
754.4998539,-20.3899993896484
754.5154789,-22.3899993896484
754.5311039,-24.2900009155273
754.5467289,-26.1100006103516
754.5623539,-27.7399997711182
754.5779789,-29.0100002288818
754.5936039,-29.7199993133545
754.6092289,-29.8199996948242
754.6248539,-29.4599990844727
754.6404789,-28.8899993896484
754.6561039,-28.1900005340576
754.6717289,-26.8999996185303
754.6873539,-23.7099990844727
754.7029789,-16.9300003051758
754.7186039,-5.57999992370605
754.7342289,9.76000022888184
754.7498539,26.7999992370605
754.7654789,42.25
754.7811039,53.2299995422363
754.7967289,58.3199996948242
754.8123539,57.8899993896484
754.8279789,53.5099983215332
754.8436039,47.0200004577637
754.8592289,39.8300018310547
754.8748539,32.5999984741211
754.8904789,25.3999996185303
754.9061039,18.1200008392334
754.9217289,10.75
754.9373539,3.44000005722046
754.9529789,-3.54999995231628
754.9686039,-9.84000015258789
754.9842289,-14.9899997711182
754.9998539,-18.7900009155273
755.0154789,-21.4300003051758
755.0311039,-23.2999992370605
755.0467289,-24.8500003814697
755.0623539,-26.3799991607666
755.0779789,-28.0
755.0936039,-29.6399993896484
755.1092289,-31.2000007629395
755.1248539,-32.6300010681152
755.1404789,-33.8600006103516
755.1561039,-34.8499984741211
755.1717289,-35.6300010681152
755.1873539,-36.3499984741211
755.2029789,-36.9900016784668
755.2186039,-37.3600006103516
755.2342289,-37.2799987792969
755.2498539,-36.7099990844727
755.2654789,-35.5200004577637
755.2811039,-33.1199989318848
755.2967289,-28.2700004577637
755.3123539,-19.5200004577637
755.3279789,-6.42999982833862
755.3436039,9.71000003814697
755.3592289,26.2700004577637
755.3748539,40.3600006103516
755.3904789,49.9000015258789
755.4061039,54.1399993896484
755.4217289,53.560001373291
755.4373539,49.5099983215332
755.4529789,43.560001373291
755.4686039,37.0900001525879
755.4842289,30.8799991607666
755.4998539,25.25
755.5154789,20.1100006103516
755.5311039,15.2399997711182
755.5467289,10.4200000762939
755.5623539,5.61999988555908
755.5779789,1.12000000476837
755.5936039,-2.55999994277954
755.6092289,-4.98999977111816
755.6248539,-6.07999992370605
755.6404789,-6.1100001335144
755.6561039,-5.55000019073486
755.6717289,-4.8899998664856
755.6873539,-4.57999992370605
755.7029789,-4.90999984741211
755.7186039,-5.90999984741211
755.7342289,-7.30000019073486
755.7498539,-8.65999984741211
755.7654789,-9.68000030517578
755.7811039,-10.2399997711182
755.7967289,-10.4899997711182
755.8123539,-10.6800003051758
755.8279789,-11.0
755.8436039,-11.4300003051758
755.8592289,-11.8100004196167
755.8748539,-11.9399995803833
755.8904789,-11.7399997711182
755.9061039,-11.1499996185303
755.9217289,-10.0699996948242
755.9373539,-8.39999961853027
755.9529789,-5.94000005722046
755.9686039,-2.07999992370605
755.9842289,3.98000001907349
755.9998539,12.6499996185303
756.0154789,23.2199993133545
756.0311039,33.8899993896484
756.0467289,42.3400001525879
756.0623539,46.8300018310547
756.0779789,46.9199981689453
756.0936039,43.5400009155273
756.1092289,38.2400016784668
756.1248539,32.3899993896484
756.1404789,26.7299995422363
756.1561039,21.4099998474121
756.1717289,16.3700008392334
756.1873539,11.4799995422363
756.2029789,6.71000003814697
756.2186039,2.17000007629395
756.2342289,-1.89999997615814
756.2498539,-5.30999994277954
756.2654789,-7.94999980926514
756.2811039,-9.96000003814697
756.2967289,-11.5600004196167
756.3123539,-12.9799995422363
756.3279789,-14.5
756.3436039,-16.2600002288818
756.3592289,-18.1599998474121
756.3748539,-19.9799995422363
756.3904789,-21.6299991607666
756.4061039,-23.0900001525879
756.4217289,-24.3700008392334
756.4373539,-25.4699993133545
756.4529789,-26.3400001525879
756.4686039,-27.0599994659424
756.4842289,-27.7000007629395
756.4998539,-28.1599998474121
756.5154789,-28.0499992370605
756.5311039,-26.6000003814697
756.5467289,-22.6299991607666
756.5623539,-14.9200000762939
756.5779789,-2.97000002861023
756.5936039,12.0200004577637
756.6092289,27.1599998474121
756.6248539,39.1599998474121
756.6404789,45.9199981689453
756.6561039,47.1599998474121
756.6717289,44.1300010681152
756.6873539,38.7099990844727
756.7029789,32.5499992370605
756.7186039,26.5499992370605
756.7342289,20.8799991607666
756.7498539,15.4099998474121
756.7654789,10.0799999237061
756.7811039,5.03999996185303
756.7967289,0.620000004768372
756.8123539,-2.9300000667572
756.8279789,-5.55000019073486
756.8436039,-7.23999977111816
756.8592289,-8.09000015258789
756.8748539,-8.42000007629395
756.8904789,-8.72000026702881
756.9061039,-9.44999980926514
756.9217289,-10.7799997329712
756.9373539,-12.5900001525879
756.9529789,-14.539999961853
756.9686039,-16.4400005340576
756.9842289,-18.2900009155273
756.9998539,-20.0900001525879
757.0154789,-21.8199996948242
757.0311039,-23.4400005340576
757.0467289,-24.8400001525879
757.0623539,-25.8899993896484
757.0779789,-26.3600006103516
757.0936039,-25.9200000762939
757.1092289,-23.7700004577637
757.1248539,-18.7099990844727
757.1404789,-9.78999996185303
757.1561039,2.85999989509583
757.1717289,17.6499996185303
757.1873539,31.9400005340576
757.2029789,43.1500015258789
757.2186039,49.5800018310547
757.2342289,50.8899993896484
757.2498539,47.9900016784668
757.2654789,42.4099998474121
757.2811039,35.6500015258789
757.2967289,28.7299995422363
757.3123539,22.1100006103516
757.3279789,15.8000001907349
757.3436039,9.61999988555908
757.3592289,3.46000003814697
757.3748539,-2.51999998092651
757.3904789,-7.86999988555908
757.4061039,-12.1000003814697
757.4217289,-15.0
757.4373539,-16.6800003051758
757.4529789,-17.5699996948242
757.4686039,-18.2999992370605
757.4842289,-19.4099998474121
757.4998539,-21.0200004577637
757.5154789,-22.9099998474121
757.5311039,-24.7299995422363
757.5467289,-26.2700004577637
757.5623539,-27.6100006103516
757.5779789,-29.0499992370605
757.5936039,-30.7600002288818
757.6092289,-32.439998626709
757.6248539,-33.5999984741211
757.6404789,-34.0299987792969
757.6561039,-33.8499984741211
757.6717289,-33.2599983215332
757.6873539,-32.2900009155273
757.7029789,-30.3999996185303
757.7186039,-26.2399997711182
757.7342289,-18.2299995422363
757.7498539,-5.80999994277954
757.7654789,9.77999973297119
757.7811039,25.9099998474121
757.7967289,39.5999984741211
757.8123539,48.7599983215332
757.8279789,52.7299995422363
757.8436039,52.1100006103516
757.8592289,48.2000007629395
757.8748539,42.4799995422363
757.8904789,36.189998626709
757.9061039,30.0599994659424
757.9217289,24.25
757.9373539,18.5499992370605
757.9529789,12.8000001907349
757.9686039,7.09000015258789
757.9842289,1.67999994754791
757.9998539,-3.14000010490417
758.0154789,-7.1399998664856
758.0311039,-10.1700000762939
758.0467289,-12.289999961853
758.0623539,-13.8400001525879
758.0779789,-15.3000001907349
758.0936039,-17.0400009155273
758.1092289,-19.1100006103516
758.1248539,-21.3099994659424
758.1404789,-23.3299999237061
758.1561039,-24.9699993133545
758.1717289,-26.2000007629395
758.1873539,-27.1200008392334
758.2029789,-27.9500007629395
758.2186039,-28.8899993896484
758.2342289,-29.9300003051758
758.2498539,-30.8299999237061
758.2654789,-31.2700004577637
758.2811039,-31.0599994659424
758.2967289,-29.9799995422363
758.3123539,-27.2600002288818
758.3279789,-21.4599990844727
758.3436039,-11.4899997711182
758.3592289,2.19000005722046
758.3748539,17.4699993133545
758.3904789,31.4099998474121
758.4061039,41.5200004577637
758.4217289,46.5800018310547
758.4373539,46.8499984741211
758.4529789,43.6100006103516
758.4686039,38.4000015258789
758.4842289,32.5099983215332
758.4998539,26.7099990844727
758.5154789,21.2299995422363
758.5311039,16.0300006866455
758.5467289,11.0799999237061
758.5623539,6.51000022888184
758.5779789,2.50999999046326
758.5936039,-0.709999978542328
758.6092289,-3.07999992370605
758.6248539,-4.57999992370605
758.6404789,-5.40999984741211
758.6561039,-5.94000005722046
758.6717289,-6.55999994277954
758.6873539,-7.53000020980835
758.7029789,-8.90999984741211
758.7186039,-10.6700000762939
758.7342289,-12.6700000762939
758.7498539,-14.6599998474121
758.7654789,-16.3700008392334
758.7811039,-17.6200008392334
758.7967289,-18.4200000762939
758.8123539,-18.9400005340576
758.8279789,-19.4599990844727
758.8436039,-20.0599994659424
758.8592289,-20.5
758.8748539,-20.2700004577637
758.8904789,-18.5699996948242
758.9061039,-14.3699998855591
758.9217289,-6.73000001907349
758.9373539,4.42000007629395
758.9529789,17.8700008392334
758.9686039,31.2299995422363
758.9842289,42.0299987792969
758.9998539,48.8699989318848
759.0154789,51.6800003051758
759.0311039,51.189998626709
759.0467289,48.4199981689453
759.0623539,44.2999992370605
759.0779789,39.5
759.0936039,34.3899993896484
759.1092289,29.1000003814697
759.1248539,23.6399993896484
759.1404789,18.0400009155273
759.1561039,12.5100002288818
759.1717289,7.32999992370605
759.1873539,2.76999998092651
759.2029789,-1.08000004291534
759.2186039,-4.21999979019165
759.2342289,-6.69000005722046
759.2498539,-8.61999988555908
759.2654789,-10.2299995422363
759.2811039,-11.7600002288818
759.2967289,-13.4200000762939
759.3123539,-15.289999961853
759.3279789,-17.3199996948242
759.3436039,-19.4400005340576
759.3592289,-21.5699996948242
759.3748539,-23.6100006103516
759.3904789,-25.4099998474121
759.4061039,-26.8199996948242
759.4217289,-27.8400001525879
759.4373539,-28.5300006866455
759.4529789,-28.8600006103516
759.4686039,-28.6499996185303
759.4842289,-27.7999992370605
759.4998539,-26.5
759.5154789,-24.8299999237061
759.5311039,-22.1599998474121
759.5467289,-17.1399993896484
759.5623539,-8.59000015258789
759.5779789,3.49000000953674
759.5936039,17.6499996185303
759.6092289,31.5300006866455
759.6248539,42.7599983215332
759.6404789,49.6599998474121
759.6561039,51.6300010681152
759.6717289,49.2700004577637
759.6873539,44.0200004577637
759.7029789,37.6100006103516
759.7186039,31.3899993896484
759.7342289,25.8899993896484
759.7498539,20.8400001525879
759.7654789,15.8100004196167
759.7811039,10.6300001144409
759.7967289,5.44999980926514
759.8123539,0.490000009536743
759.8279789,-3.98000001907349
759.8436039,-7.73000001907349
759.8592289,-10.6599998474121
759.8748539,-12.8599996566772
759.8904789,-14.5
759.9061039,-15.8199996948242
759.9217289,-17.1000003814697
759.9373539,-18.5799999237061
759.9529789,-20.3199996948242
759.9686039,-22.1599998474121
759.9842289,-23.9200000762939
759.9998539,-25.5900001525879
760.0154789,-27.2900009155273
760.0311039,-28.9699993133545
760.0467289,-30.3700008392334
760.0623539,-31.3299999237061
760.0779789,-31.8099994659424
760.0936039,-31.9500007629395
760.1092289,-31.9300003051758
760.1248539,-31.5499992370605
760.1404789,-29.9799995422363
760.1561039,-25.9200000762939
760.1717289,-18.3299999237061
760.1873539,-7.03000020980835
760.2029789,6.80999994277954
760.2186039,21.0100002288818
760.2342289,33.1500015258789
760.2498539,41.3899993896484
760.2654789,45.0099983215332
760.2811039,44.4000015258789
760.2967289,40.689998626709
760.3123539,35.3899993896484
760.3279789,29.9599990844727
760.3436039,25.1800003051758
760.3592289,20.9400005340576
760.3748539,16.6700000762939
760.3904789,12.0
760.4061039,7.05999994277954
760.4217289,2.32999992370605
760.4373539,-1.71000003814697
760.4529789,-4.76999998092651
760.4686039,-6.73999977111816
760.4842289,-7.8600001335144
760.4998539,-8.68000030517578
760.5154789,-9.68000030517578
760.5311039,-11.0200004577637
760.5467289,-12.6199998855591
760.5623539,-14.3000001907349
760.5779789,-15.8500003814697
760.5936039,-17.1399993896484
760.6092289,-18.2399997711182
760.6248539,-19.3299999237061
760.6404789,-20.5300006866455
760.6561039,-21.8099994659424
760.6717289,-23.0100002288818
760.6873539,-23.9400005340576
760.7029789,-24.4799995422363
760.7186039,-24.5499992370605
760.7342289,-23.8600006103516
760.7498539,-21.6499996185303
760.7654789,-16.8199996948242
760.7811039,-8.55000019073486
760.7967289,2.86999988555908
760.8123539,15.8599996566772
760.8279789,28.1499996185303
760.8436039,37.6100006103516
760.8592289,42.9000015258789
760.8748539,43.7999992370605
760.8904789,41.1100006103516
760.9061039,36.2299995422363
760.9217289,30.4899997711182
760.9373539,24.7000007629395
760.9529789,19.0499992370605
760.9686039,13.4499998092651
760.9842289,7.78999996185303
760.9998539,2.05999994277954
761.0154789,-3.51999998092651
761.0311039,-8.55000019073486
761.0467289,-12.6800003051758
761.0623539,-15.9300003051758
761.0779789,-18.4500007629395
761.0936039,-20.1299991607666
761.1092289,-20.7199993133545
761.1248539,-20.3199996948242
761.1404789,-19.4300003051758
761.1561039,-18.5300006866455
761.1717289,-17.7900009155273
761.1873539,-17.2399997711182
761.2029789,-16.8299999237061
761.2186039,-16.3899993896484
761.2342289,-15.8400001525879
761.2498539,-15.3199996948242
761.2654789,-15.0100002288818
761.2811039,-14.9099998474121
761.2967289,-14.7700004577637
761.3123539,-14.1000003814697
761.3279789,-12.0
761.3436039,-7.1399998664856
761.3592289,1.66999995708466
761.3748539,14.3900003433228
761.3904789,29.1599998474121
761.4061039,42.9599990844727
761.4217289,53.1399993896484
761.4373539,58.3199996948242
761.4529789,58.6500015258789
761.4686039,55.2799987792969
761.4842289,49.7700004577637
761.4998539,43.5499992370605
761.5154789,37.4599990844727
761.5311039,31.7000007629395
761.5467289,26.1100006103516
761.5623539,20.5
761.5779789,14.8400001525879
761.5936039,9.32999992370605
761.6092289,4.26000022888184
761.6248539,-0.0199999995529652
761.6404789,-3.30999994277954
761.6561039,-5.59000015258789
761.6717289,-7.21999979019165
761.6873539,-8.64000034332275
761.7029789,-10.2200002670288
