Time(s),Value(%)
745.0030072,64.1100006103516
745.0186322,63.9199981689453
745.0342572,63.1699981689453
745.0498822,61.8400001525879
745.0655072,59.939998626709
745.0811322,57.2999992370605
745.0967572,53.3300018310547
745.1123822,47.2599983215332
745.1280072,38.6199989318848
745.1436322,27.5799999237061
745.1592572,15.0799999237061
745.1748822,2.41000008583069
745.1905072,-9.36999988555908
745.2061322,-19.8199996948242
745.2217572,-29.0799999237061
745.2373822,-37.7200012207031
745.2530072,-46.5699996948242
745.2686322,-56.2400016784668
745.2842572,-66.7799987792969
745.2998822,-77.5199966430664
745.3155072,-87.379997253418
745.3311322,-95.4499969482422
745.3467572,-101.349998474121
745.3623822,-104.949996948242
745.3780072,-105.930000305176
745.3936322,-103.629997253418
745.4092572,-97.5199966430664
745.4248822,-87.9000015258789
745.4405072,-76.1900024414063
745.4561322,-64.3099975585938
745.4717572,-53.7799987792969
745.4873822,-45.1699981689453
745.5030072,-38.2400016784668
745.5186322,-32.5800018310547
745.5342572,-28.1100006103516
745.5498822,-25.0200004577637
745.5655072,-23.3600006103516
745.5811322,-22.8199996948242
745.5967572,-22.8500003814697
745.6123822,-22.9500007629395
745.6280072,-22.8400001525879
745.6436322,-22.5799999237061
745.6592572,-22.5799999237061
745.6748822,-23.2800006866455
745.6905072,-24.9699993133545
745.7061322,-27.5699996948242
745.7217572,-30.7800006866455
745.7373822,-34.3300018310547
745.7530072,-38.2000007629395
745.7686322,-42.5499992370605
745.7842572,-47.3800010681152
745.7998822,-52.439998626709
745.8155072,-57.2799987792969
745.8311322,-61.689998626709
745.8467572,-65.9499969482422
745.8623822,-70.4100036621094
745.8780072,-75.0400009155273
745.8936322,-79.3399963378906
745.9092572,-82.8000030517578
745.9248822,-85.2300033569336
745.9405072,-86.6699981689453
745.9561322,-86.9700012207031
745.9717572,-85.4800033569336
745.9873822,-81.5199966430664
746.0030072,-74.9499969482422
746.0186322,-66.1100006103516
746.0342572,-55.3499984741211
746.0498822,-42.9599990844727
746.0655072,-29.4099998474121
746.0811322,-15.6599998474121
746.0967572,-2.91000008583069
746.1123822,7.92999982833862
746.1280072,16.6100006103516
746.1436322,23.2900009155273
746.1592572,27.9799995422363
746.1748822,30.5400009155273
746.1905072,31.1200008392334
746.2061322,30.2700004577637
746.2217572,28.75
746.2373822,27.1200008392334
746.2530072,25.5200004577637
746.2686322,23.7700004577637
746.2842572,21.6900005340576
746.2998822,19.1599998474121
746.3155072,16.0799999237061
746.3311322,12.460000038147
746.3467572,8.4399995803833
746.3623822,4.34000015258789
746.3780072,0.469999998807907
746.3936322,-3.0699999332428
746.4092572,-6.6100001335144
746.4248822,-10.5200004577637
746.4405072,-14.7700004577637
746.4561322,-18.9699993133545
746.4717572,-22.6599998474121
746.4873822,-25.5799999237061
746.5030072,-27.8099994659424
746.5186322,-29.7199993133545
746.5342572,-31.8500003814697
746.5498822,-34.6100006103516
746.5655072,-38.0
746.5811322,-41.4199981689453
746.5967572,-43.8199996948242
746.6123822,-44.2599983215332
746.6280072,-42.439998626709
746.6436322,-38.5699996948242
746.6592572,-32.7599983215332
746.6748822,-24.8500003814697
746.6905072,-14.6199998855591
746.7061322,-2.41000008583069
746.7217572,10.5100002288818
746.7373822,22.5
746.7530072,32.4099998474121
746.7686322,40.060001373291
746.7842572,46.0
746.7998822,50.7999992370605
746.8155072,54.5699996948242
746.8311322,57.0499992370605
746.8467572,58.1399993896484
746.8623822,58.060001373291
746.8780072,57.3199996948242
746.8936322,56.4199981689453
746.9092572,55.6599998474121
746.9248822,55.0800018310547
746.9405072,54.4700012207031
746.9561322,53.5099983215332
746.9717572,51.8699989318848
746.9873822,49.4199981689453
747.0030072,46.310001373291
747.0186322,42.8899993896484
747.0342572,39.5200004577637
747.0498822,36.4500007629395
747.0655072,33.7000007629395
747.0811322,30.9899997711182
747.0967572,27.7700004577637
747.1123822,23.5599994659424
747.1280072,18.2600002288818
747.1436322,11.9499998092651
747.1592572,4.71999979019165
747.1748822,-3.36999988555908
747.1905072,-12.0799999237061
747.2061322,-20.6399993896484
747.2217572,-27.8299999237061
747.2373822,-32.4300003051758
747.2530072,-33.689998626709
747.2686322,-31.5100002288818
747.2842572,-26.2900009155273
747.2998822,-18.8500003814697
747.3155072,-10.1800003051758
747.3311322,-1.27999997138977
747.3467572,7.19000005722046
747.3623822,15.1099996566772
747.3780072,22.8500003814697
747.3936322,30.9500007629395
747.4092572,39.6399993896484
747.4248822,48.689998626709
747.4405072,57.6399993896484
747.4561322,66.0100021362305
747.4717572,73.4700012207031
747.4873822,79.5699996948242
747.5030072,83.6100006103516
747.5186322,84.9499969482422
747.5342572,83.5699996948242
747.5498822,80.1900024414063
747.5655072,75.879997253418
747.5811322,71.4800033569336
747.5967572,67.25
747.6123822,63.0200004577637
747.6280072,58.5699996948242
747.6436322,53.8400001525879
747.6592572,49.0
747.6748822,44.1300010681152
747.6905072,39.0200004577637
747.7061322,33.4300003051758
747.7217572,27.4799995422363
747.7373822,21.6399993896484
747.7530072,16.3899993896484
747.7686322,11.9399995803833
747.7842572,8.1899995803833
747.7998822,4.71000003814697
747.8155072,0.899999976158142
747.8311322,-3.69000005722046
747.8467572,-9.10000038146973
747.8623822,-14.8199996948242
747.8780072,-20.0499992370605
747.8936322,-24.0699996948242
747.9092572,-26.5799999237061
747.9248822,-27.4599990844727
747.9405072,-26.3799991607666
747.9561322,-22.75
747.9717572,-16.0799999237061
747.9873822,-6.59000015258789
748.0030072,4.55999994277954
748.0186322,15.8100004196167
748.0342572,25.8600006103516
748.0498822,34.2200012207031
748.0655072,41.0200004577637
748.0811322,46.5900001525879
748.0967572,50.939998626709
748.1123822,53.8899993896484
748.1280072,55.6500015258789
748.1436322,56.25
748.1592572,56.1199989318848
748.1748822,55.689998626709
748.1905072,55.2099990844727
748.2061322,54.6699981689453
748.2217572,53.810001373291
748.2373822,52.2799987792969
748.2530072,49.7900009155273
748.2686322,46.3400001525879
748.2842572,42.25
748.2998822,37.9799995422363
748.3155072,33.9099998474121
748.3311322,30.2600002288818
748.3467572,26.9500007629395
748.3623822,23.6200008392334
748.3780072,19.6700000762939
748.3936322,14.6000003814697
748.4092572,8.28999996185303
748.4248822,0.870000004768372
748.4405072,-7.55999994277954
748.4561322,-17.0100002288818
748.4717572,-27.1800003051758
748.4873822,-37.2599983215332
748.5030072,-46.0099983215332
748.5186322,-52.4000015258789
748.5342572,-56.1199989318848
748.5498822,-57.5200004577637
748.5655072,-57.0299987792969
748.5811322,-55.0
748.5967572,-51.7799987792969
748.6123822,-47.8699989318848
748.6280072,-43.6500015258789
748.6436322,-38.9700012207031
748.6592572,-32.9799995422363
748.6748822,-24.7099990844727
748.6905072,-13.960000038147
748.7061322,-1.47000002861023
748.7217572,11.539999961853
748.7373822,24.0499992370605
748.7530072,35.3400001525879
748.7686322,44.7900009155273
748.7842572,51.6100006103516
748.7998822,55.1100006103516
748.8155072,55.2700004577637
748.8311322,52.9099998474121
748.8467572,49.2000007629395
748.8623822,45.189998626709
748.8780072,41.5099983215332
748.8936322,38.3600006103516
748.9092572,35.5800018310547
748.9248822,32.810001373291
748.9405072,29.6599998474121
748.9561322,25.8099994659424
748.9717572,21.2299995422363
748.9873822,15.9700002670288
749.0030072,9.90999984741211
749.0186322,2.9300000667572
749.0342572,-4.82999992370605
749.0498822,-12.8400001525879
749.0655072,-20.25
749.0811322,-26.6000003814697
749.0967572,-32.1500015258789
749.1123822,-37.4799995422363
749.1280072,-43.0
749.1436322,-48.0999984741211
749.1592572,-52.2900009155273
749.1748822,-55.3800010681152
749.1905072,-57.4700012207031
749.2061322,-58.6100006103516
749.2217572,-58.5
749.2373822,-56.7299995422363
749.2530072,-53.1599998474121
749.2686322,-47.9700012207031
749.2842572,-41.3199996948242
749.2998822,-33.310001373291
749.3155072,-24.2700004577637
749.3311322,-14.7700004577637
749.3467572,-5.5
749.3623822,3.0
749.3780072,10.4899997711182
749.3936322,16.7700004577637
749.4092572,21.4799995422363
749.4248822,24.2800006866455
749.4405072,25.2299995422363
749.4561322,24.8400001525879
749.4717572,23.7999992370605
749.4873822,22.5699996948242
749.5030072,21.1700000762939
749.5186322,19.3199996948242
749.5342572,16.8199996948242
749.5498822,13.539999961853
749.5655072,9.40999984741211
749.5811322,4.40000009536743
749.5967572,-1.27999997138977
749.6123822,-7.1100001335144
749.6280072,-12.4499998092651
749.6436322,-16.9599990844727
749.6592572,-20.9899997711182
749.6748822,-25.1000003814697
749.6905072,-29.4400005340576
749.7061322,-33.6500015258789
749.7217572,-37.2400016784668
749.7373822,-39.9599990844727
749.7530072,-41.9300003051758
749.7686322,-43.7099990844727
749.7842572,-46.0900001525879
749.7998822,-49.7400016784668
749.8155072,-54.7400016784668
749.8311322,-60.6699981689453
749.8467572,-66.9400024414063
749.8623822,-73.0400009155273
749.8780072,-78.5999984741211
749.8936322,-82.9800033569336
749.9092572,-85.0699996948242
749.9248822,-83.6399993896484
749.9405072,-77.9700012207031
749.9561322,-68.3099975585938
749.9717572,-55.7900009155273
749.9873822,-41.8600006103516
750.0030072,-27.6599998474121
750.0186322,-13.8000001907349
750.0342572,-0.589999973773956
750.0498822,11.6000003814697
750.0655072,22.0799999237061
750.0811322,30.1000003814697
750.0967572,35.3499984741211
750.1123822,38.0400009155273
750.1280072,38.8699989318848
750.1436322,38.3699989318848
750.1592572,37.1699981689453
750.1748822,35.7799987792969
750.1905072,34.4700012207031
750.2061322,33.2999992370605
750.2217572,32.1100006103516
750.2373822,30.7199993133545
750.2530072,29.0100002288818
750.2686322,26.7700004577637
750.2842572,23.7000007629395
750.2998822,19.4799995422363
750.3155072,14.1899995803833
750.3311322,8.40999984741211
750.3467572,2.96000003814697
750.3623822,-1.69000005722046
750.3780072,-5.8899998664856
750.3936322,-10.2299995422363
750.4092572,-14.8299999237061
750.4248822,-19.2199993133545
750.4405072,-22.7999992370605
750.4561322,-25.2999992370605
750.4717572,-26.8999996185303
750.4873822,-28.0400009155273
750.5030072,-29.2399997711182
750.5186322,-30.8500003814697
750.5342572,-32.8400001525879
750.5498822,-34.6300010681152
750.5655072,-35.2299995422363
750.5811322,-33.7400016784668
750.5967572,-29.9400005340576
750.6123822,-24.0599994659424
750.6280072,-16.2700004577637
750.6436322,-6.48999977111816
750.6592572,5.30000019073486
750.6748822,18.4799995422363
750.6905072,31.6100006103516
750.7061322,43.0299987792969
750.7217572,51.7900009155273
750.7373822,58.0200004577637
750.7530072,62.5099983215332
750.7686322,65.9599990844727
750.7842572,68.4499969482422
750.7998822,69.6399993896484
750.8155072,69.3499984741211
750.8311322,67.7399978637695
750.8467572,65.25
750.8623822,62.3499984741211
750.8780072,59.4199981689453
750.8936322,56.7000007629395
750.9092572,54.2900009155273
750.9248822,52.0800018310547
750.9405072,49.6800003051758
750.9561322,46.6699981689453
750.9717572,42.9599990844727
750.9873822,38.8600006103516
751.0030072,34.7799987792969
751.0186322,31.0400009155273
751.0342572,27.7000007629395
751.0498822,24.4699993133545
751.0655072,20.7900009155273
751.0811322,16.1399993896484
751.0967572,10.3699998855591
751.1123822,3.5699999332428
751.1280072,-4.21000003814697
751.1436322,-13.0200004577637
751.1592572,-22.5400009155273
751.1748822,-31.9400005340576
751.1905072,-39.7900009155273
751.2061322,-44.6399993896484
751.2217572,-45.5900001525879
751.2373822,-42.5
751.2530072,-35.9300003051758
751.2686322,-26.8700008392334
751.2842572,-16.5699996948242
751.2998822,-6.15999984741211
751.3155072,3.5699999332428
751.3311322,12.4899997711182
751.3467572,20.9200000762939
751.3623822,29.3400001525879
751.3780072,38.0
751.3936322,46.7299995422363
751.4092572,55.0299987792969
751.4248822,62.4500007629395
751.4405072,68.6600036621094
751.4561322,73.3199996948242
751.4717572,75.8099975585938
751.4873822,75.6100006103516
751.5030072,72.8099975585938
751.5186322,68.2399978637695
751.5342572,63.1199989318848
751.5498822,58.4799995422363
751.5655072,54.7799987792969
751.5811322,51.9500007629395
751.5967572,49.5299987792969
751.6123822,46.8699989318848
751.6280072,43.2700004577637
751.6436322,38.2799987792969
751.6592572,31.8899993896484
751.6748822,24.3799991607666
751.6905072,15.9300003051758
751.7061322,6.6100001335144
751.7217572,-3.32999992370605
751.7373822,-13.2600002288818
751.7530072,-22.25
751.7686322,-29.75
751.7842572,-36.0299987792969
751.7998822,-41.7599983215332
751.8155072,-47.2200012207031
751.8311322,-52.1399993896484
751.8467572,-56.1100006103516
751.8623822,-58.9900016784668
751.8780072,-60.8499984741211
751.8936322,-61.4099998474121
751.9092572,-59.7000007629395
751.9248822,-54.7099990844727
751.9405072,-46.2900009155273
751.9561322,-35.1500015258789
751.9717572,-22.2800006866455
751.9873822,-8.47999954223633
752.0030072,5.48999977111816
752.0186322,18.7099990844727
752.0342572,30.0100002288818
752.0498822,38.4799995422363
752.0655072,44.0
752.0811322,47.0200004577637
752.0967572,48.0400009155273
752.1123822,47.4000015258789
752.1280072,45.5200004577637
752.1436322,42.9700012207031
752.1592572,40.2599983215332
752.1748822,37.7200012207031
752.1905072,35.3699989318848
752.2061322,32.9799995422363
752.2217572,30.25
752.2373822,26.9099998474121
752.2530072,22.9200000762939
752.2686322,18.4099998474121
752.2842572,13.6800003051758
752.2998822,9.01000022888184
752.3155072,4.51000022888184
752.3311322,-0.119999997317791
752.3467572,-5.67999982833862
752.3623822,-12.9499998092651
752.3780072,-22.1100006103516
752.3936322,-32.9199981689453
752.4092572,-45.1100006103516
752.4248822,-58.4700012207031
752.4405072,-72.5400009155273
752.4561322,-86.2200012207031
752.4717572,-97.9199981689453
752.4873822,-106.319999694824
752.5030072,-111.160003662109
752.5186322,-113.019996643066
752.5342572,-112.569999694824
752.5498822,-110.269996643066
752.5655072,-106.529998779297
752.5811322,-101.889999389648
752.5967572,-96.8099975585938
752.6123822,-91.1800003051758
752.6280072,-84.1500015258789
752.6436322,-74.7300033569336
752.6592572,-62.689998626709
752.6748822,-48.7299995422363
752.6905072,-33.9900016784668
752.7061322,-19.4400005340576
752.7217572,-5.78999996185303
752.7373822,6.21999979019165
752.7530072,15.6800003051758
752.7686322,21.8400001525879
752.7842572,24.7600002288818
752.7998822,25.25
752.8155072,24.3799991607666
752.8311322,22.9899997711182
752.8467572,21.5699996948242
752.8623822,20.2900009155273
752.8780072,19.1399993896484
752.8936322,18.1599998474121
752.9092572,17.5200004577637
752.9248822,17.3799991607666
752.9405072,17.7900009155273
752.9561322,18.5200004577637
752.9717572,19.1900005340576
752.9873822,19.4599990844727
753.0030072,19.1499996185303
753.0186322,18.25
753.0342572,16.7099990844727
753.0498822,14.3400001525879
753.0655072,10.9200000762939
753.0811322,6.42000007629395
753.0967572,1.22000002861023
753.1123822,-4.09000015258789
753.1280072,-8.97999954223633
753.1436322,-13.1899995803833
753.1592572,-16.6599998474121
753.1748822,-19.0300006866455
753.1905072,-19.5
753.2061322,-17.2099990844727
753.2217572,-11.9799995422363
753.2373822,-4.05000019073486
753.2530072,6.48000001907349
753.2686322,19.6100006103516
753.2842572,34.7999992370605
753.2998822,50.6100006103516
753.3155072,65.120002746582
753.3311322,76.879997253418
753.3467572,85.6399993896484
753.3623822,91.8300018310547
753.3780072,95.5
753.3936322,96.3300018310547
753.4092572,94.2900009155273
753.4248822,90.0500030517578
753.4405072,84.6800003051758
753.4561322,79.1999969482422
753.4717572,74.1500015258789
753.4873822,69.629997253418
753.5030072,65.4300003051758
753.5186322,61.3300018310547
753.5342572,57.1800003051758
753.5498822,53.0099983215332
753.5655072,48.8300018310547
753.5811322,44.5400009155273
753.5967572,39.810001373291
753.6123822,34.2200012207031
753.6280072,27.5799999237061
753.6436322,20.0300006866455
753.6592572,11.9700002670288
753.6748822,3.92000007629395
753.6905072,-3.74000000953674
753.7061322,-10.8500003814697
753.7217572,-17.4200000762939
753.7373822,-23.6700000762939
753.7530072,-29.9699993133545
753.7686322,-36.6100006103516
753.7842572,-43.5
753.7998822,-49.7599983215332
753.8155072,-53.810001373291
753.8311322,-54.189998626709
753.8467572,-50.6399993896484
753.8623822,-44.0400009155273
753.8780072,-35.6500015258789
753.8936322,-26.0499992370605
753.9092572,-15.0500001907349
753.9248822,-2.64000010490417
753.9405072,9.89000034332275
753.9561322,20.5300006866455
753.9717572,27.8400001525879
753.9873822,31.7700004577637
754.0030072,33.310001373291
754.0186322,33.4199981689453
754.0342572,32.2799987792969
754.0498822,29.5
754.0655072,24.8999996185303
754.0811322,18.8799991607666
754.0967572,12.3599996566772
754.1123822,6.25
754.1280072,1.03999996185303
754.1436322,-3.34999990463257
754.1592572,-7.51000022888184
754.1748822,-12.0799999237061
754.1905072,-17.5100002288818
754.2061322,-23.8899993896484
754.2217572,-31.0400009155273
754.2373822,-38.7299995422363
754.2530072,-46.8699989318848
754.2686322,-55.4199981689453
754.2842572,-64.2300033569336
754.2998822,-72.9100036621094
754.3155072,-80.9899978637695
754.3311322,-88.2699966430664
754.3467572,-94.9599990844727
754.3623822,-101.440002441406
754.3780072,-107.730003356934
754.3936322,-113.48999786377
754.4092572,-118.370002746582
754.4248822,-122.209999084473
754.4405072,-124.970001220703
754.4561322,-125.919998168945
754.4717572,-123.389999389648
754.4873822,-115.73999786377
754.5030072,-102.73999786377
754.5186322,-85.5999984741211
754.5342572,-66.0
754.5498822,-45.3199996948242
754.5655072,-24.7299995422363
754.5811322,-5.73000001907349
754.5967572,9.65999984741211
754.6123822,19.9599990844727
754.6280072,25.1599998474121
754.6436322,26.5300006866455
754.6592572,25.4500007629395
754.6748822,22.7999992370605
754.6905072,19.1000003814697
754.7061322,14.7799997329712
754.7217572,10.289999961853
754.7373822,6.05000019073486
754.7530072,2.46000003814697
754.7686322,-0.280000001192093
754.7842572,-2.23000001907349
754.7998822,-3.76999998092651
754.8155072,-5.44999980926514
754.8311322,-7.71999979019165
754.8467572,-10.7399997711182
754.8623822,-14.5299997329712
754.8780072,-19.1700000762939
754.8936322,-24.9899997711182
754.9092572,-32.2999992370605
754.9248822,-41.060001373291
754.9405072,-50.5999984741211
754.9561322,-59.9000015258789
754.9717572,-68.1399993896484
754.9873822,-75.0100021362305
755.0030072,-80.6100006103516
755.0186322,-85.0500030517578
755.0342572,-88.129997253418
755.0498822,-89.5599975585938
755.0655072,-89.1600036621094
755.0811322,-86.7200012207031
755.0967572,-81.629997253418
755.1123822,-73.3199996948242
755.1280072,-61.9000015258789
755.1436322,-48.6599998474121
755.1592572,-35.1300010681152
755.1748822,-22.3700008392334
755.1905072,-10.7700004577637
755.2061322,-0.550000011920929
755.2217572,7.53000020980835
755.2373822,12.5600004196167
755.2530072,14.2700004577637
755.2686322,13.4200000762939
755.2842572,11.2200002670288
755.2998822,8.47999954223633
755.3155072,5.1100001335144
755.3311322,0.490000009536743
755.3467572,-5.73999977111816
755.3623822,-13.4799995422363
755.3780072,-22.3400001525879
755.3936322,-31.9099998474121
755.4092572,-41.6699981689453
755.4248822,-50.9099998474121
755.4405072,-58.8600006103516
755.4561322,-65.2399978637695
755.4717572,-70.629997253418
755.4873822,-75.9700012207031
755.5030072,-81.6100006103516
755.5186322,-87.1699981689453
755.5342572,-91.9899978637695
755.5498822,-95.6600036621094
755.5655072,-98.25
755.5811322,-100.290000915527
755.5967572,-102.690002441406
755.6123822,-106.160003662109
755.6280072,-110.819999694824
755.6436322,-116.139999389648
755.6592572,-121.23999786377
755.6748822,-125.379997253418
755.6905072,-128.130004882813
755.7061322,-128.960006713867
755.7217572,-126.910003662109
755.7373822,-120.75
755.7530072,-109.699996948242
755.7686322,-94.129997253418
755.7842572,-75.6100006103516
