Time(s),Value(%)
933.0126097,-7.59000015258789
933.0282347,4.01000022888184
933.0438597,20.2800006866455
933.0594847,39.060001373291
933.0751097,56.4500007629395
933.0907347,68.4499969482422
933.1063597,72.9000015258789
933.1219847,70.370002746582
933.1376097,63.560001373291
933.1532347,55.5999984741211
933.1688597,48.5200004577637
933.1844847,42.939998626709
933.2001097,38.6699981689453
933.2157347,35.2599983215332
933.2313597,32.0
933.2469847,27.8700008392334
933.2626097,21.7600002288818
933.2782347,13.0900001525879
933.2938597,2.52999997138977
933.3094847,-7.96000003814697
933.3251097,-16.1100006103516
933.3407347,-20.5
933.3563597,-21.2000007629395
933.3719847,-19.3400001525879
933.3876097,-16.3299999237061
933.4032347,-13.4899997711182
933.4188597,-12.0299997329712
933.4344847,-12.8299999237061
933.4501097,-16.0
933.4657347,-20.5900001525879
933.4813597,-24.9500007629395
933.4969847,-27.7399997711182
933.5126097,-28.6200008392334
933.5282347,-28.3999996185303
933.5438597,-28.2999992370605
933.5594847,-28.8500003814697
933.5751097,-29.6000003814697
933.5907347,-29.8600006103516
933.6063597,-29.5200004577637
933.6219847,-29.0300006866455
933.6376097,-28.6299991607666
933.6532347,-28.0300006866455
933.6688597,-26.8099994659424
933.6844847,-25.0499992370605
933.7001097,-23.2000007629395
933.7157347,-21.6800003051758
933.7313597,-20.5900001525879
933.7469847,-19.6800003051758
933.7626097,-18.4099998474121
933.7782347,-16.1599998474121
933.7938597,-12.1099996566772
933.8094847,-5.07999992370605
933.8251097,5.94999980926514
933.8407347,20.8099994659424
933.8563597,37.3899993896484
933.8719847,52.3199996948242
933.8876097,62.4799995422363
933.9032347,66.2600021362305
933.9188597,63.9900016784668
933.9344847,57.4700012207031
933.9501097,49.1699981689453
933.9657347,41.3800010681152
933.9813597,35.4199981689453
933.9969847,31.3199996948242
934.0126097,28.2399997711182
934.0282347,25.0300006866455
934.0438597,20.5599994659424
934.0594847,14.0900001525879
934.0751097,5.76000022888184
934.0907347,-3.25999999046326
934.1063597,-11.539999961853
934.1219847,-17.9500007629395
934.1376097,-21.9899997711182
934.1532347,-23.8500003814697
934.1688597,-24.1200008392334
934.1844847,-23.25
934.2001097,-21.3199996948242
934.2157347,-18.6200008392334
934.2313597,-16.1900005340576
934.2469847,-15.3699998855591
934.2626097,-16.9400005340576
934.2782347,-20.5100002288818
934.2938597,-24.8299999237061
934.3094847,-28.6200008392334
934.3251097,-31.25
934.3407347,-32.7900009155273
934.3563597,-33.5800018310547
934.3719847,-33.9099998474121
934.3876097,-33.9300003051758
934.4032347,-33.6399993896484
934.4188597,-32.8400001525879
934.4344847,-31.2700004577637
934.4501097,-28.9500007629395
934.4657347,-26.4400005340576
934.4813597,-24.5300006866455
934.4969847,-23.7700004577637
934.5126097,-23.9300003051758
934.5282347,-24.1000003814697
934.5438597,-23.1900005340576
934.5594847,-20.3500003814697
934.5751097,-14.6800003051758
934.5907347,-5.11999988555908
934.6063597,8.86999988555908
934.6219847,26.1900005340576
934.6376097,43.7299995422363
934.6532347,57.6199989318848
934.6688597,65.120002746582
934.6844847,65.7900009155273
934.7001097,61.1399993896484
934.7157347,53.5200004577637
934.7313597,45.0099983215332
934.7469847,36.9700012207031
934.7626097,30.0100002288818
934.7782347,24.1399993896484
934.7938597,19.0499992370605
934.8094847,14.460000038147
934.8251097,9.97999954223633
934.8407347,5.05999994277954
934.8563597,-0.579999983310699
934.8719847,-6.51000022888184
934.8876097,-11.6199998855591
934.9032347,-14.9099998474121
934.9188597,-16.2099990844727
934.9344847,-16.2999992370605
934.9501097,-16.4500007629395
934.9657347,-17.5599994659424
934.9813597,-19.5499992370605
934.9969847,-21.4799995422363
935.0126097,-22.4500007629395
935.0282347,-22.2199993133545
935.0438597,-21.25
935.0594847,-20.2299995422363
935.0751097,-19.6900005340576
935.0907347,-19.8199996948242
935.1063597,-20.4599990844727
935.1219847,-21.3400001525879
935.1376097,-22.2800006866455
935.1532347,-23.1499996185303
935.1688597,-23.9599990844727
935.1844847,-24.8199996948242
935.2001097,-25.7999992370605
935.2157347,-26.7900009155273
935.2313597,-27.5400009155273
935.2469847,-27.7399997711182
935.2626097,-27.1399993896484
935.2782347,-25.5599994659424
935.2938597,-22.8199996948242
935.3094847,-18.7399997711182
935.3251097,-13.1899995803833
935.3407347,-5.90999984741211
935.3563597,3.82999992370605
935.3719847,16.6499996185303
935.3876097,31.7700004577637
935.4032347,46.5800018310547
935.4188597,57.5
935.4344847,61.9000015258789
935.4501097,59.5900001525879
935.4657347,52.8199996948242
935.4813597,44.6500015258789
935.4969847,37.2900009155273
935.5126097,31.7099990844727
935.5282347,27.8700008392334
935.5438597,24.8400001525879
935.5594847,21.1599998474121
935.5751097,15.6400003433228
935.5907347,7.86999988555908
935.6063597,-1.33000004291534
935.6219847,-10.0799999237061
935.6376097,-15.9700002670288
935.6532347,-17.2099990844727
935.6688597,-13.7700004577637
935.6844847,-7.71999979019165
935.7001097,-2.20000004768372
935.7157347,0.449999988079071
935.7313597,-0.200000002980232
935.7469847,-3.19000005722046
935.7626097,-7.05999994277954
935.7782347,-10.4799995422363
935.7938597,-12.4499998092651
935.8094847,-12.539999961853
935.8251097,-10.9899997711182
935.8407347,-8.63000011444092
935.8563597,-6.75
935.8719847,-6.6100001335144
935.8876097,-8.71000003814697
935.9032347,-12.5
935.9188597,-16.6100006103516
935.9344847,-19.6800003051758
935.9501097,-21.1499996185303
935.9657347,-21.4200000762939
935.9813597,-21.25
935.9969847,-21.1800003051758
936.0126097,-21.3700008392334
936.0282347,-21.5599994659424
936.0438597,-21.0100002288818
936.0594847,-18.5
936.0751097,-12.539999961853
936.0907347,-1.76999998092651
936.1063597,14.039999961853
936.1219847,33.1699981689453
936.1376097,51.9599990844727
936.1532347,66.3499984741211
936.1688597,73.7300033569336
936.1844847,73.8600006103516
936.2001097,68.5899963378906
936.2157347,60.6300010681152
936.2313597,52.2599983215332
936.2469847,44.6500015258789
936.2626097,37.8699989318848
936.2782347,31.4300003051758
936.2938597,24.8999996185303
936.3094847,18.1900005340576
936.3251097,11.3500003814697
936.3407347,4.3899998664856
936.3563597,-2.35999989509583
936.3719847,-7.90999984741211
936.3876097,-11.0200004577637
936.4032347,-11.25
936.4188597,-9.4399995803833
936.4344847,-7.21000003814697
936.4501097,-5.98000001907349
936.4657347,-6.40000009536743
936.4813597,-8.22999954223633
936.4969847,-10.8699998855591
936.5126097,-13.8000001907349
936.5282347,-16.7700004577637
936.5438597,-19.7000007629395
936.5594847,-22.4699993133545
936.5751097,-24.8299999237061
936.5907347,-26.6299991607666
936.6063597,-28.0400009155273
936.6219847,-29.3799991607666
936.6376097,-30.7600002288818
936.6532347,-31.9500007629395
936.6688597,-32.5
936.6844847,-32.0800018310547
936.7001097,-30.6800003051758
936.7157347,-28.7099990844727
936.7313597,-26.7600002288818
936.7469847,-25.1900005340576
936.7626097,-23.9300003051758
936.7782347,-22.2800006866455
936.7938597,-18.8999996185303
936.8094847,-11.9700002670288
936.8251097,-0.150000005960464
936.8407347,16.1399993896484
936.8563597,33.9700012207031
936.8719847,48.9300003051758
936.8876097,57.6199989318848
936.9032347,59.439998626709
936.9188597,56.2799987792969
936.9344847,50.7700004577637
936.9501097,44.8499984741211
936.9657347,39.3499984741211
936.9813597,34.2299995422363
936.9969847,29.2000007629395
937.0126097,24.1399993896484
937.0282347,19.1399993896484
937.0438597,14.0799999237061
937.0594847,8.39000034332275
937.0751097,1.45000004768372
937.0907347,-6.6100001335144
937.1063597,-14.7700004577637
937.1219847,-21.5100002288818
937.1376097,-25.6700000762939
937.1532347,-26.9099998474121
937.1688597,-25.6900005340576
937.1844847,-23.0100002288818
937.2001097,-20.0799999237061
937.2157347,-18.0100002288818
937.2313597,-17.5
937.2469847,-18.5300006866455
937.2626097,-20.5100002288818
937.2782347,-22.7700004577637
937.2938597,-24.9200000762939
937.3094847,-26.8700008392334
937.3251097,-28.4300003051758
937.3407347,-29.2399997711182
937.3563597,-29.0300006866455
937.3719847,-27.9799995422363
937.3876097,-26.7399997711182
937.4032347,-26.1399993896484
937.4188597,-26.5499992370605
937.4344847,-27.5699996948242
937.4501097,-28.4200000762939
937.4657347,-28.5200004577637
937.4813597,-27.5799999237061
937.4969847,-25.4899997711182
937.5126097,-22.3400001525879
937.5282347,-18.6399993896484
937.5438597,-15.039999961853
937.5594847,-11.6899995803833
937.5751097,-7.55999994277954
937.5907347,-0.810000002384186
937.6063597,9.9399995803833
937.6219847,24.2900009155273
937.6376097,39.6399993896484
937.6532347,52.2700004577637
937.6688597,59.0499992370605
937.6844847,58.9300003051758
937.7001097,53.3699989318848
937.7157347,45.3199996948242
937.7313597,37.5099983215332
937.7469847,31.2399997711182
937.7626097,26.4099998474121
937.7782347,22.0400009155273
937.7938597,16.9799995422363
937.8094847,10.5200004577637
937.8251097,2.70000004768372
937.8407347,-5.59999990463257
937.8563597,-12.9099998474121
937.8719847,-17.6700000762939
937.8876097,-19.1700000762939
937.9032347,-17.7900009155273
937.9188597,-14.5200004577637
937.9344847,-10.4899997711182
937.9501097,-6.73999977111816
937.9657347,-4.05000019073486
937.9813597,-2.76999998092651
937.9969847,-2.79999995231628
938.0126097,-3.66000008583069
938.0282347,-4.63000011444092
938.0438597,-4.94999980926514
938.0594847,-4.5
938.0751097,-4.15999984741211
938.0907347,-5.42000007629395
938.1063597,-9.22999954223633
938.1219847,-15.2200002670288
938.1376097,-21.7800006866455
938.1532347,-27.0699996948242
938.1688597,-29.9099998474121
938.1844847,-30.1299991607666
938.2001097,-28.2999992370605
938.2157347,-25.2600002288818
938.2313597,-21.8500003814697
938.2469847,-18.7700004577637
938.2626097,-16.6299991607666
938.2782347,-15.789999961853
938.2938597,-16.0499992370605
938.3094847,-16.5
938.3251097,-15.9300003051758
938.3407347,-13.3199996948242
938.3563597,-8.05000019073486
938.3719847,0.409999996423721
938.3876097,12.3599996566772
938.4032347,27.0300006866455
938.4188597,42.0499992370605
938.4344847,54.0099983215332
938.4501097,60.189998626709
938.4657347,60.0800018310547
938.4813597,55.4300003051758
938.4969847,48.8899993896484
938.5126097,42.6100006103516
938.5282347,37.4900016784668
938.5438597,33.3800010681152
938.5594847,29.4699993133545
938.5751097,24.8899993896484
938.5907347,19.0799999237061
938.6063597,12.0900001525879
938.6219847,4.67999982833862
938.6376097,-1.86000001430511
938.6532347,-6.34999990463257
938.6688597,-8.19999980926514
938.6844847,-7.48000001907349
938.7001097,-4.90000009536743
938.7157347,-1.74000000953674
938.7313597,0.529999971389771
938.7469847,1.0
938.7626097,-0.270000010728836
938.7782347,-2.58999991416931
938.7938597,-5.1399998664856
938.8094847,-7.34000015258789
938.8251097,-8.86999988555908
938.8407347,-9.52999973297119
938.8563597,-9.47000026702881
938.8719847,-9.22999954223633
938.8876097,-9.47000026702881
938.9032347,-10.6099996566772
938.9188597,-12.6599998474121
938.9344847,-15.1499996185303
938.9501097,-17.1700000762939
938.9657347,-17.9599990844727
938.9813597,-17.5900001525879
938.9969847,-17.1000003814697
939.0126097,-17.5900001525879
939.0282347,-19.1900005340576
939.0438597,-21.0100002288818
939.0594847,-21.8700008392334
939.0751097,-20.9799995422363
939.0907347,-18.0100002288818
939.1063597,-12.5900001525879
939.1219847,-3.97000002861023
939.1376097,8.44999980926514
939.1532347,23.9099998474121
939.1688597,39.6300010681152
939.1844847,51.8699989318848
939.2001097,57.7799987792969
939.2157347,56.6199989318848
939.2313597,49.8699989318848
939.2469847,40.3199996948242
939.2626097,30.8600006103516
939.2782347,23.4899997711182
939.2938597,18.9599990844727
939.3094847,16.8299999237061
939.3251097,15.8699998855591
939.3407347,14.5200004577637
939.3563597,11.3800001144409
939.3719847,5.94999980926514
939.3876097,-0.920000016689301
939.4032347,-7.57999992370605
939.4188597,-12.4700002670288
939.4344847,-14.75
939.4501097,-14.3900003433228
939.4657347,-12.039999961853
939.4813597,-8.72999954223633
939.4969847,-5.65000009536743
939.5126097,-3.91000008583069
939.5282347,-4.19000005722046
939.5438597,-6.30999994277954
939.5594847,-9.40999984741211
939.5751097,-12.4399995803833
939.5907347,-14.789999961853
939.6063597,-16.4099998474121
939.6219847,-17.5799999237061
939.6376097,-18.5400009155273
939.6532347,-19.1599998474121
939.6688597,-19.0200004577637
939.6844847,-18.0799999237061
939.7001097,-16.9799995422363
939.7157347,-16.6299991607666
939.7313597,-17.4599990844727
939.7469847,-19.0200004577637
939.7626097,-20.2299995422363
939.7782347,-20.3199996948242
939.7938597,-19.4899997711182
939.8094847,-18.4200000762939
939.8251097,-17.3999996185303
939.8407347,-15.960000038147
939.8563597,-13.1199998855591
939.8719847,-7.6399998664856
939.8876097,1.46000003814697
939.9032347,14.1099996566772
939.9188597,28.5900001525879
939.9344847,41.7900009155273
939.9501097,50.4300003051758
939.9657347,52.5400009155273
939.9813597,48.5400009155273
939.9969847,40.9099998474121
940.0126097,32.6199989318848
940.0282347,25.5599994659424
940.0438597,20.2700004577637
940.0594847,16.4400005340576
940.0751097,13.4700002670288
940.0907347,10.5100002288818
940.1063597,6.57999992370605
940.1219847,0.990000009536743
940.1376097,-6.07999992370605
940.1532347,-13.3900003433228
940.1688597,-19.1599998474121
940.1844847,-22.1000003814697
940.2001097,-21.9200000762939
940.2157347,-19.4699993133545
940.2313597,-16.2900009155273
940.2469847,-13.9700002670288
940.2626097,-13.3400001525879
940.2782347,-14.0100002288818
940.2938597,-14.8800001144409
940.3094847,-15.2799997329712
940.3251097,-15.5900001525879
940.3407347,-16.6299991607666
940.3563597,-18.5799999237061
940.3719847,-20.8999996185303
940.3876097,-22.8799991607666
940.4032347,-24.25
940.4188597,-25.2700004577637
940.4344847,-26.3400001525879
940.4501097,-27.7600002288818
940.4657347,-29.5200004577637
940.4813597,-31.0400009155273
940.4969847,-31.2299995422363
940.5126097,-29.3700008392334
940.5282347,-25.7900009155273
940.5438597,-21.5300006866455
940.5594847,-17.5799999237061
940.5751097,-14.5
940.5907347,-12.2600002288818
940.6063597,-10.4099998474121
940.6219847,-8.10999965667725
940.6376097,-3.84999990463257
940.6532347,4.26000022888184
940.6688597,17.0300006866455
940.6844847,32.6699981689453
940.7001097,47.1599998474121
940.7157347,56.3899993896484
940.7313597,58.2599983215332
940.7469847,53.4599990844727
940.7626097,44.4099998474121
940.7782347,33.8699989318848
940.7938597,24.0300006866455
940.8094847,16.2000007629395
940.8251097,10.5699996948242
940.8407347,6.40000009536743
940.8563597,2.52999997138977
940.8719847,-1.96000003814697
940.8876097,-7.26000022888184
940.9032347,-12.6199998855591
940.9188597,-16.7600002288818
940.9344847,-18.75
940.9501097,-18.5699996948242
940.9657347,-16.9300003051758
940.9813597,-14.5900001525879
940.9969847,-11.9399995803833
941.0126097,-9.27000045776367
941.0282347,-7.03999996185303
941.0438597,-5.76000022888184
941.0594847,-5.51999998092651
941.0751097,-5.73000001907349
941.0907347,-5.69999980926514
941.1063597,-5.3899998664856
941.1219847,-5.40999984741211
941.1376097,-6.44000005722046
941.1532347,-8.59000015258789
941.1688597,-11.4300003051758
941.1844847,-14.4300003051758
941.2001097,-17.4400005340576
941.2157347,-20.5300006866455
941.2313597,-23.4099998474121
941.2469847,-25.1100006103516
941.2626097,-24.6700000762939
941.2782347,-21.9899997711182
941.2938597,-18.0799999237061
941.3094847,-14.3699998855591
941.3251097,-11.7399997711182
941.3407347,-9.94999980926514
941.3563597,-7.76000022888184
941.3719847,-3.36999988555908
941.3876097,4.80999994277954
941.4032347,17.1599998474121
941.4188597,31.8899993896484
941.4344847,45.3199996948242
941.4501097,53.6199989318848
941.4657347,54.9799995422363
941.4813597,50.2400016784668
941.4969847,42.0099983215332
941.5126097,33.2700004577637
941.5282347,26.2600002288818
941.5438597,21.8799991607666
941.5594847,19.6299991607666
941.5751097,18.0699996948242
941.5907347,15.5600004196167
941.6063597,10.9300003051758
941.6219847,4.1399998664856
941.6376097,-3.36999988555908
941.6532347,-9.25
941.6688597,-11.3999996185303
941.6844847,-9.30000019073486
941.7001097,-4.40000009536743
941.7157347,0.629999995231628
941.7313597,3.44000005722046
941.7469847,3.0699999332428
941.7626097,0.0
941.7782347,-4.44999980926514
941.7938597,-8.67000007629395
941.8094847,-11.2299995422363
941.8251097,-11.5
941.8407347,-9.82999992370605
941.8563597,-7.30999994277954
941.8719847,-5.07999992370605
941.8876097,-3.77999997138977
941.9032347,-3.67000007629395
941.9188597,-4.80000019073486
941.9344847,-7.03999996185303
941.9501097,-9.86999988555908
941.9657347,-12.5699996948242
941.9813597,-14.6700000762939
941.9969847,-16.2800006866455
942.0126097,-17.8299999237061
942.0282347,-19.5100002288818
942.0438597,-20.6900005340576
942.0594847,-19.7399997711182
942.0751097,-14.5699996948242
942.0907347,-3.89000010490417
942.1063597,11.5
942.1219847,28.3799991607666
942.1376097,42.5499992370605
942.1532347,50.939998626709
942.1688597,52.810001373291
942.1844847,49.4500007629395
942.2001097,43.2599983215332
942.2157347,36.6100006103516
942.2313597,30.9799995422363
942.2469847,26.5699996948242
942.2626097,23.0100002288818
942.2782347,19.9099998474121
942.2938597,17.0100002288818
942.3094847,13.8100004196167
942.3251097,9.55000019073486
942.3407347,3.75
942.3563597,-3.17000007629395
942.3719847,-9.90999984741211
942.3876097,-15.0699996948242
942.4032347,-18.0499992370605
942.4188597,-19.25
942.4344847,-19.6000003814697
942.4501097,-19.8199996948242
942.4657347,-19.8999996185303
942.4813597,-19.4099998474121
942.4969847,-18.3700008392334
942.5126097,-17.5
942.5282347,-17.6800003051758
942.5438597,-19.3199996948242
942.5594847,-22.0799999237061
942.5751097,-25.1399993896484
942.5907347,-27.6900005340576
942.6063597,-29.1700000762939
942.6219847,-29.3799991607666
942.6376097,-28.3500003814697
942.6532347,-26.3400001525879
942.6688597,-23.7999992370605
942.6844847,-21.25
942.7001097,-19.1399993896484
942.7157347,-17.6100006103516
942.7313597,-16.5699996948242
942.7469847,-15.7600002288818
942.7626097,-14.6499996185303
942.7782347,-12.039999961853
942.7938597,-6.26000022888184
942.8094847,3.82999992370605
942.8251097,17.5400009155273
942.8407347,32.0800018310547
942.8563597,43.8300018310547
942.8719847,50.1100006103516
942.8876097,50.1800003051758
942.9032347,45.2400016784668
942.9188597,37.6500015258789
942.9344847,29.9300003051758
942.9501097,23.7199993133545
942.9657347,19.3099994659424
942.9813597,16.0
942.9969847,12.9200000762939
943.0126097,9.39999961853027
943.0282347,4.86999988555908
943.0438597,-1.07000005245209
943.0594847,-8.07999992370605
943.0751097,-14.8500003814697
943.0907347,-19.7000007629395
943.1063597,-21.6499996185303
943.1219847,-20.7900009155273
943.1376097,-18.1700000762939
943.1532347,-15.4099998474121
943.1688597,-13.9899997711182
943.1844847,-14.3999996185303
943.2001097,-16.0200004577637
943.2157347,-17.9099998474121
943.2313597,-19.5200004577637
943.2469847,-20.7999992370605
943.2626097,-21.8199996948242
943.2782347,-22.5400009155273
943.2938597,-22.8400001525879
943.3094847,-22.5100002288818
943.3251097,-21.3400001525879
943.3407347,-19.2399997711182
943.3563597,-16.4799995422363
943.3719847,-13.7299995422363
943.3876097,-11.8800001144409
943.4032347,-11.3699998855591
943.4188597,-11.8599996566772
943.4344847,-12.75
943.4501097,-13.710000038147
943.4657347,-14.6800003051758
943.4813597,-15.4700002670288
943.4969847,-15.4799995422363
943.5126097,-13.6300001144409
943.5282347,-8.55000019073486
943.5438597,0.850000023841858
943.5594847,14.6800003051758
943.5751097,31.3199996948242
943.5907347,47.5
943.6063597,59.560001373291
943.6219847,64.9499969482422
943.6376097,63.1300010681152
943.6532347,55.7099990844727
943.6688597,45.810001373291
943.6844847,36.7099990844727
943.7001097,30.3199996948242
943.7157347,26.2999992370605
943.7313597,22.7299995422363
