Time(s),Value(%)
933.0126097,-10.8299999237061
933.0282347,-11.9799995422363
933.0438597,-13.6000003814697
933.0594847,-15.5500001907349
933.0751097,-17.6000003814697
933.0907347,-19.5
933.1063597,-21.1100006103516
933.1219847,-22.3899993896484
933.1376097,-23.3899993896484
933.1532347,-24.1299991607666
933.1688597,-24.6700000762939
933.1844847,-24.9500007629395
933.2001097,-24.8299999237061
933.2157347,-24.2600002288818
933.2313597,-23.3700008392334
933.2469847,-22.3899993896484
933.2626097,-21.4699993133545
933.2782347,-20.5499992370605
933.2938597,-19.4500007629395
933.3094847,-18.1399993896484
933.3251097,-16.6299991607666
933.3407347,-14.9200000762939
933.3563597,-12.9099998474121
933.3719847,-10.2200002670288
933.3876097,-5.69000005722046
933.4032347,2.59999990463257
933.4188597,16.0400009155273
933.4344847,33.4099998474121
933.4501097,50.7599983215332
933.4657347,63.5900001525879
933.4813597,69.379997253418
933.4969847,68.3000030517578
933.5126097,62.5699996948242
933.5282347,54.9199981689453
933.5438597,47.310001373291
933.5594847,40.5299987792969
933.5751097,34.5299987792969
933.5907347,28.8899993896484
933.6063597,23.1000003814697
933.6219847,16.8299999237061
933.6376097,10.0600004196167
933.6532347,3.10999989509583
933.6688597,-3.42000007629395
933.6844847,-8.9399995803833
933.7001097,-13.0299997329712
933.7157347,-15.5900001525879
933.7313597,-16.9200000762939
933.7469847,-17.6100006103516
933.7626097,-18.3299999237061
933.7782347,-19.5400009155273
933.7938597,-21.2999992370605
933.8094847,-23.4300003051758
933.8251097,-25.6399993896484
933.8407347,-27.6800003051758
933.8563597,-29.3700008392334
933.8719847,-30.6499996185303
933.8876097,-31.6299991607666
933.9032347,-32.4500007629395
933.9188597,-33.1699981689453
933.9344847,-33.7400016784668
933.9501097,-34.0200004577637
933.9657347,-33.8499984741211
933.9813597,-33.1399993896484
933.9969847,-31.9400005340576
934.0126097,-30.3400001525879
934.0282347,-28.4300003051758
934.0438597,-26.1399993896484
934.0594847,-23.4599990844727
934.0751097,-20.5799999237061
934.0907347,-17.8099994659424
934.1063597,-15.3000001907349
934.1219847,-13.0299997329712
934.1376097,-10.9099998474121
934.1532347,-8.84000015258789
934.1688597,-6.28999996185303
934.1844847,-1.72000002861023
934.2001097,7.03999996185303
934.2157347,20.8700008392334
934.2313597,37.8699989318848
934.2469847,53.9799995422363
934.2626097,65.1999969482422
934.2782347,69.4300003051758
934.2938597,67.0500030517578
934.3094847,60.1699981689453
934.3251097,51.439998626709
934.3407347,43.0499992370605
934.3563597,36.189998626709
934.3719847,30.8500003814697
934.3876097,26.2099990844727
934.4032347,21.2999992370605
934.4188597,15.5799999237061
934.4344847,9.14999961853027
934.4501097,2.58999991416931
934.4657347,-3.28999996185303
934.4813597,-7.82999992370605
934.4969847,-10.6999998092651
934.5126097,-11.9899997711182
934.5282347,-12.1400003433228
934.5438597,-11.7399997711182
934.5594847,-11.3400001525879
934.5751097,-11.3500003814697
934.5907347,-11.9300003051758
934.6063597,-12.9399995803833
934.6219847,-14.0699996948242
934.6376097,-15.1499996185303
934.6532347,-16.1599998474121
934.6688597,-17.2199993133545
934.6844847,-18.5499992370605
934.7001097,-20.3600006103516
934.7157347,-22.5
934.7313597,-24.5200004577637
934.7469847,-25.8999996185303
934.7626097,-26.4099998474121
934.7782347,-26.1399993896484
934.7938597,-25.3500003814697
934.8094847,-24.3400001525879
934.8251097,-23.3099994659424
934.8407347,-22.3299999237061
934.8563597,-21.2800006866455
934.8719847,-20.0
934.8876097,-18.4400005340576
934.9032347,-16.6700000762939
934.9188597,-14.8500003814697
934.9344847,-13.039999961853
934.9501097,-10.8400001525879
934.9657347,-6.96000003814697
934.9813597,0.720000028610229
934.9969847,13.6499996185303
935.0126097,30.6399993896484
935.0282347,47.7599983215332
935.0438597,60.4599990844727
935.0594847,65.9599990844727
935.0751097,64.2699966430664
935.0907347,57.5499992370605
935.1063597,48.7299995422363
935.1219847,40.2200012207031
935.1376097,33.2299995422363
935.1532347,27.7299995422363
935.1688597,22.9099998474121
935.1844847,17.9500007629395
935.2001097,12.3100004196167
935.2157347,6.05000019073486
935.2313597,-0.200000002980232
935.2469847,-5.65000009536743
935.2626097,-9.6899995803833
935.2782347,-12.1400003433228
935.2938597,-13.210000038147
935.3094847,-13.3299999237061
935.3251097,-12.960000038147
935.3407347,-12.4300003051758
935.3563597,-11.9899997711182
935.3719847,-11.8900003433228
935.3876097,-12.3000001907349
935.4032347,-13.2700004577637
935.4188597,-14.8000001907349
935.4344847,-16.75
935.4501097,-18.9300003051758
935.4657347,-21.0400009155273
935.4813597,-22.7999992370605
935.4969847,-24.1000003814697
935.5126097,-24.8700008392334
935.5282347,-24.9899997711182
935.5438597,-24.3899993896484
935.5594847,-23.2399997711182
935.5751097,-21.8400001525879
935.5907347,-20.3700008392334
935.6063597,-18.7700004577637
935.6219847,-16.9200000762939
935.6376097,-14.8900003433228
935.6532347,-12.8400001525879
935.6688597,-10.9099998474121
935.6844847,-9.14999961853027
935.7001097,-7.40999984741211
935.7157347,-4.90000009536743
935.7313597,0.200000002980232
935.7469847,9.96000003814697
935.7626097,24.4500007629395
935.7782347,40.8899993896484
935.7938597,54.9099998474121
935.8094847,62.8699989318848
935.8251097,63.4300003051758
935.8407347,57.7400016784668
935.8563597,48.4300003051758
935.8719847,38.2999992370605
935.8876097,29.3099994659424
935.9032347,22.1299991607666
935.9188597,16.3199996948242
935.9344847,11.0299997329712
935.9501097,5.55000019073486
935.9657347,-0.270000010728836
935.9813597,-6.03000020980835
935.9969847,-11.0100002288818
936.0126097,-14.539999961853
936.0282347,-16.3299999237061
936.0438597,-16.4400005340576
936.0594847,-15.25
936.0751097,-13.4099998474121
936.0907347,-11.6400003433228
936.1063597,-10.6300001144409
936.1219847,-10.7600002288818
936.1376097,-11.9300003051758
936.1532347,-13.6499996185303
936.1688597,-15.3900003433228
936.1844847,-16.8099994659424
936.2001097,-17.9200000762939
936.2157347,-18.8500003814697
936.2313597,-19.7099990844727
936.2469847,-20.5200004577637
936.2626097,-21.1900005340576
936.2782347,-21.5300006866455
936.2938597,-21.4300003051758
936.3094847,-20.9200000762939
936.3251097,-20.1200008392334
936.3407347,-19.1700000762939
936.3563597,-18.1499996185303
936.3719847,-17.0
936.3876097,-15.6999998092651
936.4032347,-6.95666599273682
936.4188597,1.7866678237915
936.4344847,10.5300016403198
936.4501097,19.2733345031738
936.4657347,28.0166664123535
936.4813597,36.7600021362305
936.4969847,45.5033378601074
936.5126097,54.2466697692871
936.5282347,62.9900016784668
936.5438597,65.1500015258789
936.5594847,60.7099990844727
936.5751097,52.3499984741211
936.5907347,42.8400001525879
936.6063597,34.0999984741211
936.6219847,26.8799991607666
936.6376097,21.1399993896484
936.6532347,20.6033325195313
936.6688597,20.0666656494141
936.6844847,19.5299987792969
936.7001097,18.9933319091797
936.7157347,18.4566669464111
936.7313597,17.9200000762939
936.7469847,17.3833332061768
936.7626097,16.8466663360596
936.7782347,16.3099994659424
936.7938597,11.6700000762939
936.8094847,6.59000015258789
936.8251097,0.800000011920929
936.8407347,-5.3899998664856
936.8563597,-11.1599998474121
936.8719847,-15.5600004196167
936.8876097,-18.0900001525879
936.9032347,-18.8700008392334
936.9188597,-18.4899997711182
936.9344847,-17.6700000762939
936.9501097,-17.0200004577637
936.9657347,-17.0200004577637
936.9813597,-17.8199996948242
936.9969847,-19.2099990844727
937.0126097,-20.7700004577637
937.0282347,-22.1299991607666
937.0438597,-23.1399993896484
937.0594847,-24.0100002288818
937.0751097,-24.9599990844727
937.0907347,-25.9599990844727
937.1063597,-26.7099990844727
937.1219847,-26.9699993133545
937.1376097,-26.7399997711182
937.1532347,-26.2199993133545
937.1688597,-25.6399993896484
937.1844847,-24.9899997711182
937.2001097,-24.1200008392334
937.2157347,-22.9300003051758
937.2313597,-21.3700008392334
937.2469847,-19.4699993133545
937.2626097,-17.2600002288818
937.2782347,-14.3400001525879
937.2938597,-9.32999992370605
937.3094847,-0.109999999403954
937.3251097,14.5500001907349
937.3407347,33.1800003051758
937.3563597,51.3800010681152
937.3719847,64.2799987792969
937.3876097,69.2200012207031
937.4032347,66.6800003051758
937.4188597,59.2599983215332
937.4344847,50.0400009155273
937.4501097,41.2999992370605
937.4657347,34.1500015258789
937.4813597,28.6399993896484
937.4969847,24.0799999237061
937.5126097,19.5699996948242
937.5282347,14.4499998092651
937.5438597,8.57999992370605
937.5594847,2.29999995231628
937.5751097,-3.84999990463257
937.5907347,-9.46000003814697
937.6063597,-14.2200002670288
937.6219847,-17.7999992370605
937.6376097,-19.9400005340576
937.6532347,-20.6200008392334
937.6688597,-20.2299995422363
937.6844847,-19.4799995422363
937.7001097,-19.0200004577637
937.7157347,-19.1599998474121
937.7313597,-19.9200000762939
937.7469847,-21.1700000762939
937.7626097,-22.7199993133545
937.7782347,-24.3899993896484
937.7938597,-26.0
937.8094847,-27.3199996948242
937.8251097,-28.1900005340576
937.8407347,-28.6100006103516
937.8563597,-28.7199993133545
937.8719847,-28.6499996185303
937.8876097,-28.3500003814697
937.9032347,-27.7199993133545
937.9188597,-26.7099990844727
937.9344847,-25.3299999237061
937.9501097,-23.5799999237061
937.9657347,-21.4799995422363
937.9813597,-19.0200004577637
937.9969847,-16.3700008392334
938.0126097,-13.8299999237061
938.0282347,-11.6599998474121
938.0438597,-9.77999973297119
938.0594847,-7.80999994277954
938.0751097,-4.90000009536743
938.0907347,0.790000021457672
938.1063597,11.6400003433228
938.1219847,28.1700000762939
938.1376097,47.439998626709
938.1532347,64.3899993896484
938.1688597,74.6999969482422
938.1844847,76.75
938.2001097,71.8099975585938
938.2157347,62.8300018310547
938.2313597,52.8699989318848
938.2469847,43.8899993896484
938.2626097,36.5
938.2782347,30.2299995422363
938.2938597,24.2900009155273
938.3094847,18.0900001525879
938.3251097,11.539999961853
938.3407347,4.90000009536743
938.3563597,-1.4099999666214
938.3719847,-6.94999980926514
938.3876097,-11.1499996185303
938.4032347,-13.6599998474121
938.4188597,-14.5
938.4344847,-14.1499996185303
938.4501097,-13.3299999237061
938.4657347,-12.7200002670288
938.4813597,-12.6999998092651
938.4969847,-13.3999996185303
938.5126097,-14.7200002670288
938.5282347,-16.4500007629395
938.5438597,-18.3299999237061
938.5594847,-20.1200008392334
938.5751097,-21.6700000762939
938.5907347,-22.9400005340576
938.6063597,-24.1100006103516
938.6219847,-25.25
938.6376097,-26.2000007629395
938.6532347,-26.7000007629395
938.6688597,-26.5599994659424
938.6844847,-25.7299995422363
938.7001097,-24.2800006866455
938.7157347,-22.4699993133545
938.7313597,-20.5799999237061
938.7469847,-18.7999992370605
938.7626097,-17.1499996185303
938.7782347,-15.5100002288818
938.7938597,-13.6999998092651
938.8094847,-11.710000038147
938.8251097,-9.67000007629395
938.8407347,-7.53000020980835
938.8563597,-4.42999982833862
938.8719847,1.48000001907349
938.8876097,12.1499996185303
938.9032347,27.7299995422363
938.9188597,45.5400009155273
938.9344847,61.1699981689453
938.9501097,70.6800003051758
938.9657347,72.4499969482422
938.9813597,67.5
938.9969847,58.4300003051758
939.0126097,48.0400009155273
939.0282347,38.2299995422363
939.0438597,29.8099994659424
939.0594847,22.6599998474121
939.0751097,16.2099990844727
939.0907347,9.90999984741211
939.1063597,3.5699999332428
939.1219847,-2.64000010490417
939.1376097,-8.26000022888184
939.1532347,-12.6199998855591
939.1688597,-15.1700000762939
939.1844847,-15.7799997329712
939.2001097,-14.9300003051758
939.2157347,-13.5
939.2313597,-12.3000001907349
939.2469847,-11.8400001525879
939.2626097,-12.3000001907349
939.2782347,-13.5600004196167
939.2938597,-15.2700004577637
939.3094847,-17.1599998474121
939.3251097,-19.0200004577637
939.3407347,-20.7600002288818
939.3563597,-22.3299999237061
939.3719847,-23.7399997711182
939.3876097,-24.9699993133545
939.4032347,-25.8400001525879
939.4188597,-26.1499996185303
939.4344847,-25.8799991607666
939.4501097,-25.1499996185303
939.4657347,-24.1200008392334
939.4813597,-22.9099998474121
939.4969847,-21.6700000762939
939.5126097,-20.5400009155273
939.5282347,-19.4400005340576
939.5438597,-18.2399997711182
939.5594847,-16.8400001525879
939.5751097,-15.1499996185303
939.5907347,-12.5200004577637
939.6063597,-7.26000022888184
939.6219847,2.75
939.6376097,18.1900005340576
939.6532347,36.9300003051758
939.6688597,54.6599998474121
939.6844847,67.0599975585938
939.7001097,71.8099975585938
939.7157347,69.2399978637695
939.7313597,61.560001373291
939.7469847,51.6300010681152
939.7626097,41.7099990844727
939.7782347,33.060001373291
939.7938597,25.9699993133545
939.8094847,19.9699993133545
939.8251097,14.289999961853
939.8407347,8.27999973297119
939.8563597,1.67999994754791
939.8719847,-5.26000022888184
939.8876097,-11.8800001144409
939.9032347,-17.3199996948242
939.9188597,-20.9799995422363
939.9344847,-22.8299999237061
939.9501097,-23.2999992370605
939.9657347,-23.0200004577637
939.9813597,-22.5699996948242
939.9969847,-22.3199996948242
940.0126097,-22.3899993896484
940.0282347,-22.7600002288818
940.0438597,-23.3500003814697
940.0594847,-24.1000003814697
940.0751097,-24.9400005340576
940.0907347,-25.8700008392334
940.1063597,-26.9200000762939
940.1219847,-28.1000003814697
940.1376097,-29.2900009155273
940.1532347,-30.1900005340576
940.1688597,-30.5100002288818
940.1844847,-30.0599994659424
940.2001097,-28.8700008392334
940.2157347,-27.1800003051758
940.2313597,-25.3199996948242
940.2469847,-23.5499992370605
940.2626097,-21.9899997711182
940.2782347,-20.4699993133545
940.2938597,-18.7099990844727
940.3094847,-16.4799995422363
940.3251097,-13.6599998474121
940.3407347,-9.76000022888184
940.3563597,-3.11999988555908
940.3719847,8.34000015258789
940.3876097,24.9799995422363
940.4032347,44.0400009155273
940.4188597,60.9700012207031
940.4344847,71.8099975585938
940.4501097,75.0100021362305
940.4657347,71.5699996948242
940.4813597,63.9900016784668
940.4969847,55.0
940.5126097,46.560001373291
940.5282347,39.439998626709
940.5438597,33.4900016784668
940.5594847,28.0699996948242
940.5751097,22.4599990844727
940.5907347,16.2099990844727
940.6063597,9.28999996185303
940.6219847,2.04999995231628
940.6376097,-4.86999988555908
940.6532347,-10.7600002288818
940.6688597,-15.0799999237061
940.6844847,-17.6800003051758
940.7001097,-18.75
940.7157347,-18.7199993133545
940.7313597,-18.2299995422363
940.7469847,-18.1399993896484
940.7626097,-19.3299999237061
940.7782347,-22.2900009155273
940.7938597,-26.7000007629395
940.8094847,-31.4799995422363
940.8251097,-35.1399993896484
940.8407347,-36.4099998474121
940.8563597,-34.7999992370605
940.8719847,-30.8799991607666
940.8876097,-26.0599994659424
940.9032347,-21.7999992370605
940.9188597,-18.7299995422363
940.9344847,-16.3500003814697
940.9501097,-13.6000003814697
940.9657347,-9.60000038146973
940.9813597,-4.19000005722046
940.9969847,2.0
941.0126097,8.22000026702881
941.0282347,14.4300003051758
941.0438597,21.3299999237061
941.0594847,28.9300003051758
941.0751097,35.560001373291
941.0907347,38.4599990844727
941.1063597,35.25
941.1219847,25.6800003051758
941.1376097,12.9899997711182
941.1532347,2.76999998092651
941.1688597,-0.509999990463257
941.1844847,3.55999994277954
941.2001097,11.5500001907349
941.2157347,18.5200004577637
941.2313597,20.7600002288818
941.2469847,17.1000003814697
941.2626097,8.82999992370605
941.2782347,-1.20000004768372
941.2938597,-10.1099996566772
941.3094847,-16.3700008392334
941.3251097,-20.3700008392334
941.3407347,-23.5799999237061
941.3563597,-27.4300003051758
941.3719847,-32.4900016784668
941.3876097,-38.2599983215332
941.4032347,-43.4000015258789
941.4188597,-46.4099998474121
941.4344847,-46.310001373291
941.4501097,-42.9599990844727
941.4657347,-37.0400009155273
941.4813597,-29.7700004577637
941.4969847,-22.5599994659424
941.5126097,-16.6000003814697
941.5282347,-12.6599998474121
941.5438597,-10.6700000762939
941.5594847,-9.77999973297119
941.5751097,-8.86999988555908
941.5907347,-7.09999990463257
941.6063597,-4.19000005722046
941.6219847,-0.419999986886978
941.6376097,3.29999995231628
941.6532347,5.82000017166138
941.6688597,6.34999990463257
941.6844847,5.05999994277954
941.7001097,2.83999991416931
941.7157347,0.689999997615814
941.7313597,-0.709999978542328
941.7469847,-1.16999995708466
941.7626097,-0.730000019073486
941.7782347,0.370000004768372
941.7938597,1.91999995708466
941.8094847,3.72000002861023
941.8251097,5.6100001335144
941.8407347,7.46000003814697
941.8563597,9.35000038146973
941.8719847,12.1800003051758
941.8876097,18.1299991607666
941.9032347,29.4400005340576
941.9188597,45.8800010681152
941.9344847,64.0899963378906
941.9501097,79.2600021362305
941.9657347,87.6999969482422
941.9813597,88.2300033569336
941.9969847,82.1800003051758
942.0126097,72.120002746582
942.0282347,60.5999984741211
942.0438597,49.439998626709
942.0594847,39.5800018310547
942.0751097,31.1200008392334
942.0907347,23.5400009155273
942.1063597,16.2000007629395
942.1219847,8.72000026702881
942.1376097,1.20000004768372
942.1532347,-5.78000020980835
942.1688597,-11.3800001144409
942.1844847,-14.8800001144409
942.2001097,-16.1399993896484
942.2157347,-15.6700000762939
942.2313597,-14.3500003814697
942.2469847,-13.0900001525879
942.2626097,-12.5900001525879
942.2782347,-13.1999998092651
942.2938597,-14.8999996185303
942.3094847,-17.3700008392334
942.3251097,-20.1200008392334
942.3407347,-22.75
942.3563597,-25.0200004577637
942.3719847,-26.8999996185303
942.3876097,-28.4699993133545
942.4032347,-29.8400001525879
942.4188597,-30.8999996185303
942.4344847,-31.4200000762939
942.4501097,-31.2199993133545
942.4657347,-30.3999996185303
942.4813597,-29.25
942.4969847,-28.0100002288818
942.5126097,-26.75
942.5282347,-25.3899993896484
942.5438597,-23.6900005340576
942.5594847,-20.7700004577637
942.5751097,-14.7299995422363
942.5907347,-3.27999997138977
942.6063597,14.0900001525879
942.6219847,34.6399993896484
942.6376097,53.3800010681152
942.6532347,65.75
942.6688597,69.629997253418
942.6844847,65.8000030517578
942.7001097,56.9799995422363
942.7157347,46.439998626709
942.7313597,36.6399993896484
942.7469847,28.6399993896484
942.7626097,22.1800003051758
942.7782347,16.3199996948242
942.7938597,10.1400003433228
942.8094847,3.24000000953674
942.8251097,-4.25
942.8407347,-11.8900003433228
942.8563597,-19.0100002288818
942.8719847,-24.9300003051758
942.8876097,-29.1299991607666
942.9032347,-31.4099998474121
942.9188597,-32.0
942.9344847,-31.3999996185303
942.9501097,-30.3099994659424
942.9657347,-29.3600006103516
942.9813597,-29.0200004577637
942.9969847,-29.4200000762939
943.0126097,-30.4300003051758
943.0282347,-31.8899993896484
943.0438597,-33.560001373291
943.0594847,-35.1800003051758
943.0751097,-36.5499992370605
943.0907347,-37.5900001525879
943.1063597,-38.310001373291
943.1219847,-38.6300010681152
943.1376097,-38.4000015258789
943.1532347,-37.5900001525879
943.1688597,-36.2700004577637
943.1844847,-34.560001373291
943.2001097,-32.5699996948242
943.2157347,-30.3500003814697
943.2313597,-27.9500007629395
943.2469847,-25.25
943.2626097,-21.4200000762939
943.2782347,-14.2799997329712
943.2938597,-1.46000003814697
943.3094847,17.2000007629395
943.3251097,38.5900001525879
943.3407347,57.7400016784668
943.3563597,70.3499984741211
943.3719847,74.7099990844727
943.3876097,71.9400024414063
943.4032347,64.7799987792969
943.4188597,56.1100006103516
943.4344847,47.9700012207031
943.4501097,41.189998626709
943.4657347,35.560001373291
943.4813597,30.2900009155273
943.4969847,24.5900001525879
943.5126097,18.0900001525879
943.5282347,10.7700004577637
943.5438597,2.96000003814697
943.5594847,-4.59000015258789
943.5751097,-11.0
943.5907347,-15.5799999237061
943.6063597,-18.1299991607666
943.6219847,-18.9899997711182
943.6376097,-18.8899993896484
943.6532347,-18.6100006103516
943.6688597,-18.6800003051758
943.6844847,-19.4099998474121
943.7001097,-20.7700004577637
