Time(s),Value(%)
1141.0085057,5.34000015258789
1141.0241307,5.38000011444092
1141.0397557,5.01000022888184
1141.0553807,4.48000001907349
1141.0710057,3.90000009536743
1141.0866307,3.3199999332428
1141.1022557,2.74000000953674
1141.1178807,2.11999988555908
1141.1335057,1.37999999523163
1141.1491307,0.560000002384186
1141.1647557,-0.100000001490116
1141.1803807,-0.490000009536743
1141.1960057,-0.790000021457672
1141.2116307,-1.28999996185303
1141.2272557,-2.19000005722046
1141.2428807,-3.49000000953674
1141.2585057,-5.05000019073486
1141.2741307,-6.59999990463257
1141.2897557,-7.82000017166138
1141.3053807,-8.51000022888184
1141.3210057,-8.61999988555908
1141.3366307,-8.30000019073486
1141.3522557,-7.98000001907349
1141.3678807,-8.23999977111816
1141.3835057,-9.46000003814697
1141.3991307,-11.5900001525879
1141.4147557,-14.1899995803833
1141.4303807,-16.4400005340576
1141.4460057,-17.4899997711182
1141.4616307,-16.9799995422363
1141.4772557,-15.1800003051758
1141.4928807,-12.6899995803833
1141.5085057,-9.97999954223633
1141.5241307,-7.34000015258789
1141.5397557,-5.07999992370605
1141.5553807,-3.5
1141.5710057,-2.70000004768372
1141.5866307,-2.25999999046326
1141.6022557,-1.66999995708466
1141.6178807,-0.730000019073486
1141.6335057,0.439999997615814
1141.6491307,1.75999999046326
1141.6647557,3.14000010490417
1141.6803807,4.53000020980835
1141.6960057,5.90000009536743
1141.7116307,7.19000005722046
1141.7272557,8.32999992370605
1141.7428807,9.31999969482422
1141.7585057,10.25
1141.7741307,11.1099996566772
1141.7897557,11.7399997711182
1141.8053807,12.1300001144409
1141.8210057,12.5799999237061
1141.8366307,13.3599996566772
1141.8522557,14.3800001144409
1141.8678807,15.2600002288818
1141.8835057,15.6499996185303
1141.8991307,15.3400001525879
1141.9147557,14.289999961853
1141.9303807,12.6499996185303
1141.9460057,10.7399997711182
1141.9616307,8.84000015258789
1141.9772557,7.15999984741211
1141.9928807,5.82999992370605
1142.0085057,4.78000020980835
1142.0241307,3.84999990463257
1142.0397557,2.84999990463257
1142.0553807,1.71000003814697
1142.0710057,0.379999995231628
1142.0866307,-1.01999998092651
1142.1022557,-2.22000002861023
1142.1178807,-2.8199999332428
1142.1335057,-2.67000007629395
1142.1491307,-1.9099999666214
1142.1647557,-0.810000002384186
1142.1803807,0.400000005960464
1142.1960057,1.49000000953674
1142.2116307,2.32999992370605
1142.2272557,2.85999989509583
1142.2428807,3.04999995231628
1142.2585057,2.76999998092651
1142.2741307,1.87999999523163
1142.2897557,0.360000014305115
1142.3053807,-1.58000004291534
1142.3210057,-3.64000010490417
1142.3366307,-5.36999988555908
1142.3522557,-6.30000019073486
1142.3678807,-6.26999998092651
1142.3835057,-5.63000011444092
1142.3991307,-5.11999988555908
1142.4147557,-5.32000017166138
1142.4303807,-6.26000022888184
1142.4460057,-7.40999984741211
1142.4616307,-8.02999973297119
1142.4772557,-7.67000007629395
1142.4928807,-6.46000003814697
1142.5085057,-5.17000007629395
1142.5241307,-4.71000003814697
1142.5397557,-5.40999984741211
1142.5553807,-6.86999988555908
1142.5710057,-8.3100004196167
1142.5866307,-9.21000003814697
1142.6022557,-9.42000007629395
1142.6178807,-9.22000026702881
1142.6335057,-9.18000030517578
1142.6491307,-9.75
1142.6647557,-10.8500003814697
1142.6803807,-11.8999996185303
1142.6960057,-12.2799997329712
1142.7116307,-11.6999998092651
1142.7272557,-10.2799997329712
1142.7428807,-8.27000045776367
1142.7585057,-5.96000003814697
1142.7741307,-3.67000007629395
1142.7897557,-1.70000004768372
1142.8053807,-0.170000001788139
1142.8210057,0.990000009536743
1142.8366307,1.91999995708466
1142.8522557,2.54999995231628
1142.8678807,2.60999989509583
1142.8835057,1.91999995708466
1142.8991307,0.639999985694885
1142.9147557,-0.769999980926514
1142.9303807,-1.87999999523163
1142.9460057,-2.52999997138977
1142.9616307,-2.69000005722046
1142.9772557,-2.3199999332428
1142.9928807,-1.33000004291534
1143.0085057,0.230000004172325
1143.0241307,2.0699999332428
1143.0397557,3.76999998092651
1143.0553807,5.07999992370605
1143.0710057,5.96999979019165
1143.0866307,6.51999998092651
1143.1022557,6.78999996185303
1143.1178807,6.84000015258789
1143.1335057,6.80000019073486
1143.1491307,6.76999998092651
1143.1647557,6.84000015258789
1143.1803807,7.05000019073486
1143.1960057,7.5
1143.2116307,8.21000003814697
1143.2272557,9.03999996185303
1143.2428807,9.65999984741211
1143.2585057,9.60999965667725
1143.2741307,8.67000007629395
1143.2897557,7.05999994277954
1143.3053807,5.46999979019165
1143.3210057,4.76000022888184
1143.3366307,5.44999980926514
1143.3522557,7.3600001335144
1143.3678807,9.71000003814697
1143.3835057,11.5799999237061
1143.3991307,12.3199996948242
1143.4147557,11.7600002288818
1143.4303807,10.1899995803833
1143.4460057,8.18000030517578
1143.4616307,6.26999998092651
1143.4772557,4.73000001907349
1143.4928807,3.52999997138977
1143.5085057,2.54999995231628
1143.5241307,1.70000004768372
1143.5397557,0.920000016689301
1143.5553807,0.209999993443489
1143.5710057,-0.449999988079071
1143.5866307,-0.990000009536743
1143.6022557,-1.10000002384186
1143.6178807,-0.360000014305115
1143.6335057,1.26999998092651
1143.6491307,3.22000002861023
1143.6647557,4.69000005722046
1143.6803807,5.32999992370605
1143.6960057,5.46000003814697
1143.7116307,5.71000003814697
1143.7272557,6.69000005722046
1143.7428807,8.71000003814697
1143.7585057,11.6300001144409
1143.7741307,14.9300003051758
1143.7897557,17.8400001525879
1143.8053807,19.6299991607666
1143.8210057,19.8099994659424
1143.8366307,18.3500003814697
1143.8522557,15.6499996185303
1143.8678807,12.3699998855591
1143.8835057,9.15999984741211
1143.8991307,6.55000019073486
1143.9147557,4.71000003814697
1143.9303807,3.24000000953674
1143.9460057,1.36000001430511
1143.9616307,-1.42999994754791
1143.9772557,-4.90000009536743
1143.9928807,-8.17000007629395
1144.0085057,-10.460000038147
1144.0241307,-11.5799999237061
1144.0397557,-12.0299997329712
1144.0553807,-12.6099996566772
1144.0710057,-13.8000001907349
1144.0866307,-15.5
1144.1022557,-17.25
1144.1178807,-18.6499996185303
1144.1335057,-19.6200008392334
1144.1491307,-20.3299999237061
1144.1647557,-20.9699993133545
1144.1803807,-21.6100006103516
1144.1960057,-22.3999996185303
1144.2116307,-23.6900005340576
1144.2272557,-25.6700000762939
1144.2428807,-28.0699996948242
1144.2585057,-30.1800003051758
1144.2741307,-31.1800003051758
1144.2897557,-30.6599998474121
1144.3053807,-28.7600002288818
1144.3210057,-26.1100006103516
1144.3366307,-23.5799999237061
1144.3522557,-22.1100006103516
1144.3678807,-22.4400005340576
1144.3835057,-24.5900001525879
1144.3991307,-27.6499996185303
1144.4147557,-30.2199993133545
1144.4303807,-31.0799999237061
1144.4460057,-29.6299991607666
1144.4616307,-26.1200008392334
1144.4772557,-21.6800003051758
1144.4928807,-17.6200008392334
1144.5085057,-14.6000003814697
1144.5241307,-12.3000001907349
1144.5397557,-9.6899995803833
1144.5553807,-5.8600001335144
1144.5710057,-0.610000014305115
1144.5866307,5.3600001335144
1144.6022557,11.0100002288818
1144.6178807,15.5799999237061
1144.6335057,18.9200000762939
1144.6491307,21.1800003051758
1144.6647557,22.5100002288818
1144.6803807,23.1499996185303
1144.6960057,23.4899997711182
1144.7116307,23.8899993896484
1144.7272557,24.3600006103516
1144.7428807,24.6000003814697
1144.7585057,24.3700008392334
1144.7741307,23.6200008392334
1144.7897557,22.5100002288818
1144.8053807,21.2800006866455
1144.8210057,20.1200008392334
1144.8366307,18.9899997711182
1144.8522557,17.9200000762939
1144.8678807,17.2099990844727
1144.8835057,17.1000003814697
1144.8991307,17.3700008392334
1144.9147557,17.5599994659424
1144.9303807,17.4099998474121
1144.9460057,17.0200004577637
1144.9616307,16.5599994659424
1144.9772557,16.0100002288818
1144.9928807,15.3199996948242
1145.0085057,14.5299997329712
1145.0241307,13.8699998855591
1145.0397557,13.539999961853
1145.0553807,13.4200000762939
1145.0710057,13.1199998855591
1145.0866307,12.2299995422363
1145.1022557,10.5200004577637
1145.1178807,8.10999965667725
1145.1335057,5.65999984741211
1145.1491307,4.09999990463257
1145.1647557,3.98000001907349
1145.1803807,4.98999977111816
1145.1960057,6.26999998092651
1145.2116307,7.05999994277954
1145.2272557,7.21000003814697
1145.2428807,6.96000003814697
1145.2585057,6.53000020980835
1145.2741307,5.80999994277954
1145.2897557,4.67999982833862
1145.3053807,3.25
1145.3210057,1.80999994277954
1145.3366307,0.529999971389771
1145.3522557,-0.5
1145.3678807,-1.16999995708466
1145.3835057,-1.33000004291534
1145.3991307,-1.05999994277954
1145.4147557,-0.600000023841858
1145.4303807,-0.319999992847443
1145.4460057,-0.529999971389771
1145.4616307,-1.30999994277954
1145.4772557,-2.44000005722046
1145.4928807,-3.45000004768372
1145.5085057,-4.0
1145.5241307,-4.09999990463257
1145.5397557,-4.01999998092651
1145.5553807,-4.07999992370605
1145.5710057,-4.6399998664856
1145.5866307,-5.98999977111816
1145.6022557,-8.30000019073486
1145.6178807,-11.4799995422363
1145.6335057,-15.1599998474121
1145.6491307,-18.6900005340576
1145.6647557,-21.4200000762939
1145.6803807,-22.9200000762939
1145.6960057,-23.1200008392334
1145.7116307,-22.1599998474121
1145.7272557,-20.2399997711182
1145.7428807,-17.5599994659424
1145.7585057,-14.210000038147
1145.7741307,-10.4499998092651
1145.7897557,-6.71000003814697
1145.8053807,-3.46000003814697
1145.8210057,-1.02999997138977
1145.8366307,0.300000011920929
1145.8522557,0.46000000834465
1145.8678807,-0.280000001192093
1145.8835057,-1.32000005245209
1145.8991307,-2.01999998092651
1145.9147557,-2.05999994277954
1145.9303807,-1.48000001907349
1145.9460057,-0.569999992847443
1145.9616307,0.239999994635582
1145.9772557,0.649999976158142
1145.9928807,0.660000026226044
1146.0085057,0.610000014305115
1146.0241307,0.75
1146.0397557,1.10000002384186
1146.0553807,1.45000004768372
1146.0710057,1.6599999666214
1146.0866307,1.86000001430511
1146.1022557,2.30999994277954
1146.1178807,3.05999994277954
1146.1335057,3.90000009536743
1146.1491307,4.61999988555908
1146.1647557,5.25
1146.1803807,6.05999994277954
1146.1960057,7.30000019073486
1146.2116307,8.75
1146.2272557,9.86999988555908
1146.2428807,10.0500001907349
1146.2585057,8.94999980926514
1146.2741307,6.63000011444092
1146.2897557,3.55999994277954
1146.3053807,0.449999988079071
1146.3210057,-1.89999997615814
1146.3366307,-2.86999988555908
1146.3522557,-2.08999991416931
1146.3678807,0.209999993443489
1146.3835057,3.22000002861023
1146.3991307,5.80999994277954
1146.4147557,7.11999988555908
1146.4303807,6.88000011444092
1146.4460057,5.55000019073486
1146.4616307,4.01000022888184
1146.4772557,2.94000005722046
1146.4928807,2.39000010490417
1146.5085057,1.91999995708466
1146.5241307,1.00999999046326
1146.5397557,-0.550000011920929
1146.5553807,-2.66000008583069
1146.5710057,-4.98999977111816
1146.5866307,-7.25
1146.6022557,-9.10000038146973
1146.6178807,-10.1899995803833
1146.6335057,-10.3100004196167
1146.6491307,-9.52999973297119
1146.6647557,-8.0600004196167
1146.6803807,-6.19999980926514
1146.6960057,-4.25
1146.7116307,-2.48000001907349
1146.7272557,-1.05999994277954
1146.7428807,-0.170000001788139
1146.7585057,0.150000005960464
1146.7741307,0.259999990463257
1146.7897557,0.600000023841858
1146.8053807,1.22000002861023
1146.8210057,1.55999994277954
1146.8366307,1.00999999046326
1146.8522557,-0.5
1146.8678807,-2.40000009536743
1146.8835057,-3.79999995231628
1146.8991307,-4.07000017166138
1146.9147557,-3.35999989509583
1146.9303807,-2.38000011444092
1146.9460057,-1.76999998092651
1146.9616307,-1.67999994754791
1146.9772557,-1.77999997138977
1146.9928807,-1.51999998092651
1147.0085057,-0.419999986886978
1147.0241307,1.74000000953674
1147.0397557,4.82000017166138
1147.0553807,8.23999977111816
1147.0710057,11.2600002288818
1147.0866307,13.1700000762939
1147.1022557,13.6400003433228
1147.1178807,12.7299995422363
1147.1335057,10.9399995803833
1147.1491307,8.90999984741211
1147.1647557,6.94000005722046
1147.1803807,4.98000001907349
1147.1960057,3.00999999046326
1147.2116307,1.45000004768372
1147.2272557,0.930000007152557
1147.2428807,1.62000000476837
1147.2585057,2.98000001907349
1147.2741307,3.96000003814697
1147.2897557,3.78999996185303
1147.3053807,2.51999998092651
1147.3210057,0.949999988079071
1147.3366307,-0.0199999995529652
1147.3522557,-0.129999995231628
1147.3678807,0.330000013113022
1147.3835057,1.02999997138977
1147.3991307,1.8400000333786
1147.4147557,2.63000011444092
1147.4303807,3.1800000667572
1147.4460057,3.30999994277954
1147.4616307,2.96000003814697
1147.4772557,2.08999991416931
1147.4928807,0.579999983310699
1147.5085057,-1.54999995231628
1147.5241307,-3.96000003814697
1147.5397557,-6.07999992370605
1147.5553807,-7.42999982833862
1147.5710057,-7.76000022888184
1147.5866307,-7.09000015258789
1147.6022557,-5.63000011444092
1147.6178807,-3.75
1147.6335057,-1.87999999523163
1147.6491307,-0.379999995231628
1147.6647557,0.569999992847443
1147.6803807,0.959999978542328
1147.6960057,0.850000023841858
1147.7116307,0.419999986886978
1147.7272557,0.0599999986588955
1147.7428807,0.0799999982118607
1147.7585057,0.479999989271164
1147.7741307,0.990000009536743
1147.7897557,1.25999999046326
1147.8053807,1.16999995708466
1147.8210057,0.740000009536743
1147.8366307,0.0500000007450581
1147.8522557,-0.920000016689301
1147.8678807,-2.29999995231628
1147.8835057,-3.97000002861023
1147.8991307,-5.65000009536743
1147.9147557,-6.92000007629395
1147.9303807,-7.38000011444092
1147.9460057,-6.82999992370605
1147.9616307,-5.51999998092651
1147.9772557,-4.15999984741211
1147.9928807,-3.63000011444092
1148.0085057,-4.44999980926514
1148.0241307,-6.46999979019165
1148.0397557,-8.90999984741211
1148.0553807,-10.8599996566772
1148.0710057,-11.6400003433228
1148.0866307,-11.1499996185303
1148.1022557,-9.98999977111816
1148.1178807,-9.09000015258789
1148.1335057,-9.1899995803833
1148.1491307,-10.3400001525879
1148.1647557,-11.8000001907349
1148.1803807,-12.460000038147
1148.1960057,-11.539999961853
1148.2116307,-8.97000026702881
1148.2272557,-5.32999992370605
1148.2428807,-1.5
1148.2585057,1.71000003814697
1148.2741307,3.96000003814697
1148.2897557,5.40999984741211
1148.3053807,6.44000005722046
1148.3210057,7.42999982833862
1148.3366307,8.55000019073486
1148.3522557,9.77999973297119
1148.3678807,10.9099998474121
1148.3835057,11.5900001525879
1148.3991307,11.6099996566772
1148.4147557,11.0500001907349
1148.4303807,10.289999961853
1148.4460057,9.72000026702881
1148.4616307,9.5
1148.4772557,9.48999977111816
1148.4928807,9.48999977111816
1148.5085057,9.46000003814697
1148.5241307,9.42000007629395
1148.5397557,9.1899995803833
1148.5553807,8.23999977111816
1148.5710057,6.1100001335144
1148.5866307,2.90000009536743
1148.6022557,-0.519999980926514
1148.6178807,-3.03999996185303
1148.6335057,-3.98000001907349
1148.6491307,-3.50999999046326
1148.6647557,-2.25999999046326
1148.6803807,-0.879999995231628
1148.6960057,0.259999990463257
1148.7116307,1.03999996185303
1148.7272557,1.35000002384186
1148.7428807,1.20000004768372
1148.7585057,0.810000002384186
1148.7741307,0.529999971389771
1148.7897557,0.639999985694885
1148.8053807,1.13999998569489
1148.8210057,1.71000003814697
1148.8366307,1.8400000333786
1148.8522557,1.12999999523163
1148.8678807,-0.409999996423721
1148.8835057,-2.35999989509583
1148.8991307,-4.05999994277954
1148.9147557,-5.11999988555908
1148.9303807,-5.46000003814697
1148.9460057,-5.32999992370605
1148.9616307,-5.19000005722046
1148.9772557,-5.34999990463257
1148.9928807,-5.92000007629395
1149.0085057,-6.76000022888184
1149.0241307,-7.63000011444092
1149.0397557,-8.18000030517578
1149.0553807,-8.19999980926514
1149.0710057,-7.69999980926514
1149.0866307,-6.96999979019165
1149.1022557,-6.38000011444092
1149.1178807,-6.19999980926514
1149.1335057,-6.65000009536743
1149.1491307,-7.90000009536743
1149.1647557,-9.75
1149.1803807,-11.4799995422363
1149.1960057,-12.289999961853
1149.2116307,-11.8100004196167
1149.2272557,-10.3299999237061
1149.2428807,-8.53999996185303
1149.2585057,-7.21000003814697
1149.2741307,-6.75
1149.2897557,-7.07999992370605
1149.3053807,-7.80000019073486
1149.3210057,-8.55000019073486
1149.3366307,-9.13000011444092
1149.3522557,-9.35999965667725
1149.3678807,-8.96000003814697
1149.3835057,-7.69999980926514
1149.3991307,-5.71999979019165
1149.4147557,-3.41000008583069
1149.4303807,-1.02999997138977
1149.4460057,1.37999999523163
1149.4616307,3.77999997138977
1149.4772557,5.96999979019165
1149.4928807,7.59999990463257
1149.5085057,8.35000038146973
1149.5241307,8.10000038146973
1149.5397557,7.09999990463257
1149.5553807,5.84000015258789
1149.5710057,4.82000017166138
1149.5866307,4.3899998664856
1149.6022557,4.67999982833862
1149.6178807,5.63000011444092
1149.6335057,6.94000005722046
1149.6491307,8.31999969482422
1149.6647557,9.47999954223633
1149.6803807,10.2299995422363
1149.6960057,10.5100002288818
1149.7116307,10.5
1149.7272557,10.5
1149.7428807,10.6400003433228
1149.7585057,10.8500003814697
1149.7741307,10.9300003051758
1149.7897557,10.6899995803833
1149.8053807,10.039999961853
1149.8210057,9.09000015258789
1149.8366307,8.01000022888184
1149.8522557,6.86999988555908
1149.8678807,5.6399998664856
1149.8835057,4.3600001335144
1149.8991307,3.1800000667572
1149.9147557,2.30999994277954
1149.9303807,1.89999997615814
1149.9460057,1.88999998569489
1149.9616307,2.02999997138977
1149.9772557,2.15000009536743
1149.9928807,2.36999988555908
1150.0085057,3.00999999046326
1150.0241307,4.17000007629395
1150.0397557,5.59999990463257
1150.0553807,6.75
1150.0710057,7.15999984741211
1150.0866307,6.80000019073486
1150.1022557,5.94000005722046
1150.1178807,4.90999984741211
1150.1335057,3.80999994277954
1150.1491307,2.45000004768372
1150.1647557,0.730000019073486
1150.1803807,-1.00999999046326
1150.1960057,-2.08999991416931
1150.2116307,-1.99000000953674
1150.2272557,-0.720000028610229
1150.2428807,1.12999999523163
1150.2585057,2.88000011444092
1150.2741307,4.13000011444092
1150.2897557,4.78999996185303
1150.3053807,5.0
1150.3210057,4.94999980926514
1150.3366307,4.80999994277954
1150.3522557,4.57999992370605
1150.3678807,4.11999988555908
1150.3835057,3.32999992370605
1150.3991307,2.23000001907349
1150.4147557,0.939999997615814
1150.4303807,-0.379999995231628
1150.4460057,-1.53999996185303
1150.4616307,-2.38000011444092
1150.4772557,-2.86999988555908
1150.4928807,-3.02999997138977
1150.5085057,-2.97000002861023
1150.5241307,-2.77999997138977
1150.5397557,-2.45000004768372
1150.5553807,-1.78999996185303
1150.5710057,-0.589999973773956
1150.5866307,1.07000005245209
1150.6022557,2.83999991416931
1150.6178807,4.21999979019165
1150.6335057,4.8600001335144
1150.6491307,4.67000007629395
1150.6647557,3.82999992370605
1150.6803807,2.70000004768372
1150.6960057,1.55999994277954
1150.7116307,0.579999983310699
1150.7272557,-0.140000000596046
1150.7428807,-0.689999997615814
1150.7585057,-1.17999994754791
1150.7741307,-1.69000005722046
1150.7897557,-2.26999998092651
1150.8053807,-2.95000004768372
1150.8210057,-3.63000011444092
1150.8366307,-4.15999984741211
1150.8522557,-4.40999984741211
1150.8678807,-4.53999996185303
1150.8835057,-4.67999982833862
1150.8991307,-4.80000019073486
1150.9147557,-4.88000011444092
1150.9303807,-5.01000022888184
1150.9460057,-5.26999998092651
1150.9616307,-5.6399998664856
1150.9772557,-6.1100001335144
1150.9928807,-6.76000022888184
1151.0085057,-7.67000007629395
1151.0241307,-8.72999954223633
1151.0397557,-9.67000007629395
1151.0553807,-10.1700000762939
1151.0710057,-10.1700000762939
1151.0866307,-9.85999965667725
1151.1022557,-9.48999977111816
1151.1178807,-9.1899995803833
1151.1335057,-9.0
1151.1491307,-8.77000045776367
1151.1647557,-8.14999961853027
1151.1803807,-6.71999979019165
1151.1960057,-4.38000011444092
1151.2116307,-1.51999998092651
1151.2272557,1.23000001907349
1151.2428807,3.40000009536743
1151.2585057,4.78999996185303
1151.2741307,5.57000017166138
1151.2897557,6.01999998092651
1151.3053807,6.30999994277954
1151.3210057,6.28000020980835
1151.3366307,5.75
1151.3522557,4.76999998092651
1151.3678807,3.60999989509583
1151.3835057,2.60999989509583
