Time(s),Value(%)
0.0071752,-2.92000007629395
0.0228002,-3.6800000667572
0.0384252,-4.84000015258789
0.0540502,-6.23000001907349
0.0696752,-7.63000011444092
0.0853002,-8.86999988555908
0.1009252,-9.76000022888184
0.1165502,-9.8100004196167
0.1321752,-8.07999992370605
0.1478002,-3.69000005722046
0.1634252,3.40000009536743
0.1790502,12.460000038147
0.1946752,22.3799991607666
0.2103002,32.2400016784668
0.2259252,41.4500007629395
0.2415502,49.5699996948242
0.2571752,56.0900001525879
0.2728002,60.5699996948242
0.2884252,62.9199981689453
0.3040502,63.4300003051758
0.3196752,62.5699996948242
0.3353002,60.8300018310547
0.3509252,58.6500015258789
0.3665502,56.3600006103516
0.3821752,54.1199989318848
0.3978002,51.8800010681152
0.4134252,49.3800010681152
0.4290502,46.3600006103516
0.4446752,42.7200012207031
0.4603002,38.4599990844727
0.4759252,33.5699996948242
0.4915502,28.0100002288818
0.5071752,21.9400005340576
0.5228002,15.8400001525879
0.5384252,10.3999996185303
0.5540502,6.07999992370605
0.5696752,2.75
0.5853002,-0.0099999997764825
0.6009252,-2.5
0.6165502,-4.61999988555908
0.6321752,-6.21999979019165
0.6478002,-7.23000001907349
0.6634252,-7.80999994277954
0.6790502,-8.23999977111816
0.6946752,-8.85999965667725
0.7103002,-9.89000034332275
0.7259252,-11.3599996566772
0.7415502,-13.1199998855591
0.7571752,-15.039999961853
0.7728002,-16.9899997711182
0.7884252,-18.8700008392334
0.8040502,-20.3799991607666
0.8196752,-20.9899997711182
0.8353002,-20.0699996948242
0.8509252,-17.1800003051758
0.8665502,-12.3199996948242
0.8821752,-5.96999979019165
0.8978002,1.0900000333786
0.9134252,8.11999988555908
0.9290502,14.6099996566772
0.9446752,20.3500003814697
0.9603002,25.2399997711182
0.9759252,29.1299991607666
0.9915502,31.8999996185303
1.0071752,33.5800018310547
1.0228002,34.3199996948242
1.0384252,34.2900009155273
1.0540502,33.5900001525879
1.0696752,32.3699989318848
1.0853002,30.7900009155273
1.1009252,28.9599990844727
1.1165502,26.8799991607666
1.1321752,24.4300003051758
1.1478002,21.5699996948242
1.1634252,18.5699996948242
1.1790502,15.8199996948242
1.1946752,13.6300001144409
1.2103002,12.039999961853
1.2259252,10.8599996566772
1.2415502,9.75
1.2571752,8.39000034332275
1.2728002,6.57000017166138
1.2884252,4.28000020980835
1.3040502,1.57000005245209
1.3196752,-1.50999999046326
1.3353002,-5.01000022888184
1.3509252,-8.82999992370605
1.3665502,-12.6099996566772
1.3821752,-15.789999961853
1.3978002,-17.9699993133545
1.4134252,-19.2199993133545
1.4290502,-19.9400005340576
1.4446752,-20.4200000762939
1.4603002,-20.7099990844727
1.4759252,-20.75
1.4915502,-20.4799995422363
1.5071752,-19.9899997711182
1.5228002,-19.4099998474121
1.5384252,-18.8899993896484
1.5540502,-18.5300006866455
1.5696752,-18.3199996948242
1.5853002,-18.0200004577637
1.6009252,-17.2199993133545
1.6165502,-15.5500001907349
1.6321752,-12.9300003051758
1.6478002,-9.51000022888184
1.6634252,-5.44999980926514
1.6790502,-0.779999971389771
1.6946752,4.53999996185303
1.7103002,10.3699998855591
1.7259252,16.1299991607666
1.7415502,21.1599998474121
1.7571752,25.0200004577637
1.7728002,27.7399997711182
1.7884252,29.6499996185303
1.8040502,31.0200004577637
1.8196752,31.8299999237061
1.8353002,31.9300003051758
1.8509252,31.2000007629395
1.8665502,29.7399997711182
1.8821752,27.7199993133545
1.8978002,25.3099994659424
1.9134252,22.7099990844727
1.9290502,20.0900001525879
1.9446752,17.6000003814697
1.9603002,15.2799997329712
1.9759252,13.0
1.9915502,10.5900001525879
2.0071752,8.0600004196167
2.0228002,5.51000022888184
2.0384252,2.97000002861023
2.0540502,0.370000004768372
2.0696752,-2.32999992370605
2.0853002,-5.05000019073486
2.1009252,-7.53999996185303
2.1165502,-9.60999965667725
2.1321752,-11.3000001907349
2.1478002,-12.789999961853
2.1634252,-14.1499996185303
2.1790502,-15.3400001525879
2.1946752,-16.25
2.2103002,-16.8700008392334
2.2259252,-17.2399997711182
2.2415502,-17.3299999237061
2.2571752,-16.9500007629395
2.2728002,-15.8800001144409
2.2884252,-14.0600004196167
2.3040502,-11.5500001907349
2.3196752,-8.35000038146973
2.3353002,-4.46999979019165
2.3509252,-0.0599999986588955
2.3665502,4.53000020980835
2.3821752,8.85000038146973
2.3978002,12.5100002288818
2.4134252,15.3699998855591
2.4290502,17.4300003051758
2.4446752,18.6100006103516
2.4603002,18.8299999237061
2.4759252,18.1399993896484
2.4915502,16.8099994659424
2.5071752,15.1800003051758
2.5228002,13.4300003051758
2.5384252,11.4899997711182
2.5540502,9.17000007629395
2.5696752,6.34999990463257
2.5853002,3.05999994277954
2.6009252,-0.649999976158142
2.6165502,-4.71000003814697
2.6321752,-8.97999954223633
2.6478002,-13.1599998474121
2.6634252,-16.8999996185303
2.6790502,-20.0100002288818
2.6946752,-22.6100006103516
2.7103002,-25.0
2.7259252,-27.3299999237061
2.7415502,-29.5
2.7571752,-31.3500003814697
2.7728002,-32.810001373291
2.7884252,-33.9300003051758
2.8040502,-34.8800010681152
2.8196752,-35.8400001525879
2.8353002,-36.9599990844727
2.8509252,-38.2299995422363
2.8665502,-39.4300003051758
2.8821752,-40.1500015258789
2.8978002,-40.060001373291
2.9134252,-39.0499992370605
2.9290502,-37.2000007629395
2.9446752,-34.5900001525879
2.9603002,-31.0900001525879
2.9759252,-26.5499992370605
2.9915502,-21.0400009155273
3.0071752,-15.1000003814697
3.0228002,-9.47999954223633
3.0384252,-4.73999977111816
3.0540502,-1.01999998092651
3.0696752,1.86000001430511
3.0853002,4.07999992370605
3.1009252,5.53000020980835
3.1165502,6.0
3.1321752,5.40999984741211
3.1478002,3.91000008583069
3.1634252,1.75
3.1790502,-0.850000023841858
3.1946752,-3.6800000667572
3.2103002,-6.51999998092651
3.2259252,-9.19999980926514
3.2415502,-11.6899995803833
3.2571752,-14.210000038147
3.2728002,-16.9699993133545
3.2884252,-19.9099998474121
3.3040502,-22.7399997711182
3.3196752,-25.1499996185303
3.3353002,-27.0200004577637
3.3509252,-28.4300003051758
3.3665502,-29.5900001525879
3.3821752,-30.6800003051758
3.3978002,-31.8500003814697
3.4134252,-33.0999984741211
3.4290502,-34.3400001525879
3.4446752,-35.4300003051758
3.4603002,-36.2799987792969
3.4759252,-36.8300018310547
3.4915502,-36.9599990844727
3.5071752,-36.4099998474121
3.5228002,-34.6800003051758
3.5384252,-31.1900005340576
3.5540502,-25.6499996185303
3.5696752,-18.4200000762939
3.5853002,-10.3599996566772
3.6009252,-2.38000011444092
3.6165502,4.8600001335144
3.6321752,11.2200002670288
3.6478002,16.9899997711182
3.6634252,22.75
3.6790502,29.0300006866455
3.6946752,35.9900016784668
3.7103002,43.4599990844727
3.7259252,51.1800003051758
3.7415502,58.9500007629395
3.7571752,66.4800033569336
3.7728002,73.120002746582
3.7884252,77.8000030517578
3.8040502,79.6900024414063
3.8196752,78.9499969482422
3.8353002,76.5299987792969
3.8509252,73.4899978637695
3.8665502,70.4499969482422
3.8821752,67.5699996948242
3.8978002,64.7799987792969
3.9134252,61.9700012207031
3.9290502,59.2200012207031
3.9446752,56.8400001525879
3.9603002,55.1599998474121
3.9759252,54.2599983215332
3.9915502,54.0099983215332
4.0071752,54.1300010681152
4.0228002,54.4000015258789
4.0384252,54.5800018310547
4.0540502,54.2999992370605
4.0696752,52.9099998474121
4.0853002,49.7599983215332
4.1009252,44.5800018310547
4.1165502,37.5999984741211
4.1321752,29.4500007629395
4.1478002,20.8600006103516
4.1634252,12.4499998092651
4.1790502,4.57999992370605
4.1946752,-2.54999995231628
4.2103002,-8.5
4.2259252,-12.3599996566772
4.2415502,-13.2799997329712
4.2571752,-11.1800003051758
4.2728002,-6.80999994277954
4.2884252,-1.1599999666214
4.3040502,4.90000009536743
4.3196752,10.7600002288818
4.3353002,15.7299995422363
4.3509252,18.9300003051758
4.3665502,19.7000007629395
4.3821752,18.1299991607666
4.3978002,14.9099998474121
4.4134252,10.8500003814697
4.4290502,6.48999977111816
4.4446752,2.1800000667572
4.4603002,-1.83000004291534
4.4759252,-5.51000022888184
4.4915502,-8.93000030517578
4.5071752,-12.3199996948242
4.5228002,-15.8900003433228
4.5384252,-19.7099990844727
4.5540502,-23.75
4.5696752,-27.8999996185303
4.5853002,-32.1100006103516
4.6009252,-36.2999992370605
4.6165502,-40.3699989318848
4.6321752,-44.2599983215332
4.6478002,-48.0499992370605
4.6634252,-51.9199981689453
4.6790502,-56.1199989318848
4.6946752,-60.6800003051758
4.7103002,-65.4199981689453
4.7259252,-70.0299987792969
4.7415502,-74.25
4.7571752,-77.9100036621094
4.7728002,-80.9199981689453
4.7884252,-83.0800018310547
4.8040502,-83.8600006103516
4.8196752,-82.5199966430664
4.8353002,-78.5400009155273
4.8509252,-72.1500015258789
4.8665502,-64.3000030517578
4.8821752,-56.1500015258789
4.8978002,-48.5800018310547
4.9134252,-42.0200004577637
4.9290502,-36.6199989318848
4.9446752,-32.5499992370605
4.9603002,-29.9699993133545
4.9759252,-28.7800006866455
4.9915502,-28.7099990844727
5.0071752,-29.4599990844727
5.0228002,-30.8299999237061
5.0384252,-32.6599998474121
5.0540502,-34.9000015258789
5.0696752,-37.6800003051758
5.0853002,-41.2999992370605
5.1009252,-46.0
5.1165502,-51.6300010681152
5.1321752,-57.5800018310547
5.1478002,-63.0299987792969
5.1634252,-67.4199981689453
5.1790502,-70.6600036621094
5.1946752,-73.0299987792969
5.2103002,-74.9800033569336
5.2259252,-76.9199981689453
5.2415502,-79.0800018310547
5.2571752,-81.4700012207031
5.2728002,-84.0999984741211
5.2884252,-87.0699996948242
5.3040502,-90.5500030517578
5.3196752,-94.4899978637695
5.3353002,-98.4100036621094
5.3509252,-101.519996643066
5.3665502,-103.01000213623
5.3821752,-102.459999084473
5.3978002,-99.8499984741211
5.4134252,-95.4300003051758
5.4290502,-89.620002746582
5.4446752,-82.9499969482422
5.4603002,-76.0
5.4759252,-69.120002746582
5.4915502,-62.2700004577637
5.5071752,-54.9300003051758
5.5228002,-46.4900016784668
5.5384252,-36.7999992370605
5.5540502,-26.2900009155273
5.5696752,-15.7299995422363
5.5853002,-5.80000019073486
5.6009252,3.0699999332428
5.6165502,10.5299997329712
5.6321752,16.0200004577637
5.6478002,19.0
5.6634252,19.3500003814697
5.6790502,17.6200008392334
5.6946752,14.7799997329712
5.7103002,11.8400001525879
5.7259252,9.47000026702881
5.7415502,7.84999990463257
5.7571752,6.80999994277954
5.7728002,6.01999998092651
5.7884252,5.17000007629395
5.8040502,4.07999992370605
5.8196752,2.75
5.8353002,1.23000001907349
5.8509252,-0.490000009536743
5.8665502,-2.48000001907349
5.8821752,-4.67999982833862
5.8978002,-6.82000017166138
5.9134252,-8.40999984741211
5.9290502,-8.96000003814697
5.9446752,-8.25
5.9603002,-6.32999992370605
5.9759252,-3.44000005722046
5.9915502,0.129999995231628
6.0071752,4.07000017166138
6.0228002,8.06999969482422
6.0384252,12.2200002670288
6.0540502,17.7800006866455
6.0696752,27.4799995422363
6.0853002,43.8400001525879
6.1009252,67.4499969482422
6.1165502,97.4599990844727
6.1321752,133.160003662109
6.1478002,174.139999389648
6.1634252,218.850006103516
6.1790502,263.380004882813
6.1946752,302.320007324219
6.2103002,327.670013427734
6.2259252,327.670013427734
6.2415502,327.670013427734
6.2571752,327.670013427734
6.2728002,327.670013427734
6.2884252,327.670013427734
6.3040502,327.670013427734
6.3196752,327.670013427734
6.3353002,327.670013427734
6.3509252,327.670013427734
6.3665502,327.670013427734
6.3821752,327.670013427734
6.3978002,327.670013427734
6.4134252,327.670013427734
6.4290502,327.670013427734
6.4446752,327.670013427734
6.4603002,327.670013427734
6.4759252,327.670013427734
6.4915502,327.670013427734
6.5071752,327.670013427734
6.5228002,327.670013427734
6.5384252,312.640014648438
6.5540502,292.119995117188
6.5696752,271.200012207031
6.5853002,249.699996948242
6.6009252,228.070007324219
6.6165502,208.130004882813
6.6321752,193.160003662109
6.6478002,186.050003051758
6.6634252,187.520004272461
6.6790502,196.970001220703
6.6946752,214.289993286133
6.7103002,239.660003662109
6.7259252,271.369995117188
6.7415502,304.190002441406
6.7571752,327.670013427734
6.7728002,327.670013427734
6.7884252,327.670013427734
6.8040502,327.670013427734
6.8196752,326.570007324219
6.8353002,309.470001220703
6.8509252,287.239990234375
6.8665502,260.549987792969
6.8821752,231.320007324219
6.8978002,201.630004882813
6.9134252,172.669998168945
6.9290502,144.600006103516
6.9446752,117.190002441406
6.9603002,90.4700012207031
6.9759252,64.9000015258789
6.9915502,41.0699996948242
7.0071752,19.0900001525879
7.0228002,-2.14000010490417
7.0384252,-24.9099998474121
7.0540502,-51.4000015258789
7.0696752,-82.1900024414063
7.0853002,-116.129997253418
7.1009252,-151.190002441406
7.1165502,-185.550003051758
7.1321752,-218.089996337891
7.1478002,-248.410003662109
7.1634252,-276.559997558594
7.1790502,-302.739990234375
7.1946752,-326.890014648438
7.2103002,-327.679992675781
7.2259252,-327.679992675781
7.2415502,-327.679992675781
7.2571752,-327.679992675781
7.2728002,-327.679992675781
7.2884252,-327.679992675781
7.3040502,-327.679992675781
7.3196752,-327.679992675781
7.3353002,-327.679992675781
7.3509252,-327.679992675781
7.3665502,-327.679992675781
7.3821752,-327.679992675781
7.3978002,-327.679992675781
7.4134252,-327.679992675781
7.4290502,-322.059997558594
7.4446752,-304.079986572266
7.4603002,-287.829986572266
7.4759252,-276.619995117188
7.4915502,-273.179992675781
7.5071752,-277.709991455078
7.5228002,-287.970001220703
7.5384252,-301.019989013672
7.5540502,-314.609985351563
7.5696752,-327.5
7.5853002,-327.679992675781
7.6009252,-327.679992675781
7.6165502,-327.679992675781
7.6321752,-327.679992675781
7.6478002,-327.679992675781
7.6634252,-327.679992675781
7.6790502,-327.679992675781
7.6946752,-327.679992675781
7.7103002,-327.679992675781
7.7259252,-327.679992675781
7.7415502,-327.679992675781
7.7571752,-327.679992675781
7.7728002,-327.679992675781
7.7884252,-327.679992675781
7.8040502,-327.679992675781
7.8196752,-327.679992675781
7.8353002,-327.679992675781
7.8509252,-327.679992675781
7.8665502,-327.679992675781
7.8821752,-327.679992675781
7.8978002,-327.679992675781
7.9134252,-327.679992675781
7.9290502,-327.679992675781
7.9446752,-327.679992675781
7.9603002,-327.679992675781
7.9759252,-311.820007324219
7.9915502,-290.940002441406
8.0071752,-270.589996337891
8.0228002,-251.529998779297
8.0384252,-234.710006713867
8.0540502,-221.110000610352
8.0696752,-211.210006713867
8.0853002,-204.820007324219
8.1009252,-201.210006713867
8.1165502,-199.320007324219
8.1321752,-198.070007324219
8.1478002,-196.610000610352
8.1634252,-194.520004272461
8.1790502,-192.110000610352
8.1946752,-190.309997558594
8.2103002,-190.020004272461
8.2259252,-191.570007324219
8.2415502,-194.830001831055
8.2571752,-199.770004272461
8.2728002,-206.369995117188
8.2884252,-214.119995117188
8.3040502,-221.520004272461
8.3196752,-226.440002441406
8.3353002,-227.490005493164
8.3509252,-225.199996948242
8.3665502,-221.149993896484
8.3821752,-216.369995117188
8.3978002,-210.740005493164
8.4134252,-203.720001220703
8.4290502,-195.080001831055
8.4446752,-185.169998168945
8.4603002,-174.809997558594
8.4759252,-165.039993286133
8.4915502,-156.589996337891
8.5071752,-149.570007324219
8.5228002,-143.570007324219
8.5384252,-138.020004272461
8.5540502,-132.490005493164
8.5696752,-126.580001831055
8.5853002,-119.440002441406
8.6009252,-109.559997558594
8.6165502,-95.5199966430664
8.6321752,-77.0199966430664
8.6478002,-55.0800018310547
8.6634252,-31.4400005340576
8.6790502,-7.71999979019165
8.6946752,15.0
8.7103002,36.3499984741211
8.7259252,56.3300018310547
8.7415502,74.8199996948242
8.7571752,91.2900009155273
8.7728002,105.110000610352
8.7884252,116.139999389648
8.8040502,124.709999084473
8.8196752,131.190002441406
8.8353002,135.899993896484
8.8509252,139.309997558594
8.8665502,142.300003051758
8.8821752,145.990005493164
8.8978002,151.039993286133
8.9134252,157.100006103516
8.9290502,163.320007324219
8.9446752,169.309997558594
8.9603002,175.360000610352
8.9759252,181.919998168945
8.9915502,189.179992675781
9.0071752,196.869995117188
9.0228002,204.399993896484
9.0384252,211.039993286133
9.0540502,216.270004272461
9.0696752,220.0
9.0853002,222.429992675781
9.1009252,223.679992675781
9.1165502,223.830001831055
9.1321752,223.160003662109
9.1478002,222.520004272461
9.1634252,223.309997558594
9.1790502,226.880004882813
9.1946752,233.649993896484
9.2103002,243.149993896484
9.2259252,254.429992675781
9.2415502,266.549987792969
9.2571752,278.720001220703
9.2728002,290.359985351563
9.2884252,301.25
9.3040502,311.779998779297
9.3196752,322.989990234375
9.3353002,327.670013427734
9.3509252,327.670013427734
9.3665502,327.670013427734
9.3821752,327.670013427734
9.3978002,327.670013427734
9.4134252,327.670013427734
9.4290502,327.670013427734
9.4446752,327.670013427734
9.4603002,327.670013427734
9.4759252,327.670013427734
9.4915502,327.670013427734
9.5071752,327.670013427734
9.5228002,327.670013427734
9.5384252,327.670013427734
9.5540502,327.670013427734
9.5696752,327.670013427734
9.5853002,327.670013427734
9.6009252,327.670013427734
9.6165502,327.670013427734
9.6321752,327.670013427734
9.6478002,327.670013427734
9.6634252,327.670013427734
9.6790502,327.670013427734
9.6946752,327.670013427734
9.7103002,318.980010986328
9.7259252,305.230010986328
9.7415502,292.339996337891
9.7571752,280.019989013672
9.7728002,267.809997558594
9.7884252,255.580001831055
9.8040502,246.809997558594
9.8196752,238.380004882813
9.8353002,230.5
9.8509252,223.080001831055
9.8665502,216.0
9.8821752,209.380004882813
9.8978002,203.429992675781
9.9134252,198.289993286133
9.9290502,194.029998779297
9.9446752,190.869995117188
9.9603002,188.990005493164
9.9759252,188.289993286133
9.9915502,188.330001831055
10.0071752,188.610000610352
10.0228002,188.850006103516
10.0384252,188.919998168945
10.0540502,188.619995117188
10.0696752,187.320007324219
10.0853002,184.25
10.1009252,178.960006713867
10.1165502,171.619995117188
10.1321752,162.889999389648
10.1478002,153.5
10.1634252,143.839996337891
10.1790502,133.839996337891
10.1946752,123.120002746582
10.2103002,111.419998168945
10.2259252,98.9499969482422
10.2415502,86.2799987792969
10.2571752,74.0299987792969
10.2728002,62.5
10.2884252,51.6599998474121
10.3040502,41.1100006103516
10.3196752,30.2600002288818
10.3353002,18.6499996185303
10.3509252,6.17999982833862
10.3665502,-7.03000020980835
10.3821752,-20.8999996185303
10.3978002,-35.3699989318848
10.4134252,-50.2099990844727
10.4290502,-64.6800003051758
10.4446752,-77.6699981689453
10.4603002,-88.3899993896484
10.4759252,-97.0100021362305
10.4915502,-104.319999694824
10.5071752,-110.970001220703
10.5228002,-117.099998474121
10.5384252,-122.569999694824
10.5540502,-127.319999694824
10.5696752,-131.320007324219
10.5853002,-134.240005493164
10.6009252,-135.139999389648
10.6165502,-133.139999389648
10.6321752,-128.110000610352
10.6478002,-120.76000213623
10.6634252,-112.089996337891
10.6790502,-102.919998168945
10.6946752,-93.9199981689453
10.7103002,-85.7799987792969
10.7259252,-79.4199981689453
10.7415502,-75.5699996948242
10.7571752,-74.4000015258789
10.7728002,-75.5100021362305
10.7884252,-78.379997253418
10.8040502,-82.3399963378906
10.8196752,-87.0699996948242
10.8353002,-92.129997253418
10.8509252,-97.1800003051758
10.8665502,-102.150001525879
10.8821752,-107.26000213623
10.8978002,-112.800003051758
10.9134252,-118.910003662109
10.9290502,-125.569999694824
10.9446752,-132.759994506836
10.9603002,-140.449996948242
10.9759252,-148.460006713867
10.9915502,-156.320007324219
11.0071752,-163.360000610352
11.0228002,-169.199996948242
11.0384252,-174.050003051758
11.0540502,-178.419998168945
11.0696752,-182.559997558594
11.0853002,-186.330001831055
11.1009252,-189.490005493164
11.1165502,-191.889999389648
11.1321752,-193.669998168945
11.1478002,-195.169998168945
11.1634252,-196.850006103516
11.1790502,-199.070007324219
11.1946752,-201.880004882813
11.2103002,-205.080001831055
11.2259252,-208.429992675781
11.2415502,-211.710006713867
11.2571752,-214.720001220703
11.2728002,-217.059997558594
11.2884252,-217.990005493164
11.3040502,-216.639999389648
11.3196752,-212.440002441406
11.3353002,-205.419998168945
11.3509252,-196.240005493164
11.3665502,-185.929992675781
11.3821752,-175.520004272461
11.3978002,-165.669998168945
11.4134252,-156.669998168945
11.4290502,-148.520004272461
11.4446752,-141.169998168945
11.4603002,-134.559997558594
