Time(s),Value(%)
620.0089315,-33.7999992370605
620.0245565,-48.2000007629395
620.0401815,-58.2900009155273
620.0558065,-65.0100021362305
620.0714315,-69.6999969482422
620.0870565,-73.4700012207031
620.1026815,-76.8199996948242
620.1183065,-79.8099975585938
620.1339315,-82.1900024414063
620.1495565,-83.6900024414063
620.1651815,-84.1399993896484
620.1808065,-83.6100006103516
620.1964315,-82.5
620.2120565,-81.3399963378906
620.2276815,-80.2399978637695
620.2433065,-78.6800003051758
620.2589315,-75.75
620.2745565,-70.4199981689453
620.2901815,-62.0400009155273
620.3058065,-51.0400009155273
620.3214315,-38.9799995422363
620.3370565,-27.4699993133545
620.3526815,-17.0799999237061
620.3683065,-7.11999988555908
620.3839315,3.48000001907349
620.3995565,15.1300001144409
620.4151815,26.9300003051758
620.4308065,37.2799987792969
620.4464315,44.8499984741211
620.4620565,49.6500015258789
620.4776815,53.3400001525879
620.4933065,58.5699996948242
620.5089315,68.0100021362305
620.5245565,83.2699966430664
620.5401815,104.360000610352
620.5558065,129.589996337891
620.5714315,156.0
620.5870565,180.179992675781
620.6026815,199.639999389648
620.6183065,213.550003051758
620.6339315,222.570007324219
620.6495565,227.940002441406
620.6651815,230.559997558594
620.6808065,230.490005493164
620.6964315,227.149993896484
620.7120565,219.740005493164
620.7276815,207.619995117188
620.7433065,190.869995117188
620.7589315,170.479995727539
620.7745565,148.009994506836
620.7901815,125.040000915527
620.8058065,102.699996948242
620.8214315,81.7300033569336
620.8370565,62.5299987792969
620.8526815,45.0200004577637
620.8683065,28.6700000762939
620.8839315,12.8599996566772
620.8995565,-2.78999996185303
620.9151815,-18.3899993896484
620.9308065,-34.0200004577637
620.9464315,-49.9300003051758
620.9620565,-66.1600036621094
620.9776815,-82.0999984741211
620.9933065,-96.7600021362305
621.0089315,-109.389999389648
621.0245565,-119.800003051758
621.0401815,-128.360000610352
621.0558065,-135.820007324219
621.0714315,-142.600006103516
621.0870565,-148.25
621.1026815,-151.770004272461
621.1183065,-152.520004272461
621.1339315,-150.580001831055
621.1495565,-146.619995117188
621.1651815,-141.509994506836
621.1808065,-135.910003662109
621.1964315,-130.110000610352
621.2120565,-123.709999084473
621.2276815,-115.160003662109
621.2433065,-102.139999389648
621.2589315,-82.8499984741211
621.2745565,-57.2900009155273
621.2901815,-27.5499992370605
621.3058065,3.02999997138977
621.3214315,31.0900001525879
621.3370565,54.1199989318848
621.3526815,71.1900024414063
621.3683065,82.8399963378906
621.3839315,90.379997253418
621.3995565,95.1500015258789
621.4151815,98.0
621.4308065,99.1699981689453
621.4464315,98.3099975585938
621.4620565,94.9100036621094
621.4776815,88.629997253418
621.4933065,79.620002746582
621.5089315,68.6900024414063
621.5245565,57.1300010681152
621.5401815,46.3400001525879
621.5558065,37.25
621.5714315,29.9400005340576
621.5870565,23.6200008392334
621.6026815,17.1599998474121
621.6183065,9.63000011444092
621.6339315,0.660000026226044
621.6495565,-9.53999996185303
621.6651815,-20.4400005340576
621.6808065,-31.3600006103516
621.6964315,-41.8499984741211
621.7120565,-51.9599990844727
621.7276815,-61.7200012207031
621.7433065,-70.6399993896484
621.7589315,-77.870002746582
621.7745565,-82.7900009155273
621.7901815,-85.2300033569336
621.8058065,-85.5899963378906
621.8214315,-84.5500030517578
621.8370565,-82.7099990844727
621.8526815,-80.2399978637695
621.8683065,-77.0699996948242
621.8839315,-73.1100006103516
621.8995565,-68.3000030517578
621.9151815,-62.5299987792969
621.9308065,-55.6800003051758
621.9464315,-47.5400009155273
621.9620565,-37.6599998474121
621.9776815,-25.25
621.9933065,-9.27000045776367
622.0089315,11.1999998092651
622.0245565,35.7999992370605
622.0401815,61.7299995422363
622.0558065,84.5100021362305
622.0714315,99.4300003051758
622.0870565,102.730003356934
622.1026815,92.7799987792969
622.1183065,70.9599990844727
622.1339315,41.2599983215332
622.1495565,8.6899995803833
622.1651815,-22.3799991607666
622.1808065,-49.3300018310547
622.1964315,-71.6900024414063
622.2120565,-91.0299987792969
622.2276815,-109.790000915527
622.2433065,-128.75
622.2589315,-145.529998779297
622.2745565,-156.309997558594
622.2901815,-158.779998779297
622.3058065,-153.330001831055
622.3214315,-142.300003051758
622.3370565,-128.550003051758
622.3526815,-113.919998168945
622.3683065,-98.5800018310547
622.3839315,-81.7200012207031
622.3995565,-62.5800018310547
622.4151815,-41.3199996948242
622.4308065,-19.0300006866455
622.4464315,2.72000002861023
622.4620565,22.5599994659424
622.4776815,39.6199989318848
622.4933065,53.7999992370605
622.5089315,65.6600036621094
622.5245565,76.0699996948242
622.5401815,85.7099990844727
622.5558065,94.8000030517578
622.5714315,103.069999694824
622.5870565,109.900001525879
622.6026815,114.720001220703
622.6183065,117.379997253418
622.6339315,118.279998779297
622.6495565,118.190002441406
622.6651815,117.959999084473
622.6808065,118.349998474121
622.6964315,120.550003051758
622.7120565,127.190002441406
622.7276815,141.600006103516
622.7433065,164.5
622.7589315,191.389999389648
622.7745565,214.589996337891
622.7901815,227.699996948242
622.8058065,228.619995117188
622.8214315,219.539993286133
622.8370565,204.830001831055
622.8526815,188.5
622.8683065,172.679992675781
622.8839315,157.619995117188
622.8995565,142.389999389648
622.9151815,125.819999694824
622.9308065,107.269996643066
622.9464315,87.0
622.9620565,66.0
622.9776815,45.5099983215332
622.9933065,26.6299991607666
623.0089315,10.039999961853
623.0245565,-4.15000009536743
623.0401815,-16.3700008392334
623.0558065,-27.2900009155273
623.0714315,-37.5999984741211
623.0870565,-47.9000015258789
623.1026815,-58.4900016784668
623.1183065,-69.120002746582
623.1339315,-79.0999984741211
623.1495565,-87.6999969482422
623.1651815,-94.6100006103516
623.1808065,-99.9300003051758
623.1964315,-103.919998168945
623.2120565,-106.949996948242
623.2276815,-109.300003051758
623.2433065,-111.040000915527
623.2589315,-112.110000610352
623.2745565,-112.470001220703
623.2901815,-112.209999084473
623.3058065,-111.550003051758
623.3214315,-110.720001220703
623.3370565,-109.849998474121
623.3526815,-108.849998474121
623.3683065,-107.440002441406
623.3839315,-105.160003662109
623.3995565,-101.180000305176
623.4151815,-93.6800003051758
623.4308065,-79.8300018310547
623.4464315,-57.7099990844727
623.4620565,-29.0799999237061
623.4776815,0.370000004768372
623.4933065,23.9200000762939
623.5089315,37.1199989318848
623.5245565,39.5299987792969
623.5401815,34.1800003051758
623.5558065,25.5799999237061
623.5714315,17.4699993133545
623.5870565,11.4899997711182
623.6026815,7.21000003814697
623.6183065,2.88000011444092
623.6339315,-3.29999995231628
623.6495565,-12.3400001525879
623.6651815,-23.9400005340576
623.6808065,-36.7200012207031
623.6964315,-48.7599983215332
623.7120565,-58.5099983215332
623.7276815,-65.4000015258789
623.7433065,-69.7600021362305
623.7589315,-72.3099975585938
623.7745565,-73.75
623.7901815,-74.6600036621094
623.8058065,-75.379997253418
623.8214315,-75.9400024414063
623.8370565,-76.3499984741211
623.8526815,-76.5899963378906
623.8683065,-76.6100006103516
623.8839315,-76.3600006103516
623.8995565,-75.8600006103516
623.9151815,-75.2399978637695
623.9308065,-74.6399993896484
623.9464315,-74.0699996948242
623.9620565,-73.5299987792969
623.9776815,-73.3399963378906
623.9933065,-73.8199996948242
624.0089315,-74.6500015258789
624.0245565,-74.6900024414063
624.0401815,-72.4599990844727
624.0558065,-66.9800033569336
624.0714315,-58.3400001525879
624.0870565,-47.7999992370605
624.1026815,-37.0900001525879
624.1183065,-27.5499992370605
624.1339315,-19.1800003051758
624.1495565,-10.0799999237061
624.1651815,3.25999999046326
624.1808065,24.3899993896484
624.1964315,54.0900001525879
624.2120565,88.2799987792969
624.2276815,119.569999694824
624.2433065,141.199996948242
624.2589315,149.990005493164
624.2745565,146.860000610352
624.2901815,135.809997558594
624.3058065,121.639999389648
624.3214315,107.629997253418
624.3370565,94.4400024414063
624.3526815,81.0599975585938
624.3683065,66.8399963378906
624.3839315,52.2999992370605
624.3995565,38.4900016784668
624.4151815,26.0300006866455
624.4308065,14.7200002670288
624.4464315,4.19000005722046
624.4620565,-4.26999998092651
624.4776815,-7.15999984741211
624.4933065,-1.25
624.5089315,13.4300003051758
624.5245565,33.3899993896484
624.5401815,53.7700004577637
624.5558065,70.8199996948242
624.5714315,83.1100006103516
624.5870565,91.2300033569336
624.6026815,96.6500015258789
624.6183065,100.580001831055
624.6339315,103.5
624.6495565,105.129997253418
624.6651815,104.559997558594
624.6808065,100.680000305176
624.6964315,92.7900009155273
624.7120565,81.0199966430664
624.7276815,66.4000015258789
624.7433065,50.3899993896484
624.7589315,34.3199996948242
624.7745565,19.0599994659424
624.7901815,4.98000001907349
624.8058065,-7.78000020980835
624.8214315,-19.2600002288818
624.8370565,-29.6200008392334
624.8526815,-39.1500015258789
624.8683065,-48.0200004577637
624.8839315,-56.0800018310547
624.8995565,-63.0400009155273
624.9151815,-68.6999969482422
624.9308065,-73.0599975585938
624.9464315,-76.370002746582
624.9620565,-78.8899993896484
624.9776815,-80.6500015258789
624.9933065,-81.3300018310547
625.0089315,-80.5699996948242
625.0245565,-78.3099975585938
625.0401815,-74.9599990844727
625.0558065,-71.1699981689453
625.0714315,-67.5599975585938
625.0870565,-64.5299987792969
625.1026815,-62.2200012207031
625.1183065,-60.5999984741211
625.1339315,-59.5400009155273
625.1495565,-58.9199981689453
625.1651815,-58.6800003051758
625.1808065,-58.7799987792969
625.1964315,-59.1399993896484
625.2120565,-59.5499992370605
625.2276815,-59.810001373291
625.2433065,-59.7999992370605
625.2589315,-59.3499984741211
625.2745565,-58.0299987792969
625.2901815,-55.310001373291
625.3058065,-50.8199996948242
625.3214315,-44.6100006103516
625.3370565,-37.2900009155273
625.3526815,-29.8600006103516
625.3683065,-23.2600002288818
625.3839315,-17.9699993133545
625.3995565,-14.0900001525879
625.4151815,-11.3699998855591
625.4308065,-9.46000003814697
625.4464315,-7.98999977111816
625.4620565,-6.6399998664856
625.4776815,-5.15000009536743
625.4933065,-3.41000008583069
625.5089315,-1.61000001430511
625.5245565,-0.330000013113022
625.5401815,-0.699999988079071
625.5558065,-4.48000001907349
625.5714315,-12.7600002288818
625.5870565,-23.8600006103516
625.6026815,-31.8099994659424
625.6183065,-28.4599990844727
625.6339315,-9.17000007629395
625.6495565,22.6800003051758
625.6651815,57.3899993896484
625.6808065,84.8300018310547
625.6964315,99.5800018310547
625.7120565,102.209999084473
625.7276815,97.0
625.7433065,88.5299987792969
625.7589315,79.6500015258789
625.7745565,71.0699996948242
625.7901815,62.0900001525879
625.8058065,51.8899993896484
625.8214315,40.6300010681152
625.8370565,29.5499992370605
625.8526815,20.3400001525879
625.8683065,14.210000038147
625.8839315,11.289999961853
625.8995565,10.75
625.9151815,11.5100002288818
625.9308065,12.7399997711182
625.9464315,13.9700002670288
625.9620565,14.9399995803833
625.9776815,15.4899997711182
625.9933065,15.5200004577637
626.0089315,14.9799995422363
626.0245565,14.1499996185303
626.0401815,13.7799997329712
626.0558065,14.6700000762939
626.0714315,17.1499996185303
626.0870565,20.9099998474121
626.1026815,25.0300006866455
626.1183065,28.4099998474121
626.1339315,30.3500003814697
626.1495565,30.8099994659424
626.1651815,30.25
626.1808065,29.3299999237061
626.1964315,28.6299991607666
626.2120565,28.4899997711182
626.2276815,28.9400005340576
626.2433065,29.7999992370605
626.2589315,31.2700004577637
626.2745565,34.5800018310547
626.2901815,42.0299987792969
626.3058065,55.6599998474121
626.3214315,74.870002746582
626.3370565,95.6800003051758
626.3526815,112.5
626.3683065,121.169998168945
626.3839315,120.769996643066
626.3995565,113.269996643066
626.4151815,101.910003662109
626.4308065,89.5999984741211
626.4464315,77.75
626.4620565,66.120002746582
626.4776815,53.4599990844727
626.4933065,38.6100006103516
626.5089315,21.3500003814697
626.5245565,2.91000008583069
626.5401815,-14.4300003051758
626.5558065,-28.6700000762939
626.5714315,-38.9900016784668
626.5870565,-45.9000015258789
626.6026815,-50.6199989318848
626.6183065,-54.3400001525879
626.6339315,-57.7099990844727
626.6495565,-60.8199996948242
626.6651815,-63.4500007629395
626.6808065,-65.4199981689453
626.6964315,-66.5400009155273
626.7120565,-66.629997253418
626.7276815,-65.6399993896484
626.7433065,-63.75
626.7589315,-61.4000015258789
626.7745565,-59.1800003051758
626.7901815,-57.5299987792969
626.8058065,-56.560001373291
626.8214315,-55.9599990844727
626.8370565,-55.310001373291
626.8526815,-54.2799987792969
626.8683065,-52.8600006103516
626.8839315,-51.2099990844727
626.8995565,-49.5299987792969
626.9151815,-47.8699989318848
626.9308065,-46.25
626.9464315,-44.6800003051758
626.9620565,-43.2200012207031
626.9776815,-41.8199996948242
626.9933065,-40.4599990844727
627.0089315,-39.310001373291
627.0245565,-38.689998626709
627.0401815,-38.9500007629395
627.0558065,-40.3400001525879
627.0714315,-43.0200004577637
627.0870565,-47.0200004577637
627.1026815,-52.5699996948242
627.1183065,-60.3600006103516
627.1339315,-70.7300033569336
627.1495565,-82.370002746582
627.1651815,-92.3399963378906
627.1808065,-97.3300018310547
627.1964315,-95.2300033569336
627.2120565,-86.2099990844727
627.2276815,-72.5899963378906
627.2433065,-57.5999984741211
627.2589315,-44.0099983215332
627.2745565,-33.0900001525879
627.2901815,-24.4599990844727
627.3058065,-16.7800006866455
627.3214315,-8.75
627.3370565,0.119999997317791
627.3526815,9.47999954223633
627.3683065,18.4599990844727
627.3839315,26.1800003051758
627.3995565,32.0999984741211
627.4151815,36.2299995422363
627.4308065,38.8199996948242
627.4464315,40.1500015258789
627.4620565,40.4199981689453
627.4776815,39.9099998474121
627.4933065,38.9799995422363
627.5089315,37.8899993896484
627.5245565,36.939998626709
627.5401815,36.5999984741211
627.5558065,37.3699989318848
627.5714315,39.3899993896484
627.5870565,42.3600006103516
627.6026815,45.6699981689453
627.6183065,48.6599998474121
627.6339315,50.9700012207031
627.6495565,52.8699989318848
627.6651815,55.189998626709
627.6808065,58.6399993896484
627.6964315,63.2200012207031
627.7120565,68.1399993896484
627.7276815,72.3300018310547
627.7433065,75.0500030517578
627.7589315,76.1900024414063
627.7745565,76.1999969482422
627.7901815,75.7900009155273
627.8058065,75.6699981689453
627.8214315,76.2099990844727
627.8370565,77.2200012207031
627.8526815,77.7399978637695
627.8683065,76.3099975585938
627.8839315,71.75
627.8995565,63.8800010681152
627.9151815,53.6399993896484
627.9308065,42.5800018310547
627.9464315,32.0400009155273
627.9620565,22.7099990844727
627.9776815,14.8599996566772
627.9933065,8.59000015258789
628.0089315,3.90000009536743
628.0245565,0.620000004768372
628.0401815,-1.52999997138977
628.0558065,-3.0
628.0714315,-4.26000022888184
628.0870565,-5.6100001335144
628.1026815,-7.07999992370605
628.1183065,-8.39999961853027
628.1339315,-9.11999988555908
628.1495565,-8.78999996185303
628.1651815,-7.28999996185303
628.1808065,-4.90000009536743
628.1964315,-2.19000005722046
628.2120565,0.140000000596046
628.2276815,1.52999997138977
628.2433065,1.87000000476837
628.2589315,1.92999994754791
628.2745565,2.86999988555908
628.2901815,5.25
628.3058065,8.44999980926514
628.3214315,11.1400003433228
628.3370565,12.0900001525879
628.3526815,10.789999961853
628.3683065,7.44999980926514
628.3839315,2.52999997138977
628.3995565,-3.85999989509583
628.4151815,-12.1700000762939
628.4308065,-22.9200000762939
628.4464315,-36.0699996948242
628.4620565,-50.5699996948242
628.4776815,-64.7600021362305
628.4933065,-77.0599975585938
628.5089315,-86.7099990844727
628.5245565,-94.1699981689453
628.5401815,-100.580001831055
628.5558065,-106.779998779297
628.5714315,-112.910003662109
628.5870565,-118.389999389648
628.6026815,-122.25
628.6183065,-123.529998779297
628.6339315,-121.809997558594
628.6495565,-117.290000915527
628.6651815,-110.610000610352
628.6808065,-102.470001220703
628.6964315,-93.2200012207031
628.7120565,-82.6399993896484
628.7276815,-70.2600021362305
628.7433065,-55.9000015258789
628.7589315,-40.0699996948242
628.7745565,-23.6900005340576
628.7901815,-7.46000003814697
628.8058065,8.15999984741211
628.8214315,22.6800003051758
628.8370565,35.5499992370605
628.8526815,46.5999984741211
628.8683065,56.2700004577637
628.8839315,65.4300003051758
628.8995565,75.0699996948242
628.9151815,85.5599975585938
628.9308065,96.2699966430664
628.9464315,105.830001831055
628.9620565,113.029998779297
628.9776815,117.580001831055
628.9933065,120.169998168945
629.0089315,121.919998168945
629.0245565,123.800003051758
629.0401815,126.400001525879
629.0558065,129.669998168945
629.0714315,132.910003662109
629.0870565,135.229995727539
629.1026815,136.160003662109
629.1183065,135.720001220703
629.1339315,134.070007324219
629.1495565,130.979995727539
629.1651815,125.370002746582
629.1808065,115.069999694824
629.1964315,97.7399978637695
629.2120565,72.3600006103516
629.2276815,39.8899993896484
629.2433065,3.21000003814697
629.2589315,-33.6100006103516
629.2745565,-66.4199981689453
629.2901815,-92.0599975585938
629.3058065,-108.930000305176
629.3214315,-117.349998474121
629.3370565,-119.550003051758
629.3526815,-119.0
629.3683065,-118.709999084473
629.3839315,-119.419998168945
629.3995565,-119.349998474121
629.4151815,-115.919998168945
629.4308065,-107.849998474121
629.4464315,-95.9599990844727
629.4620565,-82.5199966430664
629.4776815,-69.9100036621094
629.4933065,-59.5400009155273
629.5089315,-51.6300010681152
629.5245565,-45.3800010681152
629.5401815,-39.5099983215332
629.5558065,-33.060001373291
629.5714315,-25.9500007629395
629.5870565,-19.0400009155273
629.6026815,-13.539999961853
629.6183065,-10.2600002288818
629.6339315,-9.30000019073486
629.6495565,-10.1000003814697
629.6651815,-11.5699996948242
629.6808065,-11.789999961853
629.6964315,-7.65999984741211
629.7120565,4.53000020980835
629.7276815,26.4200000762939
629.7433065,54.75
629.7589315,81.9899978637695
629.7745565,100.470001220703
629.7901815,106.419998168945
629.8058065,100.98999786377
629.8214315,88.4199981689453
629.8370565,73.3199996948242
629.8526815,58.7299995422363
629.8683065,45.5400009155273
629.8839315,32.7900009155273
629.8995565,18.5200004577637
629.9151815,1.19000005722046
629.9308065,-19.1000003814697
629.9464315,-40.4000015258789
629.9620565,-59.689998626709
629.9776815,-74.2699966430664
629.9933065,-82.870002746582
630.0089315,-85.9599990844727
630.0245565,-85.2699966430664
630.0401815,-82.7799987792969
630.0558065,-79.9499969482422
630.0714315,-77.2900009155273
630.0870565,-74.5800018310547
630.1026815,-71.4100036621094
630.1183065,-67.6999969482422
630.1339315,-63.8300018310547
630.1495565,-60.4099998474121
630.1651815,-57.8199996948242
630.1808065,-56.0400009155273
630.1964315,-54.7999992370605
630.2120565,-53.810001373291
630.2276815,-52.9300003051758
630.2433065,-52.1199989318848
630.2589315,-51.3699989318848
630.2745565,-50.560001373291
630.2901815,-49.5099983215332
630.3058065,-48.0999984741211
630.3214315,-46.310001373291
630.3370565,-44.25
630.3526815,-41.8300018310547
630.3683065,-37.8400001525879
630.3839315,-28.8299999237061
630.3995565,-10.3599996566772
630.4151815,18.4099998474121
630.4308065,51.810001373291
630.4464315,80.3899993896484
630.4620565,96.7200012207031
630.4776815,98.7799987792969
630.4933065,89.5899963378906
630.5089315,74.6699981689453
630.5245565,59.4300003051758
630.5401815,47.5800018310547
630.5558065,40.4000015258789
630.5714315,36.9000015258789
630.5870565,34.7999992370605
630.6026815,31.7800006866455
630.6183065,26.6000003814697
630.6339315,19.5100002288818
630.6495565,11.789999961853
630.6651815,4.76000022888184
630.6808065,-0.829999983310699
630.6964315,-4.98999977111816
630.7120565,-8.0600004196167
630.7276815,-10.3100004196167
630.7433065,-11.7600002288818
630.7589315,-12.4200000762939
