Time(s),Value(%)
662.006776,1.10000002384186
662.022401,1.0900000333786
662.038026,1.00999999046326
662.053651,0.889999985694885
662.069276,0.689999997615814
662.084901,0.439999997615814
662.100526,0.180000007152557
662.116151,-0.0099999997764825
662.131776,-0.159999996423721
662.147401,-0.28999999165535
662.163026,-0.389999985694885
662.178651,-0.469999998807907
662.194276,-0.479999989271164
662.209901,-0.400000005960464
662.225526,-0.25
662.241151,-0.119999997317791
662.256776,-0.109999999403954
662.272401,-0.230000004172325
662.288026,-0.449999988079071
662.303651,-0.680000007152557
662.319276,-0.839999973773956
662.334901,-0.930000007152557
662.350526,-0.949999988079071
662.366151,-0.930000007152557
662.381776,-0.910000026226044
662.397401,-0.899999976158142
662.413026,-0.870000004768372
662.428651,-0.759999990463257
662.444276,-0.479999989271164
662.459901,-0.0299999993294477
662.475526,0.5
662.491151,0.980000019073486
662.506776,1.27999997138977
662.522401,1.36000001430511
662.538026,1.26999998092651
662.553651,1.0900000333786
662.569276,0.930000007152557
662.584901,0.769999980926514
662.600526,0.579999983310699
662.616151,0.319999992847443
662.631776,0.0
662.647401,-0.319999992847443
662.663026,-0.579999983310699
662.678651,-0.769999980926514
662.694276,-0.930000007152557
662.709901,-1.04999995231628
662.725526,-1.07000005245209
662.741151,-0.930000007152557
662.756776,-0.670000016689301
662.772401,-0.379999995231628
662.788026,-0.159999996423721
662.803651,-0.0399999991059303
662.819276,-0.0299999993294477
662.834901,-0.109999999403954
662.850526,-0.209999993443489
662.866151,-0.270000010728836
662.881776,-0.270000010728836
662.897401,-0.270000010728836
662.913026,-0.300000011920929
662.928651,-0.330000013113022
662.944276,-0.300000011920929
662.959901,-0.159999996423721
662.975526,0.0399999991059303
662.991151,0.259999990463257
663.006776,0.439999997615814
663.022401,0.560000002384186
663.038026,0.660000026226044
663.053651,0.790000021457672
663.069276,0.980000019073486
663.084901,1.13999998569489
663.100526,1.17999994754791
663.116151,1.04999995231628
663.131776,0.790000021457672
663.147401,0.449999988079071
663.163026,0.119999997317791
663.178651,-0.140000000596046
663.194276,-0.319999992847443
663.209901,-0.389999985694885
663.225526,-0.340000003576279
663.241151,-0.189999997615814
663.256776,0.0199999995529652
663.272401,0.25
663.288026,0.430000007152557
663.303651,0.5
663.319276,0.439999997615814
663.334901,0.280000001192093
663.350526,0.0799999982118607
663.366151,-0.0900000035762787
663.381776,-0.200000002980232
663.397401,-0.25
663.413026,-0.270000010728836
663.428651,-0.310000002384186
663.444276,-0.370000004768372
663.459901,-0.439999997615814
663.475526,-0.46000000834465
663.491151,-0.319999992847443
663.506776,0.0199999995529652
663.522401,0.550000011920929
663.538026,1.12000000476837
663.553651,1.58000004291534
663.569276,1.82000005245209
663.584901,1.87999999523163
663.600526,1.87000000476837
663.616151,1.82000005245209
663.631776,1.66999995708466
663.647401,1.3400000333786
663.663026,0.870000004768372
663.678651,0.400000005960464
663.694276,0.0799999982118607
663.709901,-0.0500000007450581
663.725526,-0.100000001490116
663.741151,-0.129999995231628
663.756776,-0.170000001788139
663.772401,-0.219999998807907
663.788026,-0.219999998807907
663.803651,-0.180000007152557
663.819276,-0.189999997615814
663.834901,-0.319999992847443
663.850526,-0.600000023841858
663.866151,-0.970000028610229
663.881776,-1.27999997138977
663.897401,-1.44000005722046
663.913026,-1.38999998569489
663.928651,-1.20000004768372
663.944276,-0.970000028610229
663.959901,-0.779999971389771
663.975526,-0.629999995231628
663.991151,-0.449999988079071
664.006776,-0.159999996423721
664.022401,0.270000010728836
664.038026,0.779999971389771
664.053651,1.23000001907349
664.069276,1.48000001907349
664.084901,1.51999998092651
664.100526,1.41999995708466
664.116151,1.25999999046326
664.131776,1.05999994277954
664.147401,0.819999992847443
664.163026,0.550000011920929
664.178651,0.270000010728836
664.194276,0.0099999997764825
664.209901,-0.230000004172325
664.225526,-0.469999998807907
664.241151,-0.680000007152557
664.256776,-0.819999992847443
664.272401,-0.819999992847443
664.288026,-0.660000026226044
664.303651,-0.379999995231628
664.319276,-0.0700000002980232
664.334901,0.170000001788139
664.350526,0.25
664.366151,0.119999997317791
664.381776,-0.159999996423721
664.397401,-0.449999988079071
664.413026,-0.620000004768372
664.428651,-0.660000026226044
664.444276,-0.620000004768372
664.459901,-0.610000014305115
664.475526,-0.600000023841858
664.491151,-0.540000021457672
664.506776,-0.319999992847443
664.522401,0.0900000035762787
664.538026,0.620000004768372
664.553651,1.12000000476837
664.569276,1.4099999666214
664.584901,1.39999997615814
664.600526,1.12000000476837
664.616151,0.740000009536743
664.631776,0.430000007152557
664.647401,0.28999999165535
664.663026,0.259999990463257
664.678651,0.219999998807907
664.694276,0.0700000002980232
664.709901,-0.140000000596046
664.725526,-0.409999996423721
664.741151,-0.689999997615814
664.756776,-0.970000028610229
664.772401,-1.13999998569489
664.788026,-1.08000004291534
664.803651,-0.819999992847443
664.819276,-0.509999990463257
664.834901,-0.319999992847443
664.850526,-0.319999992847443
664.866151,-0.449999988079071
664.881776,-0.660000026226044
664.897401,-0.850000023841858
664.913026,-0.959999978542328
664.928651,-0.990000009536743
664.944276,-0.980000019073486
664.959901,-0.970000028610229
664.975526,-0.899999976158142
664.991151,-0.689999997615814
665.006776,-0.319999992847443
665.022401,0.150000005960464
665.038026,0.610000014305115
665.053651,0.930000007152557
665.069276,1.04999995231628
665.084901,1.00999999046326
665.100526,0.920000016689301
665.116151,0.850000023841858
665.131776,0.810000002384186
665.147401,0.759999990463257
665.163026,0.680000007152557
665.178651,0.589999973773956
665.194276,0.469999998807907
665.209901,0.330000013113022
665.225526,0.170000001788139
665.241151,-0.0199999995529652
665.256776,-0.230000004172325
665.272401,-0.389999985694885
665.288026,-0.479999989271164
665.303651,-0.469999998807907
665.319276,-0.400000005960464
665.334901,-0.330000013113022
665.350526,-0.340000003576279
665.366151,-0.439999997615814
665.381776,-0.610000014305115
665.397401,-0.779999971389771
665.413026,-0.899999976158142
665.428651,-0.949999988079071
665.444276,-0.949999988079071
665.459901,-0.899999976158142
665.475526,-0.810000002384186
665.491151,-0.639999985694885
665.506776,-0.370000004768372
665.522401,0.0
665.538026,0.419999986886978
665.553651,0.810000002384186
665.569276,1.0900000333786
665.584901,1.27999997138977
665.600526,1.41999995708466
665.616151,1.49000000953674
665.631776,1.41999995708466
665.647401,1.1599999666214
665.663026,0.730000019073486
665.678651,0.270000010728836
665.694276,-0.0799999982118607
665.709901,-0.319999992847443
665.725526,-0.5
665.741151,-0.639999985694885
665.756776,-0.709999978542328
665.772401,-0.680000007152557
665.788026,-0.560000002384186
665.803651,-0.409999996423721
665.819276,-0.300000011920929
665.834901,-0.28999999165535
665.850526,-0.430000007152557
665.866151,-0.689999997615814
665.881776,-0.920000016689301
665.897401,-1.00999999046326
665.913026,-0.910000026226044
665.928651,-0.720000028610229
665.944276,-0.600000023841858
665.959901,-0.639999985694885
665.975526,-0.850000023841858
665.991151,-1.11000001430511
666.006776,-1.23000001907349
666.022401,-1.05999994277954
666.038026,-0.579999983310699
666.053651,0.0599999986588955
666.069276,0.680000007152557
666.084901,1.08000004291534
666.100526,1.1599999666214
666.116151,0.959999978542328
666.131776,0.600000023841858
666.147401,0.259999990463257
666.163026,0.0299999993294477
666.178651,-0.0299999993294477
666.194276,0.0099999997764825
666.209901,0.0900000035762787
666.225526,0.109999999403954
666.241151,0.0299999993294477
666.256776,-0.0700000002980232
666.272401,-0.100000001490116
666.288026,0.0299999993294477
666.303651,0.280000001192093
666.319276,0.5
666.334901,0.550000011920929
666.350526,0.430000007152557
666.366151,0.239999994635582
666.381776,0.0500000007450581
666.397401,-0.0799999982118607
666.413026,-0.170000001788139
666.428651,-0.200000002980232
666.444276,-0.170000001788139
666.459901,-0.150000005960464
666.475526,-0.209999993443489
666.491151,-0.389999985694885
666.506776,-0.620000004768372
666.522401,-0.779999971389771
666.538026,-0.75
666.553651,-0.479999989271164
666.569276,0.0
666.584901,0.579999983310699
666.600526,1.12000000476837
666.616151,1.5
666.631776,1.66999995708466
666.647401,1.62999999523163
666.663026,1.49000000953674
666.678651,1.35000002384186
666.694276,1.17999994754791
666.709901,0.930000007152557
666.725526,0.589999973773956
666.741151,0.239999994635582
666.756776,-0.0399999991059303
666.772401,-0.28999999165535
666.788026,-0.529999971389771
666.803651,-0.730000019073486
666.819276,-0.829999983310699
666.834901,-0.759999990463257
666.850526,-0.529999971389771
666.866151,-0.230000004172325
666.881776,0.0
666.897401,0.0700000002980232
666.913026,-0.0299999993294477
666.928651,-0.270000010728836
666.944276,-0.529999971389771
666.959901,-0.699999988079071
666.975526,-0.720000028610229
666.991151,-0.589999973773956
667.006776,-0.360000014305115
667.022401,-0.0599999986588955
667.038026,0.300000011920929
667.053651,0.699999988079071
667.069276,1.0900000333786
667.084901,1.36000001430511
667.100526,1.45000004768372
667.116151,1.38999998569489
667.131776,1.30999994277954
667.147401,1.33000004291534
667.163026,1.41999995708466
667.178651,1.42999994754791
667.194276,1.23000001907349
667.209901,0.860000014305115
667.225526,0.430000007152557
667.241151,0.0399999991059303
667.256776,-0.239999994635582
667.272401,-0.400000005960464
667.288026,-0.449999988079071
667.303651,-0.409999996423721
667.319276,-0.340000003576279
667.334901,-0.28999999165535
667.350526,-0.270000010728836
667.366151,-0.270000010728836
667.381776,-0.28999999165535
667.397401,-0.28999999165535
667.413026,-0.270000010728836
667.428651,-0.300000011920929
667.444276,-0.46000000834465
667.459901,-0.769999980926514
667.475526,-1.13999998569489
667.491151,-1.4099999666214
667.506776,-1.42999994754791
667.522401,-1.14999997615814
667.538026,-0.610000014305115
667.553651,0.0199999995529652
667.569276,0.639999985694885
667.584901,1.14999997615814
667.600526,1.52999997138977
667.616151,1.79999995231628
667.631776,1.96000003814697
667.647401,1.99000000953674
667.663026,1.8400000333786
667.678651,1.47000002861023
667.694276,0.930000007152557
667.709901,0.379999995231628
667.725526,-0.0399999991059303
667.741151,-0.28999999165535
667.756776,-0.389999985694885
667.772401,-0.389999985694885
667.788026,-0.360000014305115
667.803651,-0.349999994039536
667.819276,-0.430000007152557
667.834901,-0.649999976158142
667.850526,-1.02999997138977
667.866151,-1.48000001907349
667.881776,-1.87999999523163
667.897401,-2.13000011444092
667.913026,-2.19000005722046
667.928651,-2.0699999332428
667.944276,-1.80999994277954
667.959901,-1.48000001907349
667.975526,-1.12000000476837
667.991151,-0.769999980926514
668.006776,-0.479999989271164
668.022401,-0.270000010728836
668.038026,-0.0900000035762787
668.053651,0.129999995231628
668.069276,0.46000000834465
668.084901,0.850000023841858
668.100526,1.1599999666214
668.116151,1.26999998092651
668.131776,1.14999997615814
668.147401,0.899999976158142
668.163026,0.589999973773956
668.178651,0.300000011920929
668.194276,0.0799999982118607
668.209901,-0.0399999991059303
668.225526,-0.0900000035762787
668.241151,-0.129999995231628
668.256776,-0.219999998807907
668.272401,-0.349999994039536
668.288026,-0.449999988079071
668.303651,-0.449999988079071
668.319276,-0.330000013113022
668.334901,-0.140000000596046
668.350526,0.0
668.366151,0.0199999995529652
668.381776,-0.129999995231628
668.397401,-0.389999985694885
668.413026,-0.689999997615814
668.428651,-0.899999976158142
668.444276,-0.949999988079071
668.459901,-0.810000002384186
668.475526,-0.600000023841858
668.491151,-0.449999988079071
668.506776,-0.430000007152557
668.522401,-0.540000021457672
668.538026,-0.689999997615814
668.553651,-0.769999980926514
668.569276,-0.689999997615814
668.584901,-0.430000007152557
668.600526,-0.0700000002980232
668.616151,0.25
668.631776,0.46000000834465
668.647401,0.540000021457672
668.663026,0.569999992847443
668.678651,0.660000026226044
668.694276,0.829999983310699
668.709901,1.00999999046326
668.725526,1.0900000333786
668.741151,0.959999978542328
668.756776,0.649999976158142
668.772401,0.270000010728836
668.788026,-0.0500000007450581
668.803651,-0.230000004172325
668.819276,-0.259999990463257
668.834901,-0.170000001788139
668.850526,-0.0099999997764825
668.866151,0.119999997317791
668.881776,0.159999996423721
668.897401,0.0900000035762787
668.913026,-0.0500000007450581
668.928651,-0.230000004172325
668.944276,-0.439999997615814
668.959901,-0.649999976158142
668.975526,-0.769999980926514
668.991151,-0.75
669.006776,-0.600000023841858
669.022401,-0.419999986886978
669.038026,-0.319999992847443
669.053651,-0.270000010728836
669.069276,-0.170000001788139
669.084901,0.0500000007450581
669.100526,0.400000005960464
669.116151,0.800000011920929
669.131776,1.13999998569489
669.147401,1.36000001430511
669.163026,1.45000004768372
669.178651,1.41999995708466
669.194276,1.26999998092651
669.209901,1.02999997138977
669.225526,0.759999990463257
669.241151,0.519999980926514
669.256776,0.349999994039536
669.272401,0.25
669.288026,0.170000001788139
669.303651,0.0799999982118607
669.319276,-0.0199999995529652
669.334901,-0.150000005960464
669.350526,-0.25
669.366151,-0.319999992847443
669.381776,-0.300000011920929
669.397401,-0.230000004172325
669.413026,-0.200000002980232
669.428651,-0.28999999165535
669.444276,-0.490000009536743
669.459901,-0.709999978542328
669.475526,-0.889999985694885
669.491151,-1.0
669.506776,-1.02999997138977
669.522401,-1.0
669.538026,-0.889999985694885
669.553651,-0.680000007152557
669.569276,-0.330000013113022
669.584901,0.209999993443489
669.600526,0.889999985694885
669.616151,1.5900000333786
669.631776,2.10999989509583
669.647401,2.28999996185303
669.663026,2.13000011444092
669.678651,1.71000003814697
669.694276,1.19000005722046
669.709901,0.680000007152557
669.725526,0.239999994635582
669.741151,-0.0799999982118607
669.756776,-0.300000011920929
669.772401,-0.430000007152557
669.788026,-0.509999990463257
669.803651,-0.589999973773956
669.819276,-0.699999988079071
669.834901,-0.829999983310699
669.850526,-1.0
669.866151,-1.21000003814697
669.881776,-1.36000001430511
669.897401,-1.36000001430511
669.913026,-1.19000005722046
669.928651,-0.889999985694885
669.944276,-0.569999992847443
669.959901,-0.310000002384186
669.975526,-0.159999996423721
669.991151,-0.150000005960464
670.006776,-0.239999994635582
670.022401,-0.319999992847443
670.038026,-0.310000002384186
670.053651,-0.189999997615814
670.069276,0.0
670.084901,0.239999994635582
670.100526,0.490000009536743
670.116151,0.769999980926514
670.131776,1.07000005245209
670.147401,1.3400000333786
670.163026,1.54999995231628
670.178651,1.62000000476837
670.194276,1.50999999046326
670.209901,1.24000000953674
670.225526,0.920000016689301
670.241151,0.629999995231628
670.256776,0.400000005960464
670.272401,0.230000004172325
670.288026,0.0700000002980232
670.303651,-0.119999997317791
670.319276,-0.330000013113022
670.334901,-0.479999989271164
670.350526,-0.5
670.366151,-0.400000005960464
670.381776,-0.230000004172325
670.397401,-0.0500000007450581
670.413026,0.0700000002980232
670.428651,0.0700000002980232
670.444276,-0.100000001490116
670.459901,-0.379999995231628
670.475526,-0.629999995231628
670.491151,-0.720000028610229
670.506776,-0.649999976158142
670.522401,-0.490000009536743
670.538026,-0.340000003576279
670.553651,-0.219999998807907
670.569276,-0.0900000035762787
670.584901,0.109999999403954
670.600526,0.389999985694885
670.616151,0.680000007152557
670.631776,0.879999995231628
670.647401,0.930000007152557
670.663026,0.829999983310699
670.678651,0.680000007152557
670.694276,0.589999973773956
670.709901,0.600000023841858
670.725526,0.629999995231628
670.741151,0.550000011920929
670.756776,0.280000001192093
670.772401,-0.150000005960464
670.788026,-0.560000002384186
670.803651,-0.790000021457672
670.819276,-0.790000021457672
670.834901,-0.680000007152557
670.850526,-0.560000002384186
670.866151,-0.46000000834465
670.881776,-0.349999994039536
670.897401,-0.230000004172325
670.913026,-0.159999996423721
670.928651,-0.189999997615814
670.944276,-0.370000004768372
670.959901,-0.660000026226044
670.975526,-0.959999978542328
670.991151,-1.17999994754791
671.006776,-1.27999997138977
671.022401,-1.25
671.038026,-1.08000004291534
671.053651,-0.75
671.069276,-0.25
671.084901,0.360000014305115
671.100526,0.970000028610229
671.116151,1.4099999666214
671.131776,1.57000005245209
671.147401,1.49000000953674
671.163026,1.27999997138977
671.178651,1.04999995231628
671.194276,0.860000014305115
671.209901,0.709999978542328
671.225526,0.579999983310699
671.241151,0.409999996423721
671.256776,0.129999995231628
671.272401,-0.209999993443489
671.288026,-0.509999990463257
671.303651,-0.649999976158142
671.319276,-0.610000014305115
671.334901,-0.519999980926514
671.350526,-0.509999990463257
671.366151,-0.600000023841858
671.381776,-0.790000021457672
671.397401,-1.04999995231628
671.413026,-1.27999997138977
671.428651,-1.37999999523163
671.444276,-1.26999998092651
671.459901,-1.0
671.475526,-0.709999978542328
671.491151,-0.579999983310699
671.506776,-0.629999995231628
671.522401,-0.730000019073486
671.538026,-0.75
671.553651,-0.560000002384186
671.569276,-0.159999996423721
671.584901,0.409999996423721
671.600526,1.0900000333786
671.616151,1.70000004768372
671.631776,2.07999992370605
671.647401,2.11999988555908
671.663026,1.86000001430511
671.678651,1.46000003814697
671.694276,1.07000005245209
671.709901,0.769999980926514
671.725526,0.540000021457672
671.741151,0.300000011920929
671.756776,0.0099999997764825
671.772401,-0.28999999165535
671.788026,-0.540000021457672
671.803651,-0.699999988079071
671.819276,-0.819999992847443
671.834901,-1.02999997138977
671.850526,-1.37000000476837
671.866151,-1.75
671.881776,-2.0
671.897401,-2.00999999046326
671.913026,-1.80999994277954
671.928651,-1.5
671.944276,-1.21000003814697
671.959901,-1.01999998092651
671.975526,-0.949999988079071
671.991151,-0.949999988079071
672.006776,-0.920000016689301
672.022401,-0.810000002384186
672.038026,-0.649999976158142
672.053651,-0.529999971389771
672.069276,-0.439999997615814
672.084901,-0.349999994039536
672.100526,-0.239999994635582
672.116151,-0.0700000002980232
672.131776,0.140000000596046
672.147401,0.400000005960464
672.163026,0.649999976158142
672.178651,0.879999995231628
672.194276,1.0900000333786
672.209901,1.28999996185303
672.225526,1.45000004768372
672.241151,1.50999999046326
672.256776,1.47000002861023
672.272401,1.33000004291534
672.288026,1.14999997615814
672.303651,0.949999988079071
672.319276,0.720000028610229
672.334901,0.449999988079071
672.350526,0.209999993443489
672.366151,0.0199999995529652
672.381776,-0.129999995231628
672.397401,-0.300000011920929
672.413026,-0.519999980926514
672.428651,-0.730000019073486
672.444276,-0.889999985694885
672.459901,-0.980000019073486
672.475526,-1.0
672.491151,-0.949999988079071
672.506776,-0.829999983310699
672.522401,-0.649999976158142
672.538026,-0.439999997615814
672.553651,-0.239999994635582
672.569276,-0.0700000002980232
672.584901,0.109999999403954
672.600526,0.370000004768372
672.616151,0.720000028610229
672.631776,1.16999995708466
672.647401,1.62000000476837
672.663026,1.97000002861023
672.678651,2.10999989509583
672.694276,1.98000001907349
672.709901,1.6599999666214
672.725526,1.26999998092651
672.741151,0.920000016689301
672.756776,0.610000014305115
672.772401,0.330000013113022
672.788026,0.129999995231628
672.803651,0.0199999995529652
672.819276,-0.0199999995529652
672.834901,-0.0599999986588955
672.850526,-0.0599999986588955
