Time(s),Value(%)
704.0064631,14.1800003051758
704.0220881,29.1299991607666
704.0377131,42.7400016784668
704.0533381,52.5999984741211
704.0689631,57.7099990844727
704.0845881,58.8600006103516
704.1002131,57.9599990844727
704.1158381,56.7200012207031
704.1314631,55.4799995422363
704.1470881,53.2700004577637
704.1627131,48.9500007629395
704.1783381,42.2299995422363
704.1939631,33.9000015258789
704.2095881,25.1100006103516
704.2252131,16.7800006866455
704.2408381,9.43000030517578
704.2564631,3.51999998092651
704.2720881,-0.529999971389771
704.2877131,-2.61999988555908
704.3033381,-3.11999988555908
704.3189631,-2.97000002861023
704.3345881,-3.4300000667572
704.3502131,-5.59000015258789
704.3658381,-9.5600004196167
704.3814631,-14.2200002670288
704.3970881,-17.8600006103516
704.4127131,-19.6399993896484
704.4283381,-20.1800003051758
704.4439631,-20.8199996948242
704.4595881,-22.4099998474121
704.4752131,-24.7900009155273
704.4908381,-27.1299991607666
704.5064631,-28.6700000762939
704.5220881,-29.1900005340576
704.5377131,-28.9899997711182
704.5533381,-28.7099990844727
704.5689631,-28.9699993133545
704.5845881,-29.9500007629395
704.6002131,-31.2000007629395
704.6158381,-31.6700000762939
704.6314631,-30.0400009155273
704.6470881,-25.6100006103516
704.6627131,-19.1700000762939
704.6783381,-12.9099998474121
704.6939631,-9.1899995803833
704.7095881,-8.96000003814697
704.7252131,-11.2200002670288
704.7408381,-14.0900001525879
704.7564631,-15.8599996566772
704.7720881,-15.3500003814697
704.7877131,-11.6499996185303
704.8033381,-4.23000001907349
704.8189631,6.80000019073486
704.8345881,20.3299999237061
704.8502131,34.2400016784668
704.8658381,46.25
704.8814631,54.9099998474121
704.8970881,59.9599990844727
704.9127131,61.939998626709
704.9283381,61.7099990844727
704.9439631,59.939998626709
704.9595881,56.7299995422363
704.9752131,51.6800003051758
704.9908381,44.4000015258789
705.0064631,34.939998626709
705.0220881,23.9300003051758
705.0377131,12.5600004196167
705.0533381,2.36999988555908
705.0689631,-5.36999988555908
705.0845881,-10.1999998092651
705.1002131,-12.6700000762939
705.1158381,-13.9799995422363
705.1314631,-15.3400001525879
705.1470881,-17.1800003051758
705.1627131,-19.0300006866455
705.1783381,-20.1599998474121
705.1939631,-20.4699993133545
705.2095881,-20.5499992370605
705.2252131,-21.1700000762939
705.2408381,-22.8799991607666
705.2564631,-25.8500003814697
705.2720881,-29.5799999237061
705.2877131,-32.810001373291
705.3033381,-34.3699989318848
705.3189631,-33.7799987792969
705.3345881,-31.2900009155273
705.3502131,-27.5100002288818
705.3658381,-23.3700008392334
705.3814631,-20.0499992370605
705.3970881,-18.6800003051758
705.4127131,-19.7199993133545
705.4283381,-22.4300003051758
705.4439631,-25.3799991607666
705.4595881,-27.3299999237061
705.4752131,-27.8500003814697
705.4908381,-27.3199996948242
705.5064631,-26.4400005340576
705.5220881,-25.7900009155273
705.5377131,-25.3999996185303
705.5533381,-24.4899997711182
705.5689631,-21.7299995422363
705.5845881,-16.0699996948242
705.6002131,-7.15000009536743
705.6158381,4.82999992370605
705.6314631,19.2399997711182
705.6470881,34.6399993896484
705.6627131,48.9199981689453
705.6783381,60.0299987792969
705.6939631,66.8000030517578
705.7095881,69.379997253418
705.7252131,69.0199966430664
705.7408381,67.4599990844727
705.7564631,66.0500030517578
705.7720881,65.0699996948242
705.7877131,63.7099990844727
705.8033381,60.7999992370605
705.8189631,55.7400016784668
705.8345881,48.5999984741211
705.8502131,39.4199981689453
705.8658381,28.3400001525879
705.8814631,16.2399997711182
705.8970881,5.01999998092651
705.9127131,-3.42000007629395
705.9283381,-8.5
705.9439631,-11.4499998092651
705.9595881,-14.3500003814697
705.9752131,-18.4699993133545
705.9908381,-23.5
706.0064631,-28.2099990844727
706.0220881,-31.4200000762939
706.0377131,-32.810001373291
706.0533381,-33.060001373291
706.0689631,-33.2099990844727
706.0845881,-33.9199981689453
706.1002131,-34.9799995422363
706.1158381,-35.5
706.1314631,-34.8499984741211
706.1470881,-33.439998626709
706.1627131,-32.3300018310547
706.1783381,-32.1199989318848
706.1939631,-32.5
706.2095881,-32.8699989318848
706.2252131,-32.8899993896484
706.2408381,-32.6100006103516
706.2564631,-32.310001373291
706.2720881,-32.3600006103516
706.2877131,-32.6699981689453
706.3033381,-32.5900001525879
706.3189631,-31.2999992370605
706.3345881,-28.4099998474121
706.3502131,-24.3299999237061
706.3658381,-19.9899997711182
706.3814631,-16.2700004577637
706.3970881,-13.0500001907349
706.4127131,-8.88000011444092
706.4283381,-1.57000005245209
706.4439631,10.2399997711182
706.4595881,25.7800006866455
706.4752131,42.1199989318848
706.4908381,55.7900009155273
706.5064631,64.6100006103516
706.5220881,68.4300003051758
706.5377131,68.4300003051758
706.5533381,65.9899978637695
706.5689631,62.189998626709
706.5845881,58.0800018310547
706.6002131,54.4500007629395
706.6158381,51.2299995422363
706.6314631,47.4099998474121
706.6470881,41.8499984741211
706.6627131,34.3300018310547
706.6783381,25.8899993896484
706.6939631,18.1399993896484
706.7095881,12.3500003814697
706.7252131,9.01000022888184
706.7408381,7.78999996185303
706.7564631,7.46000003814697
706.7720881,6.28000020980835
706.7877131,2.73000001907349
706.8033381,-3.59999990463257
706.8189631,-11.9799995422363
706.8345881,-20.7999992370605
706.8502131,-28.1299991607666
706.8658381,-32.5299987792969
706.8814631,-33.8499984741211
706.8970881,-33.3499984741211
706.9127131,-32.8400001525879
706.9283381,-33.5099983215332
706.9439631,-35.2599983215332
706.9595881,-37.0900001525879
706.9752131,-37.9900016784668
706.9908381,-37.560001373291
707.0064631,-36.1500015258789
707.0220881,-34.3499984741211
707.0377131,-32.6300010681152
707.0533381,-31.0799999237061
707.0689631,-29.5499992370605
707.0845881,-27.75
707.1002131,-25.3299999237061
707.1158381,-22.1900005340576
707.1314631,-18.7199993133545
707.1470881,-15.5600004196167
707.1627131,-13.0799999237061
707.1783381,-11.1700000762939
707.1939631,-9.35999965667725
707.2095881,-6.75
707.2252131,-2.28999996185303
707.2408381,4.57000017166138
707.2564631,13.4300003051758
707.2720881,23.1399993896484
707.2877131,32.6599998474121
707.3033381,41.4500007629395
707.3189631,49.0900001525879
707.3345881,54.8400001525879
707.3502131,57.810001373291
707.3658381,57.6399993896484
707.3814631,54.9099998474121
707.3970881,50.75
707.4127131,46.2400016784668
707.4283381,41.8400001525879
707.4439631,37.25
707.4595881,31.6900005340576
707.4752131,24.5300006866455
707.4908381,15.9700002670288
707.5064631,7.26999998092651
707.5220881,0.180000007152557
707.5377131,-4.03000020980835
707.5533381,-5.3600001335144
707.5689631,-4.82000017166138
707.5845881,-3.70000004768372
707.6002131,-2.91000008583069
707.6158381,-3.01999998092651
707.6314631,-4.40000009536743
707.6470881,-7.13000011444092
707.6627131,-10.8100004196167
707.6783381,-14.8699998855591
707.6939631,-18.7999992370605
707.7095881,-22.2999992370605
707.7252131,-24.9500007629395
707.7408381,-26.2000007629395
707.7564631,-25.8199996948242
707.7720881,-24.3600006103516
707.7877131,-22.8299999237061
707.8033381,-21.9500007629395
707.8189631,-21.8199996948242
707.8345881,-22.0799999237061
707.8502131,-22.1299991607666
707.8658381,-21.5
707.8814631,-20.1299991607666
707.8970881,-18.5200004577637
707.9127131,-17.4300003051758
707.9283381,-17.2900009155273
707.9439631,-17.9699993133545
707.9595881,-19.0400009155273
707.9752131,-20.0100002288818
707.9908381,-20.1299991607666
708.0064631,-18.1200008392334
708.0220881,-12.7799997329712
708.0377131,-3.92000007629395
708.0533381,7.34999990463257
708.0689631,19.1299991607666
708.0845881,29.5599994659424
708.1002131,37.6699981689453
708.1158381,43.439998626709
708.1314631,47.1399993896484
708.1470881,48.9099998474121
708.1627131,49.060001373291
708.1783381,48.4099998474121
708.1939631,47.9000015258789
708.2095881,47.6100006103516
708.2252131,46.439998626709
708.2408381,43.1399993896484
708.2564631,37.310001373291
708.2720881,29.25
708.2877131,19.6399993896484
708.3033381,9.52000045776367
708.3189631,0.219999998807907
708.3345881,-7.21000003814697
708.3502131,-12.4899997711182
708.3658381,-15.7200002670288
708.3814631,-17.0300006866455
708.3970881,-16.6499996185303
708.4127131,-15.1199998855591
708.4283381,-13.1599998474121
708.4439631,-11.3699998855591
708.4595881,-10.2399997711182
708.4752131,-10.1599998474121
708.4908381,-11.1300001144409
708.5064631,-12.8400001525879
708.5220881,-15.039999961853
708.5377131,-17.7600002288818
708.5533381,-21.3500003814697
708.5689631,-26.0400009155273
708.5845881,-31.3799991607666
708.6002131,-36.0800018310547
708.6158381,-38.6300010681152
708.6314631,-38.2099990844727
708.6470881,-35.1800003051758
708.6627131,-30.7000007629395
708.6783381,-26.1000003814697
708.6939631,-22.3600006103516
708.7095881,-19.8500003814697
708.7252131,-18.2399997711182
708.7408381,-16.9699993133545
708.7564631,-15.8100004196167
708.7720881,-14.9899997711182
708.7877131,-14.5100002288818
708.8033381,-13.4799995422363
708.8189631,-10.3999996185303
708.8345881,-4.1100001335144
708.8502131,5.34000015258789
708.8658381,16.6100006103516
708.8814631,27.5599994659424
708.8970881,36.0400009155273
708.9127131,40.7099990844727
708.9283381,41.4799995422363
708.9439631,39.3899993896484
708.9595881,36.0299987792969
708.9752131,32.7000007629395
708.9908381,29.8799991607666
709.0064631,27.3199996948242
709.0220881,24.6599998474121
709.0377131,21.7999992370605
709.0533381,18.7199993133545
709.0689631,15.4099998474121
709.0845881,11.9399995803833
709.1002131,8.56999969482422
709.1158381,5.30000019073486
709.1314631,1.69000005722046
709.1470881,-2.51999998092651
709.1627131,-6.96000003814697
709.1783381,-10.7799997329712
709.1939631,-13.5500001907349
709.2095881,-15.5299997329712
709.2252131,-17.2199993133545
709.2408381,-18.6399993896484
709.2564631,-19.5
709.2720881,-19.7900009155273
709.2877131,-19.7900009155273
709.3033381,-19.7999992370605
709.3189631,-20.1399993896484
709.3345881,-21.3999996185303
709.3502131,-24.0599994659424
709.3658381,-27.7999992370605
709.3814631,-31.2000007629395
709.3970881,-32.4099998474121
709.4127131,-30.3500003814697
709.4283381,-25.4400005340576
709.4439631,-19.2700004577637
709.4595881,-13.4899997711182
709.4752131,-8.97999954223633
709.4908381,-5.8600001335144
709.5064631,-3.96000003814697
709.5220881,-3.25999999046326
709.5377131,-3.60999989509583
709.5533381,-4.32999992370605
709.5689631,-4.26000022888184
709.5845881,-2.13000011444092
709.6002131,3.21000003814697
709.6158381,12.5799999237061
709.6314631,25.6800003051758
709.6470881,40.6300010681152
709.6627131,54.6199989318848
709.6783381,65.0599975585938
709.6939631,70.5999984741211
709.7095881,71.5100021362305
709.7252131,69.2799987792969
709.7408381,65.5299987792969
709.7564631,61.2799987792969
709.7720881,56.7799987792969
709.7877131,51.6300010681152
709.8033381,44.9099998474121
709.8189631,35.8699989318848
709.8345881,24.8400001525879
709.8502131,13.2700004577637
709.8658381,2.63000011444092
709.8814631,-6.55000019073486
709.8970881,-14.6400003433228
709.9127131,-22.0499992370605
709.9283381,-28.7900009155273
709.9439631,-34.5999984741211
709.9595881,-39.4599990844727
709.9752131,-44.0200004577637
709.9908381,-49.439998626709
710.0064631,-56.5900001525879
710.0220881,-65.25
710.0377131,-73.9400024414063
710.0533381,-80.5100021362305
710.0689631,-83.0800018310547
710.0845881,-80.9199981689453
710.1002131,-74.5199966430664
710.1158381,-65.3099975585938
710.1314631,-55.3600006103516
710.1470881,-46.7000007629395
710.1627131,-40.4199981689453
710.1783381,-36.2999992370605
710.1939631,-33.4300003051758
710.2095881,-30.8700008392334
710.2252131,-27.9200000762939
710.2408381,-24.3299999237061
710.2564631,-20.6399993896484
710.2720881,-17.6100006103516
710.2877131,-15.3999996185303
710.3033381,-13.2299995422363
710.3189631,-9.6899995803833
710.3345881,-3.40000009536743
710.3502131,6.15999984741211
710.3658381,18.4300003051758
710.3814631,31.9799995422363
710.3970881,44.7200012207031
710.4127131,54.3899993896484
710.4283381,59.5299987792969
710.4439631,60.3199996948242
710.4595881,58.2799987792969
710.4752131,55.1699981689453
710.4908381,52.189998626709
710.5064631,50.0099983215332
710.5220881,48.7400016784668
710.5377131,47.7700004577637
710.5533381,45.9900016784668
710.5689631,42.5
710.5845881,37.3300018310547
710.6002131,31.2700004577637
710.6158381,25.2800006866455
710.6314631,19.9400005340576
710.6470881,15.3500003814697
710.6627131,11.3100004196167
710.6783381,7.71000003814697
710.6939631,4.73000001907349
710.7095881,2.51999998092651
710.7252131,0.759999990463257
710.7408381,-1.05999994277954
710.7564631,-3.33999991416931
710.7720881,-6.07999992370605
710.7877131,-8.72999954223633
710.8033381,-10.3100004196167
710.8189631,-10.1199998855591
710.8345881,-8.60999965667725
710.8502131,-7.07000017166138
710.8658381,-6.46999979019165
710.8814631,-6.73000001907349
710.8970881,-7.15999984741211
710.9127131,-7.1399998664856
710.9283381,-6.57000017166138
710.9439631,-5.90999984741211
710.9595881,-5.82000017166138
710.9752131,-6.84000015258789
710.9908381,-9.14999961853027
711.0064631,-12.3500003814697
711.0220881,-15.3199996948242
711.0377131,-16.7800006866455
711.0533381,-16.1399993896484
711.0689631,-13.75
711.0845881,-10.2399997711182
711.1002131,-5.61999988555908
711.1158381,0.620000004768372
711.1314631,8.60999965667725
711.1470881,17.4300003051758
711.1627131,25.3999996185303
711.1783381,30.9400005340576
711.1939631,33.2200012207031
711.2095881,32.4599990844727
711.2252131,29.8600006103516
711.2408381,27.2800006866455
711.2564631,26.1700000762939
711.2720881,26.5100002288818
711.2877131,26.9500007629395
711.3033381,26.2299995422363
711.3189631,24.0900001525879
711.3345881,20.7900009155273
711.3502131,16.4099998474121
711.3658381,11.0900001525879
711.3814631,5.46000003814697
711.3970881,0.419999986886978
711.4127131,-3.35999989509583
711.4283381,-5.76000022888184
711.4439631,-7.05000019073486
711.4595881,-8.13000011444092
711.4752131,-10.3100004196167
711.4908381,-14.3900003433228
711.5064631,-19.8500003814697
711.5220881,-24.8899993896484
711.5377131,-27.6399993896484
711.5533381,-27.6200008392334
711.5689631,-26.1700000762939
711.5845881,-25.3799991607666
711.6002131,-26.5100002288818
711.6158381,-29.3799991607666
711.6314631,-33.0999984741211
711.6470881,-36.9900016784668
711.6627131,-40.3300018310547
711.6783381,-41.6599998474121
711.6939631,-38.7700004577637
711.7095881,-30.1200008392334
711.7252131,-16.5
711.7408381,-1.19000005722046
711.7564631,11.4300003051758
711.7720881,18.0799999237061
711.7877131,18.0100002288818
711.8033381,13.1400003433228
711.8189631,6.69999980926514
711.8345881,1.75
711.8502131,0.270000010728836
711.8658381,2.54999995231628
711.8814631,7.15000009536743
711.8970881,11.7700004577637
711.9127131,14.6199998855591
711.9283381,15.2799997329712
711.9439631,14.5
711.9595881,13.3599996566772
711.9752131,12.4899997711182
711.9908381,11.8400001525879
712.0064631,10.9300003051758
712.0220881,9.47999954223633
712.0377131,7.82999992370605
712.0533381,6.75
712.0689631,6.59999990463257
712.0845881,6.84000015258789
712.1002131,6.42999982833862
712.1158381,4.5
712.1314631,1.0900000333786
712.1470881,-2.8199999332428
712.1627131,-6.19999980926514
712.1783381,-8.75
712.1939631,-11.1099996566772
712.2095881,-14.0900001525879
712.2252131,-18.0400009155273
712.2408381,-22.6900005340576
712.2564631,-27.6000003814697
712.2720881,-32.310001373291
712.2877131,-36.2700004577637
712.3033381,-38.4700012207031
712.3189631,-37.6199989318848
712.3345881,-33.0400009155273
712.3502131,-25.5799999237061
712.3658381,-17.5799999237061
712.3814631,-11.7200002670288
712.3970881,-9.72999954223633
712.4127131,-11.6700000762939
712.4283381,-16.2399997711182
712.4439631,-21.7399997711182
712.4595881,-26.7999992370605
712.4752131,-30.4300003051758
712.4908381,-31.8400001525879
712.5064631,-30.2800006866455
712.5220881,-25.2600002288818
712.5377131,-16.75
712.5533381,-5.40999984741211
712.5689631,7.42999982833862
712.5845881,20.1100006103516
712.6002131,31.0
712.6158381,38.8699989318848
712.6314631,43.1300010681152
712.6470881,43.8699989318848
712.6627131,41.8400001525879
712.6783381,38.3300018310547
712.6939631,34.8699989318848
712.7095881,32.7799987792969
712.7252131,32.7299995422363
712.7408381,34.4300003051758
712.7564631,36.7999992370605
712.7720881,38.5699996948242
712.7877131,38.7099990844727
712.8033381,36.2299995422363
712.8189631,30.2000007629395
712.8345881,20.4599990844727
712.8502131,8.17000007629395
712.8658381,-4.32999992370605
712.8814631,-14.4399995803833
712.8970881,-20.4699993133545
712.9127131,-22.6599998474121
712.9283381,-22.6399993896484
712.9439631,-22.0499992370605
712.9595881,-21.5799999237061
712.9752131,-21.2600002288818
712.9908381,-21.0400009155273
713.0064631,-20.9699993133545
713.0220881,-20.8600006103516
713.0377131,-19.9400005340576
713.0533381,-17.1499996185303
713.0689631,-12.3400001525879
713.0845881,-6.90999984741211
713.1002131,-2.97000002861023
713.1158381,-1.91999995708466
713.1314631,-3.63000011444092
713.1470881,-6.6100001335144
713.1627131,-9.05000019073486
713.1783381,-9.9399995803833
713.1939631,-9.36999988555908
713.2095881,-8.19999980926514
713.2252131,-7.46000003814697
713.2408381,-7.55999994277954
713.2564631,-7.76999998092651
713.2720881,-6.48999977111816
713.2877131,-2.09999990463257
713.3033381,5.98000001907349
713.3189631,17.0
713.3345881,29.1000003814697
713.3502131,39.9700012207031
713.3658381,47.6199989318848
713.3814631,51.1699981689453
713.3970881,51.1300010681152
713.4127131,48.9300003051758
713.4283381,45.9799995422363
713.4439631,43.1399993896484
713.4595881,40.8300018310547
713.4752131,39.2799987792969
713.4908381,38.3600006103516
713.5064631,37.3600006103516
713.5220881,35.2700004577637
713.5377131,31.3199996948242
713.5533381,25.4599990844727
713.5689631,18.2000007629395
713.5845881,10.1599998474121
713.6002131,2.08999991416931
713.6158381,-5.0
713.6314631,-10.0500001907349
713.6470881,-12.5799999237061
713.6627131,-13.2299995422363
713.6783381,-13.5200004577637
713.6939631,-14.9099998474121
713.7095881,-17.7600002288818
713.7252131,-21.2900009155273
713.7408381,-24.7600002288818
713.7564631,-28.2199993133545
713.7720881,-31.6000003814697
713.7877131,-34.1599998474121
713.8033381,-35.2900009155273
713.8189631,-35.5
713.8345881,-36.1300010681152
713.8502131,-38.2599983215332
713.8658381,-41.7599983215332
713.8814631,-45.1699981689453
713.8970881,-46.6800003051758
713.9127131,-45.6100006103516
713.9283381,-43.2799987792969
713.9439631,-42.1599998474121
713.9595881,-43.4700012207031
713.9752131,-45.4700012207031
713.9908381,-44.5800018310547
714.0064631,-38.060001373291
714.0220881,-25.8999996185303
714.0377131,-10.4300003051758
714.0533381,5.34000015258789
714.0689631,19.25
714.0845881,30.2399997711182
714.1002131,38.1100006103516
714.1158381,43.1800003051758
714.1314631,46.1199989318848
714.1470881,47.6199989318848
714.1627131,48.189998626709
714.1783381,48.4799995422363
714.1939631,49.2200012207031
714.2095881,50.439998626709
714.2252131,50.9799995422363
714.2408381,49.2000007629395
714.2564631,44.0999984741211
714.2720881,36.0299987792969
714.2877131,26.4300003051758
714.3033381,16.9699993133545
714.3189631,8.71000003814697
714.3345881,1.86000001430511
714.3502131,-3.92000007629395
714.3658381,-9.01000022888184
714.3814631,-13.1899995803833
714.3970881,-15.4700002670288
714.4127131,-15.0200004577637
714.4283381,-12.5
714.4439631,-10.2600002288818
714.4595881,-11.0
714.4752131,-15.8800001144409
714.4908381,-23.4899997711182
714.5064631,-30.7600002288818
714.5220881,-35.2000007629395
714.5377131,-36.310001373291
714.5533381,-35.2999992370605
714.5689631,-33.7400016784668
714.5845881,-32.8199996948242
714.6002131,-33.0699996948242
714.6158381,-34.2400016784668
714.6314631,-35.3300018310547
714.6470881,-35.0699996948242
714.6627131,-32.5900001525879
714.6783381,-27.8799991607666
714.6939631,-21.6800003051758
714.7095881,-15.0100002288818
714.7252131,-8.47000026702881
