Time(s),Value(μS)
0.0436222,0.386999994516373
0.0592472,0.388000011444092
0.0748722,0.386999994516373
0.0904972,0.386999994516373
0.1061222,0.386000007390976
0.1217472,0.384999990463257
0.1373722,0.38400000333786
0.1529972,0.382999986410141
0.1686222,0.381000012159348
0.1842472,0.379999995231628
0.1998722,0.377000004053116
0.2154972,0.375
0.2311222,0.370999991893768
0.2467472,0.365000009536743
0.2623722,0.35699999332428
0.2779972,0.347000002861023
0.2936222,0.335999995470047
0.3092472,0.324000000953674
0.3248722,0.312999993562698
0.3404972,0.303000003099442
0.3561222,0.293000012636185
0.3717472,0.282000005245209
0.3873722,0.270000010728836
0.4029972,0.257999986410141
0.4186222,0.246999993920326
0.4342472,0.239999994635582
0.4498722,0.236000001430511
0.4654972,0.237000003457069
0.4811222,0.241999998688698
0.4967472,0.246999993920326
0.5123722,0.254000008106232
0.5279972,0.25900000333786
0.5436222,0.263999998569489
0.5592472,0.26800000667572
0.5748722,0.270999997854233
0.5904972,0.273999989032745
0.6061222,0.275999993085861
0.6217472,0.277999997138977
0.6373722,0.279000014066696
0.6529972,0.28099998831749
0.6686222,0.282000005245209
0.6842472,0.282999992370605
0.6998722,0.284999996423721
0.7154972,0.287000000476837
0.7311222,0.289000004529953
0.7467472,0.291000008583069
0.7623722,0.293000012636185
0.7779972,0.293999999761581
0.7936222,0.294999986886978
0.8092472,0.296000003814697
0.8248722,0.298000007867813
0.8404972,0.29899999499321
0.8561222,0.300000011920929
0.8717472,0.300999999046326
0.8873722,0.301999986171722
0.9029972,0.301999986171722
0.9186222,0.303000003099442
0.9342472,0.303999990224838
0.9498722,0.303999990224838
0.9654972,0.303999990224838
0.9811222,0.303999990224838
0.9967472,0.303999990224838
1.0123722,0.303999990224838
1.0279972,0.303999990224838
1.0436222,0.305000007152557
1.0592472,0.305999994277954
1.0748722,0.305999994277954
1.0904972,0.305999994277954
1.1061222,0.305000007152557
1.1217472,0.303000003099442
1.1373722,0.300999999046326
1.1529972,0.298000007867813
1.1686222,0.294999986886978
1.1842472,0.291999995708466
1.1998722,0.289000004529953
1.2154972,0.28600001335144
1.2311222,0.282999992370605
1.2467472,0.280000001192093
1.2623722,0.277999997138977
1.2779972,0.275999993085861
1.2936222,0.273999989032745
1.3092472,0.273000001907349
1.3248722,0.270999997854233
1.3404972,0.268999993801117
1.3561222,0.266999989748001
1.3717472,0.266000002622604
1.3873722,0.263999998569489
1.4029972,0.263000011444092
1.4186222,0.263000011444092
1.4342472,0.261999994516373
1.4498722,0.261999994516373
1.4654972,0.261999994516373
1.4811222,0.261000007390976
1.4967472,0.261000007390976
1.5123722,0.261999994516373
1.5279972,0.261999994516373
1.5436222,0.263000011444092
1.5592472,0.263000011444092
1.5748722,0.263999998569489
1.5904972,0.266000002622604
1.6061222,0.266999989748001
1.6217472,0.268999993801117
1.6373722,0.270000010728836
1.6529972,0.272000014781952
1.6686222,0.273999989032745
1.6842472,0.275999993085861
1.6998722,0.27700001001358
1.7154972,0.279000014066696
1.7311222,0.279000014066696
1.7467472,0.280000001192093
1.7623722,0.280000001192093
1.7779972,0.279000014066696
1.7936222,0.279000014066696
1.8092472,0.277999997138977
1.8248722,0.277999997138977
1.8404972,0.27700001001358
1.8561222,0.275999993085861
1.8717472,0.275999993085861
1.8873722,0.275000005960464
1.9029972,0.275000005960464
1.9186222,0.275000005960464
1.9342472,0.275000005960464
1.9498722,0.275000005960464
1.9654972,0.275000005960464
1.9811222,0.275000005960464
1.9967472,0.275000005960464
2.0123722,0.275999993085861
2.0279972,0.275999993085861
2.0436222,0.27700001001358
2.0592472,0.277999997138977
2.0748722,0.279000014066696
2.0904972,0.28099998831749
2.1061222,0.282000005245209
2.1217472,0.282999992370605
2.1373722,0.284000009298325
2.1529972,0.28600001335144
2.1686222,0.287000000476837
2.1842472,0.287000000476837
2.1998722,0.287999987602234
2.2154972,0.289000004529953
2.2311222,0.28999999165535
2.2467472,0.291000008583069
2.2623722,0.291999995708466
2.2779972,0.293000012636185
2.2936222,0.293000012636185
2.3092472,0.293999999761581
2.3248722,0.293999999761581
2.3404972,0.294999986886978
2.3561222,0.294999986886978
2.3717472,0.293999999761581
2.3873722,0.289000004529953
2.4029972,0.280000001192093
2.4186222,0.266999989748001
2.4342472,0.250999987125397
2.4498722,0.234999999403954
2.4654972,0.221000000834465
2.4811222,0.211999997496605
2.4967472,0.207000002264977
2.5123722,0.204999998211861
2.5279972,0.206000000238419
2.5436222,0.208000004291534
2.5592472,0.209999993443489
2.5748722,0.212999999523163
2.5904972,0.214000001549721
2.6061222,0.210999995470047
2.6217472,0.204999998211861
2.6373722,0.195999994874001
2.6529972,0.185000002384186
2.6686222,0.172999992966652
2.6842472,0.162000000476837
2.6998722,0.152999997138977
2.7154972,0.144999995827675
2.7311222,0.136999994516373
2.7467472,0.129999995231628
2.7623722,0.123000003397465
2.7779972,0.115000002086163
2.7936222,0.10700000077486
2.8092472,0.0979999974370003
2.8248722,0.0900000035762787
2.8404972,0.0820000022649765
2.8561222,0.0759999975562096
2.8717472,0.0719999969005585
2.8873722,0.0689999982714653
2.9029972,0.0689999982714653
2.9186222,0.0700000002980232
2.9342472,0.0729999989271164
2.9498722,0.0759999975562096
2.9654972,0.0780000016093254
2.9811222,0.0799999982118607
2.9967472,0.0799999982118607
3.0123722,0.0790000036358833
3.0279972,0.0780000016093254
3.0436222,0.0750000029802322
3.0592472,0.0710000023245811
3.0748722,0.0659999996423721
3.0904972,0.0610000006854534
3.1061222,0.0549999997019768
3.1217472,0.0500000007450581
3.1373722,0.0450000017881393
3.1529972,0.0399999991059303
3.1686222,0.0359999984502792
3.1842472,0.034000001847744
3.1998722,0.034000001847744
3.2154972,0.0359999984502792
3.2311222,0.0379999987781048
3.2467472,0.0410000011324883
3.2623722,0.0439999997615814
3.2779972,0.0480000004172325
3.2936222,0.0540000014007092
3.3092472,0.0599999986588955
3.3248722,0.068000003695488
3.3404972,0.0769999995827675
3.3561222,0.0850000008940697
3.3717472,0.0920000001788139
3.3873722,0.0989999994635582
3.4029972,0.104999996721745
3.4186222,0.111000001430511
3.4342472,0.11599999666214
3.4498722,0.119999997317791
3.4654972,0.123999997973442
3.4811222,0.128000006079674
3.4967472,0.133000001311302
3.5123722,0.136999994516373
3.5279972,0.142000004649162
3.5436222,0.146999999880791
3.5592472,0.151999995112419
3.5748722,0.157000005245209
3.5904972,0.160999998450279
3.6061222,0.165000006556511
3.6217472,0.168999999761581
3.6373722,0.172999992966652
3.6529972,0.177000001072884
3.6686222,0.180999994277954
3.6842472,0.186000004410744
3.6998722,0.19200000166893
3.7154972,0.199000000953674
3.7311222,0.207000002264977
3.7467472,0.216000005602837
3.7623722,0.224999994039536
3.7779972,0.233999997377396
3.7936222,0.241999998688698
3.8092472,0.248999997973442
3.8248722,0.256000012159348
3.8404972,0.261999994516373
3.8561222,0.266999989748001
3.8717472,0.272000014781952
3.8873722,0.275999993085861
3.9029972,0.280000001192093
3.9186222,0.284000009298325
3.9342472,0.287000000476837
3.9498722,0.28999999165535
3.9654972,0.293000012636185
3.9811222,0.294999986886978
3.9967472,0.296999990940094
4.0123722,0.29899999499321
4.0279972,0.300000011920929
4.0436222,0.300999999046326
4.0592472,0.303000003099442
4.0748722,0.303999990224838
4.0904972,0.305000007152557
4.1061222,0.305999994277954
4.1217472,0.30799999833107
4.1373722,0.310000002384186
4.1529972,0.312999993562698
4.1686222,0.316000014543533
4.1842472,0.317999988794327
4.1998722,0.321000009775162
4.2154972,0.323000013828278
4.2311222,0.324999988079071
4.2467472,0.32600000500679
4.2623722,0.326999992132187
4.2779972,0.328000009059906
4.2936222,0.328999996185303
4.3092472,0.330000013113022
4.3248722,0.330000013113022
4.3404972,0.328999996185303
4.3561222,0.328000009059906
4.3717472,0.32600000500679
4.3873722,0.324000000953674
4.4029972,0.321999996900558
4.4186222,0.319999992847443
4.4342472,0.319000005722046
4.4498722,0.317999988794327
4.4654972,0.31700000166893
4.4811222,0.31700000166893
4.4967472,0.31700000166893
4.5123722,0.31700000166893
4.5279972,0.31700000166893
4.5436222,0.31700000166893
4.5592472,0.31700000166893
4.5748722,0.31700000166893
4.5904972,0.316000014543533
4.6061222,0.316000014543533
4.6217472,0.314999997615814
4.6373722,0.314999997615814
4.6529972,0.314999997615814
4.6686222,0.314999997615814
4.6842472,0.314999997615814
4.6998722,0.314999997615814
4.7154972,0.314999997615814
4.7311222,0.314999997615814
4.7467472,0.314999997615814
4.7623722,0.314999997615814
4.7779972,0.314999997615814
4.7936222,0.314000010490417
4.8092472,0.314000010490417
4.8248722,0.314000010490417
4.8404972,0.314000010490417
4.8561222,0.314000010490417
4.8717472,0.314000010490417
4.8873722,0.314000010490417
4.9029972,0.314000010490417
4.9186222,0.314000010490417
4.9342472,0.314000010490417
4.9498722,0.314000010490417
4.9654972,0.314000010490417
4.9811222,0.314000010490417
4.9967472,0.314000010490417
5.0123722,0.314999997615814
5.0279972,0.314999997615814
5.0436222,0.314999997615814
5.0592472,0.314999997615814
5.0748722,0.314999997615814
5.0904972,0.314999997615814
5.1061222,0.314999997615814
5.1217472,0.314999997615814
5.1373722,0.314999997615814
5.1529972,0.314000010490417
5.1686222,0.314000010490417
5.1842472,0.312999993562698
5.1998722,0.312000006437302
5.2154972,0.312000006437302
5.2311222,0.310999989509583
5.2467472,0.310000002384186
5.2623722,0.310000002384186
5.2779972,0.310000002384186
5.2936222,0.308999985456467
5.3092472,0.308999985456467
5.3248722,0.308999985456467
5.3404972,0.308999985456467
5.3561222,0.308999985456467
5.3717472,0.308999985456467
5.3873722,0.308999985456467
5.4029972,0.308999985456467
5.4186222,0.308999985456467
5.4342472,0.308999985456467
5.4498722,0.308999985456467
5.4654972,0.308999985456467
5.4811222,0.308999985456467
5.4967472,0.308999985456467
5.5123722,0.310000002384186
5.5279972,0.310000002384186
5.5436222,0.310999989509583
5.5592472,0.312000006437302
5.5748722,0.314000010490417
5.5904972,0.316000014543533
5.6061222,0.319000005722046
5.6217472,0.321999996900558
5.6373722,0.32600000500679
5.6529972,0.328999996185303
5.6686222,0.333000004291534
5.6842472,0.335999995470047
5.6998722,0.33899998664856
5.7154972,0.340999990701675
5.7311222,0.342999994754791
5.7467472,0.34400001168251
5.7623722,0.344999998807907
5.7779972,0.345999985933304
5.7936222,0.347000002861023
5.8092472,0.34799998998642
5.8248722,0.34799998998642
5.8404972,0.349000006914139
5.8561222,0.349999994039536
5.8717472,0.349999994039536
5.8873722,0.351000010967255
5.9029972,0.351999998092651
5.9186222,0.351999998092651
5.9342472,0.352999985218048
5.9498722,0.352999985218048
5.9654972,0.354000002145767
5.9811222,0.354000002145767
5.9967472,0.354000002145767
6.0123722,0.354000002145767
6.0279972,0.354000002145767
6.0436222,0.354999989271164
6.0592472,0.354999989271164
6.0748722,0.354999989271164
6.0904972,0.354999989271164
6.1061222,0.354999989271164
6.1217472,0.354999989271164
6.1373722,0.354999989271164
6.1529972,0.354999989271164
6.1686222,0.354999989271164
6.1842472,0.354999989271164
6.1998722,0.354999989271164
6.2154972,0.354999989271164
6.2311222,0.354999989271164
6.2467472,0.354999989271164
6.2623722,0.354999989271164
6.2779972,0.354999989271164
6.2936222,0.354999989271164
6.3092472,0.354999989271164
6.3248722,0.354999989271164
6.3404972,0.354999989271164
6.3561222,0.354999989271164
6.3717472,0.354999989271164
6.3873722,0.354999989271164
6.4029972,0.354999989271164
6.4186222,0.354999989271164
6.4342472,0.356000006198883
6.4498722,0.356000006198883
6.4654972,0.356000006198883
6.4811222,0.356000006198883
6.4967472,0.356000006198883
6.5123722,0.356000006198883
6.5279972,0.356000006198883
6.5436222,0.356000006198883
6.5592472,0.356000006198883
6.5748722,0.35699999332428
6.5904972,0.35699999332428
6.6061222,0.35699999332428
6.6217472,0.35699999332428
6.6373722,0.35699999332428
6.6529972,0.35699999332428
6.6686222,0.35699999332428
6.6842472,0.35699999332428
6.6998722,0.35699999332428
6.7154972,0.358000010251999
6.7311222,0.358000010251999
6.7467472,0.358000010251999
6.7623722,0.358000010251999
6.7779972,0.358000010251999
6.7936222,0.358999997377396
6.8092472,0.358999997377396
6.8248722,0.360000014305115
6.8404972,0.361000001430511
6.8561222,0.361000001430511
6.8717472,0.361999988555908
6.8873722,0.363000005483627
6.9029972,0.363000005483627
6.9186222,0.363000005483627
6.9342472,0.363999992609024
6.9498722,0.363999992609024
6.9654972,0.363999992609024
6.9811222,0.365000009536743
6.9967472,0.365000009536743
7.0123722,0.365000009536743
7.0279972,0.365000009536743
7.0436222,0.365000009536743
7.0592472,0.365000009536743
7.0748722,0.36599999666214
7.0904972,0.36599999666214
7.1061222,0.36599999666214
7.1217472,0.367000013589859
7.1373722,0.367000013589859
7.1529972,0.367000013589859
7.1686222,0.368000000715256
7.1842472,0.368000000715256
7.1998722,0.368999987840652
7.2154972,0.368999987840652
7.2311222,0.368999987840652
7.2467472,0.370000004768372
7.2623722,0.370000004768372
7.2779972,0.370000004768372
7.2936222,0.370000004768372
7.3092472,0.370000004768372
7.3248722,0.370000004768372
7.3404972,0.370999991893768
7.3561222,0.370999991893768
7.3717472,0.370999991893768
7.3873722,0.370999991893768
7.4029972,0.370999991893768
7.4186222,0.370999991893768
7.4342472,0.372000008821487
7.4498722,0.372000008821487
7.4654972,0.372000008821487
7.4811222,0.372000008821487
7.4967472,0.372999995946884
7.5123722,0.372999995946884
7.5279972,0.372999995946884
7.5436222,0.372999995946884
7.5592472,0.372999995946884
7.5748722,0.374000012874603
7.5904972,0.374000012874603
7.6061222,0.374000012874603
7.6217472,0.374000012874603
7.6373722,0.374000012874603
7.6529972,0.374000012874603
7.6686222,0.375
7.6842472,0.375
7.6998722,0.375
7.7154972,0.375
7.7311222,0.375
7.7467472,0.375
7.7623722,0.375
7.7779972,0.375999987125397
7.7936222,0.375999987125397
7.8092472,0.375999987125397
7.8248722,0.375999987125397
7.8404972,0.375999987125397
7.8561222,0.375999987125397
7.8717472,0.375999987125397
7.8873722,0.377000004053116
7.9029972,0.377000004053116
7.9186222,0.377999991178513
7.9342472,0.379000008106232
7.9498722,0.379999995231628
7.9654972,0.381000012159348
7.9811222,0.381999999284744
7.9967472,0.382999986410141
8.0123722,0.38400000333786
8.0279972,0.38400000333786
8.0436222,0.384999990463257
8.0592472,0.384999990463257
8.0748722,0.386000007390976
8.0904972,0.386000007390976
8.1061222,0.386000007390976
8.1217472,0.386000007390976
8.1373722,0.386999994516373
8.1529972,0.386999994516373
8.1686222,0.386999994516373
8.1842472,0.386999994516373
8.1998722,0.386999994516373
8.2154972,0.386999994516373
8.2311222,0.386999994516373
8.2467472,0.388000011444092
8.2623722,0.388000011444092
8.2779972,0.388000011444092
8.2936222,0.388000011444092
8.3092472,0.388000011444092
8.3248722,0.388000011444092
8.3404972,0.388000011444092
8.3561222,0.388000011444092
8.3717472,0.388000011444092
8.3873722,0.388999998569489
8.4029972,0.388999998569489
8.4186222,0.388999998569489
8.4342472,0.388999998569489
8.4498722,0.388999998569489
8.4654972,0.388999998569489
8.4811222,0.388999998569489
8.4967472,0.388999998569489
8.5123722,0.388999998569489
8.5279972,0.388999998569489
8.5436222,0.388999998569489
8.5592472,0.388999998569489
8.5748722,0.389999985694885
8.5904972,0.389999985694885
8.6061222,0.389999985694885
8.6217472,0.389999985694885
8.6373722,0.389999985694885
8.6529972,0.389999985694885
8.6686222,0.389999985694885
8.6842472,0.389999985694885
8.6998722,0.389999985694885
8.7154972,0.389999985694885
8.7311222,0.389999985694885
8.7467472,0.389999985694885
8.7623722,0.389999985694885
8.7779972,0.389999985694885
8.7936222,0.389999985694885
8.8092472,0.389999985694885
8.8248722,0.389999985694885
8.8404972,0.389999985694885
8.8561222,0.389999985694885
8.8717472,0.389999985694885
8.8873722,0.389999985694885
8.9029972,0.389999985694885
8.9186222,0.388999998569489
8.9342472,0.388999998569489
8.9498722,0.388000011444092
8.9654972,0.388000011444092
8.9811222,0.386999994516373
8.9967472,0.386999994516373
9.0123722,0.386000007390976
9.0279972,0.384999990463257
9.0436222,0.382999986410141
9.0592472,0.381999999284744
9.0748722,0.381000012159348
9.0904972,0.379999995231628
9.1061222,0.379000008106232
9.1217472,0.379000008106232
9.1373722,0.379000008106232
9.1529972,0.379000008106232
9.1686222,0.379000008106232
9.1842472,0.379000008106232
9.1998722,0.379000008106232
9.2154972,0.379999995231628
9.2311222,0.379999995231628
9.2467472,0.381000012159348
9.2623722,0.381000012159348
9.2779972,0.381999999284744
9.2936222,0.382999986410141
9.3092472,0.382999986410141
9.3248722,0.38400000333786
9.3404972,0.38400000333786
9.3561222,0.384999990463257
9.3717472,0.386000007390976
9.3873722,0.386000007390976
9.4029972,0.386000007390976
9.4186222,0.386999994516373
9.4342472,0.386999994516373
9.4498722,0.386999994516373
9.4654972,0.388000011444092
9.4811222,0.388000011444092
9.4967472,0.388000011444092
9.5123722,0.388000011444092
9.5279972,0.388000011444092
9.5436222,0.388000011444092
9.5592472,0.388999998569489
9.5748722,0.388999998569489
9.5904972,0.388999998569489
9.6061222,0.388999998569489
9.6217472,0.388999998569489
9.6373722,0.389999985694885
9.6529972,0.389999985694885
9.6686222,0.389999985694885
9.6842472,0.389999985694885
9.6998722,0.391000002622604
9.7154972,0.391000002622604
9.7311222,0.391000002622604
9.7467472,0.391000002622604
9.7623722,0.391000002622604
9.7779972,0.391000002622604
9.7936222,0.391000002622604
9.8092472,0.391000002622604
9.8248722,0.391000002622604
9.8404972,0.391000002622604
9.8561222,0.391000002622604
9.8717472,0.389999985694885
9.8873722,0.388999998569489
9.9029972,0.388000011444092
9.9186222,0.386000007390976
9.9342472,0.38400000333786
9.9498722,0.382999986410141
9.9654972,0.381000012159348
9.9811222,0.379000008106232
9.9967472,0.377999991178513
10.0123722,0.377999991178513
10.0279972,0.377000004053116
10.0436222,0.377000004053116
10.0592472,0.377999991178513
10.0748722,0.379000008106232
10.0904972,0.379999995231628
10.1061222,0.381000012159348
10.1217472,0.381999999284744
10.1373722,0.382999986410141
10.1529972,0.38400000333786
10.1686222,0.384999990463257
10.1842472,0.386000007390976
10.1998722,0.386999994516373
10.2154972,0.388000011444092
10.2311222,0.388000011444092
10.2467472,0.388999998569489
10.2623722,0.389999985694885
10.2779972,0.389999985694885
10.2936222,0.391000002622604
10.3092472,0.391000002622604
10.3248722,0.391999989748001
10.3404972,0.391999989748001
10.3561222,0.391999989748001
10.3717472,0.391999989748001
10.3873722,0.391999989748001
10.4029972,0.391999989748001
10.4186222,0.391999989748001
10.4342472,0.391999989748001
10.4498722,0.391999989748001
10.4654972,0.391999989748001
10.4811222,0.391999989748001
10.4967472,0.391999989748001
10.5123722,0.391999989748001
10.5279972,0.391999989748001
10.5436222,0.391999989748001
10.5592472,0.391999989748001
10.5748722,0.391999989748001
10.5904972,0.391999989748001
10.6061222,0.391999989748001
10.6217472,0.391999989748001
10.6373722,0.39300000667572
10.6529972,0.39300000667572
10.6686222,0.39300000667572
10.6842472,0.39300000667572
10.6998722,0.39300000667572
10.7154972,0.39300000667572
10.7311222,0.39300000667572
10.7467472,0.39300000667572
10.7623722,0.39300000667572
10.7779972,0.39300000667572
10.7936222,0.393999993801117
10.8092472,0.393999993801117
10.8248722,0.393999993801117
10.8404972,0.393999993801117
10.8561222,0.393999993801117
10.8717472,0.393999993801117
10.8873722,0.393999993801117
10.9029972,0.393999993801117
10.9186222,0.393999993801117
10.9342472,0.393999993801117
10.9498722,0.393999993801117
10.9654972,0.393999993801117
10.9811222,0.395000010728836
10.9967472,0.395000010728836
11.0123722,0.395000010728836
11.0279972,0.395000010728836
11.0436222,0.395000010728836
11.0592472,0.395000010728836
11.0748722,0.395000010728836
11.0904972,0.395000010728836
11.1061222,0.395000010728836
11.1217472,0.395000010728836
11.1373722,0.393999993801117
11.1529972,0.393999993801117
11.1686222,0.393999993801117
11.1842472,0.39300000667572
11.1998722,0.391999989748001
