Time(s),Value(%)
0.0436222,-327.679992675781
0.0592472,-327.679992675781
0.0748722,-327.679992675781
0.0904972,-327.679992675781
0.1061222,-327.679992675781
0.1217472,-327.679992675781
0.1373722,-327.679992675781
0.1529972,-327.679992675781
0.1686222,-181.070007324219
0.1842472,-36.6199989318848
0.1998722,94.0199966430664
0.2154972,218.369995117188
0.2311222,327.670013427734
0.2467472,327.670013427734
0.2623722,327.670013427734
0.2779972,327.670013427734
0.2936222,327.670013427734
0.3092472,327.670013427734
0.3248722,327.670013427734
0.3404972,327.670013427734
0.3561222,327.670013427734
0.3717472,327.670013427734
0.3873722,327.670013427734
0.4029972,327.670013427734
0.4186222,327.670013427734
0.4342472,327.670013427734
0.4498722,327.670013427734
0.4654972,327.670013427734
0.4811222,327.670013427734
0.4967472,327.670013427734
0.5123722,327.670013427734
0.5279972,327.670013427734
0.5436222,327.670013427734
0.5592472,327.670013427734
0.5748722,327.670013427734
0.5904972,327.670013427734
0.6061222,327.670013427734
0.6217472,327.670013427734
0.6373722,327.670013427734
0.6529972,327.670013427734
0.6686222,327.670013427734
0.6842472,327.670013427734
0.6998722,327.670013427734
0.7154972,327.670013427734
0.7311222,327.670013427734
0.7467472,327.670013427734
0.7623722,322.549987792969
0.7779972,290.910003662109
0.7936222,252.380004882813
0.8092472,210.690002441406
0.8248722,169.330001831055
0.8404972,130.729995727539
0.8561222,96.379997253418
0.8717472,67.379997253418
0.8873722,44.2400016784668
0.9029972,26.3799991607666
0.9186222,12.3199996948242
0.9342472,0.319999992847443
0.9498722,-10.8599996566772
0.9654972,-21.7900009155273
0.9811222,-32.1500015258789
0.9967472,-41.0299987792969
1.0123722,-47.7299995422363
1.0279972,-52.5200004577637
1.0436222,-56.5400009155273
1.0592472,-61.0999984741211
1.0748722,-66.9199981689453
1.0904972,-73.9499969482422
1.1061222,-81.5800018310547
1.1217472,-89.2699966430664
1.1373722,-97.4400024414063
1.1529972,-107.690002441406
1.1686222,-121.76000213623
1.1842472,-140.050003051758
1.1998722,-161.410003662109
1.2154972,-184.050003051758
1.2311222,-206.350006103516
1.2467472,-227.089996337891
1.2623722,-244.779998779297
1.2779972,-257.230010986328
1.2936222,-262.670013427734
1.3092472,-261.109985351563
1.3248722,-254.419998168945
1.3404972,-245.070007324219
1.3561222,-235.089996337891
1.3717472,-225.539993286133
1.3873722,-216.75
1.4029972,-208.660003662109
1.4186222,-201.639999389648
1.4342472,-196.720001220703
1.4498722,-194.990005493164
1.4654972,-196.75
1.4811222,-201.529998779297
1.4967472,-208.830001831055
1.5123722,-218.259994506836
1.5279972,-229.070007324219
1.5436222,-239.639999389648
1.5592472,-247.779998779297
1.5748722,-251.979995727539
1.5904972,-252.580001831055
1.6061222,-250.990005493164
1.6217472,-248.190002441406
1.6373722,-244.199996948242
1.6529972,-238.690002441406
1.6686222,-231.690002441406
1.6842472,-223.600006103516
1.6998722,-214.800003051758
1.7154972,-205.330001831055
1.7311222,-194.970001220703
1.7467472,-183.720001220703
1.7623722,-172.009994506836
1.7779972,-160.699996948242
1.7936222,-150.559997558594
1.8092472,-141.860000610352
1.8248722,-134.190002441406
1.8404972,-126.580001831055
1.8561222,-117.75
1.8717472,-106.51000213623
1.8873722,-92.1600036621094
1.9029972,-74.8300018310547
1.9186222,-55.4700012207031
1.9342472,-35.4500007629395
1.9498722,-16.0300006866455
1.9654972,1.88999998569489
1.9811222,17.6599998474121
1.9967472,30.5
2.0123722,39.8899993896484
2.0279972,45.8899993896484
2.0436222,48.7400016784668
2.0592472,48.3600006103516
2.0748722,44.5
2.0904972,37.5299987792969
2.1061222,28.6200008392334
2.1217472,19.2399997711182
2.1373722,10.3699998855591
2.1529972,2.1800000667572
2.1686222,-5.21000003814697
2.1842472,-11.0200004577637
2.1998722,-14.0100002288818
2.2154972,-13.6300001144409
2.2311222,-10.4799995422363
2.2467472,-5.82999992370605
2.2623722,-0.939999997615814
2.2779972,3.54999995231628
2.2936222,7.61999988555908
2.3092472,11.5299997329712
2.3248722,15.4799995422363
2.3404972,19.4599990844727
2.3561222,23.3400001525879
2.3717472,26.9899997711182
2.3873722,30.5300006866455
2.4029972,34.5
2.4186222,40.0200004577637
2.4342472,48.6100006103516
2.4498722,61.2999992370605
2.4654972,77.9499969482422
2.4811222,97.6699981689453
2.4967472,119.790000915527
2.5123722,143.979995727539
2.5279972,169.479995727539
2.5436222,194.470001220703
2.5592472,216.479995727539
2.5748722,234.220001220703
2.5904972,249.0
2.6061222,263.200012207031
2.6217472,277.799987792969
2.6373722,291.700012207031
2.6529972,303.220001220703
2.6686222,311.390014648438
2.6842472,318.059997558594
2.6998722,325.679992675781
2.7154972,327.670013427734
2.7311222,327.670013427734
2.7467472,327.670013427734
2.7623722,327.670013427734
2.7779972,327.670013427734
2.7936222,327.670013427734
2.8092472,327.670013427734
2.8248722,327.670013427734
2.8404972,327.670013427734
2.8561222,327.670013427734
2.8717472,327.670013427734
2.8873722,327.670013427734
2.9029972,327.670013427734
2.9186222,321.980010986328
2.9342472,251.029998779297
2.9498722,189.289993286133
2.9654972,135.759994506836
2.9811222,89.620002746582
2.9967472,52.6599998474121
3.0123722,27.75
3.0279972,15.25
3.0436222,11.3000001907349
3.0592472,9.25
3.0748722,2.99000000953674
3.0904972,-10.3199996948242
3.1061222,-30.4500007629395
3.1217472,-56.3800010681152
3.1373722,-89.3300018310547
3.1529972,-133.210006713867
3.1686222,-190.770004272461
3.1842472,-259.489990234375
3.1998722,-327.679992675781
3.2154972,-327.679992675781
3.2311222,-327.679992675781
3.2467472,-327.679992675781
3.2623722,-327.679992675781
3.2779972,-327.679992675781
3.2936222,-327.679992675781
3.3092472,-327.679992675781
3.3248722,-327.679992675781
3.3404972,-327.679992675781
3.3561222,-327.679992675781
3.3717472,-327.679992675781
3.3873722,-327.679992675781
3.4029972,-327.679992675781
3.4186222,-327.679992675781
3.4342472,-327.679992675781
3.4498722,-327.679992675781
3.4654972,-327.679992675781
3.4811222,-292.160003662109
3.4967472,-220.470001220703
3.5123722,-169.050003051758
3.5279972,-131.080001831055
3.5436222,-100.919998168945
3.5592472,-78.4199981689453
3.5748722,-66.9499969482422
3.5904972,-68.379997253418
3.6061222,-80.5599975585938
3.6217472,-98.5800018310547
3.6373722,-117.330001831055
3.6529972,-133.309997558594
3.6686222,-144.509994506836
3.6842472,-149.850006103516
3.6998722,-149.589996337891
3.7154972,-146.009994506836
3.7311222,-142.350006103516
3.7467472,-140.869995117188
3.7623722,-141.889999389648
3.7779972,-144.270004272461
3.7936222,-146.539993286133
3.8092472,-148.380004882813
3.8248722,-152.990005493164
3.8404972,-167.490005493164
3.8561222,-198.660003662109
3.8717472,-247.679992675781
3.8873722,-309.850006103516
3.9029972,-327.679992675781
3.9186222,-327.679992675781
3.9342472,-327.679992675781
3.9498722,-327.679992675781
3.9654972,-327.679992675781
3.9811222,-327.679992675781
3.9967472,-327.679992675781
4.0123722,-327.679992675781
4.0279972,-327.679992675781
4.0436222,-327.679992675781
4.0592472,-327.679992675781
4.0748722,-327.679992675781
4.0904972,-327.679992675781
4.1061222,-314.329986572266
4.1217472,-274.989990234375
4.1373722,-234.259994506836
4.1529972,-192.220001220703
4.1686222,-149.410003662109
4.1842472,-106.220001220703
4.1998722,-62.7999992370605
4.2154972,-19.4400005340576
4.2311222,23.2299995422363
4.2467472,64.370002746582
4.2623722,102.529998779297
4.2779972,135.639999389648
4.2936222,161.690002441406
4.3092472,179.820007324219
4.3248722,190.899993896484
4.3404972,197.210006713867
4.3561222,201.429992675781
4.3717472,205.5
4.3873722,209.610000610352
4.4029972,212.210006713867
4.4186222,211.380004882813
4.4342472,206.320007324219
4.4498722,197.679992675781
4.4654972,186.75
4.4811222,174.789993286133
4.4967472,163.089996337891
4.5123722,153.949996948242
4.5279972,150.889999389648
4.5436222,156.759994506836
4.5592472,171.449996948242
4.5748722,192.020004272461
4.5904972,214.830001831055
4.6061222,237.479995727539
4.6217472,259.380004882813
4.6373722,281.010009765625
4.6529972,302.869995117188
4.6686222,325.070007324219
4.6842472,327.670013427734
4.6998722,327.670013427734
4.7154972,327.670013427734
4.7311222,327.670013427734
4.7467472,327.670013427734
4.7623722,327.670013427734
4.7779972,327.670013427734
4.7936222,327.670013427734
4.8092472,327.670013427734
4.8248722,327.670013427734
4.8404972,327.670013427734
4.8561222,327.670013427734
4.8717472,327.670013427734
4.8873722,327.670013427734
4.9029972,327.670013427734
4.9186222,327.670013427734
4.9342472,327.670013427734
4.9498722,327.670013427734
4.9654972,327.670013427734
4.9811222,327.670013427734
4.9967472,327.670013427734
5.0123722,327.670013427734
5.0279972,327.670013427734
5.0436222,327.670013427734
5.0592472,327.670013427734
5.0748722,327.670013427734
5.0904972,327.670013427734
5.1061222,327.670013427734
5.1217472,327.670013427734
5.1373722,327.670013427734
5.1529972,327.670013427734
5.1686222,327.670013427734
5.1842472,327.670013427734
5.1998722,327.670013427734
5.2154972,327.670013427734
5.2311222,327.670013427734
5.2467472,327.670013427734
5.2623722,327.670013427734
5.2779972,312.450012207031
5.2936222,272.130004882813
5.3092472,234.880004882813
5.3248722,204.229995727539
5.3404972,181.470001220703
5.3561222,165.149993896484
5.3717472,152.160003662109
5.3873722,139.089996337891
5.4029972,123.169998168945
5.4186222,103.129997253418
5.4342472,79.4499969482422
5.4498722,53.6100006103516
5.4654972,27.0100002288818
5.4811222,0.469999998807907
5.4967472,-25.3999996185303
5.5123722,-49.4900016784668
5.5279972,-69.6999969482422
5.5436222,-83.8099975585938
5.5592472,-90.5899963378906
5.5748722,-90.4300003051758
5.5904972,-84.9800033569336
5.6061222,-76.4300003051758
5.6217472,-66.9100036621094
5.6373722,-57.9700012207031
5.6529972,-50.0299987792969
5.6686222,-41.5999984741211
5.6842472,-29.2399997711182
5.6998722,-9.72999954223633
5.7154972,17.6200008392334
5.7311222,51.0699996948242
5.7467472,88.1999969482422
5.7623722,127.01000213623
5.7779972,165.460006713867
5.7936222,200.080001831055
5.8092472,225.809997558594
5.8248722,238.770004272461
5.8404972,239.100006103516
5.8561222,230.380004882813
5.8717472,216.529998779297
5.8873722,200.0
5.9029972,181.940002441406
5.9186222,162.929992675781
5.9342472,143.270004272461
5.9498722,122.540000915527
5.9654972,99.370002746582
5.9811222,72.3300018310547
5.9967472,41.5200004577637
6.0123722,9.44999980926514
6.0279972,-19.5499992370605
6.0436222,-41.6699981689453
6.0592472,-55.6599998474121
6.0748722,-62.8899993896484
6.0904972,-66.2099990844727
6.1061222,-69.9400024414063
6.1217472,-80.0299987792969
6.1373722,-102.330001831055
6.1529972,-139.740005493164
6.1686222,-190.639999389648
6.1842472,-249.600006103516
6.1998722,-309.970001220703
6.2154972,-327.679992675781
6.2311222,-327.679992675781
6.2467472,-327.679992675781
6.2623722,-327.679992675781
6.2779972,-327.679992675781
6.2936222,-327.679992675781
6.3092472,-327.679992675781
6.3248722,-327.679992675781
6.3404972,-324.200012207031
6.3561222,-274.570007324219
6.3717472,-226.630004882813
6.3873722,-184.820007324219
6.4029972,-151.740005493164
6.4186222,-129.199996948242
6.4342472,-119.370002746582
6.4498722,-123.639999389648
6.4654972,-140.429992675781
6.4811222,-165.139999389648
6.4967472,-192.490005493164
6.5123722,-219.660003662109
6.5279972,-247.639999389648
6.5436222,-279.309997558594
6.5592472,-316.260009765625
6.5748722,-327.679992675781
6.5904972,-327.679992675781
6.6061222,-327.679992675781
6.6217472,-327.679992675781
6.6373722,-327.679992675781
6.6529972,-327.679992675781
6.6686222,-327.679992675781
6.6842472,-327.679992675781
6.6998722,-327.679992675781
6.7154972,-327.679992675781
6.7311222,-327.679992675781
6.7467472,-327.679992675781
6.7623722,-327.679992675781
6.7779972,-327.679992675781
6.7936222,-327.679992675781
6.8092472,-327.679992675781
6.8248722,-327.679992675781
6.8404972,-327.679992675781
6.8561222,-327.679992675781
6.8717472,-327.679992675781
6.8873722,-327.679992675781
6.9029972,-327.679992675781
6.9186222,-327.679992675781
6.9342472,-327.679992675781
6.9498722,-327.679992675781
6.9654972,-327.679992675781
6.9811222,-327.679992675781
6.9967472,-327.679992675781
7.0123722,-327.679992675781
7.0279972,-301.880004882813
7.0436222,-278.440002441406
7.0592472,-262.459991455078
7.0748722,-253.190002441406
7.0904972,-249.160003662109
7.1061222,-249.160003662109
7.1217472,-252.0
7.1373722,-255.729995727539
7.1529972,-257.399993896484
7.1686222,-254.289993286133
7.1842472,-245.509994506836
7.1998722,-232.25
7.2154972,-216.729995727539
7.2311222,-200.350006103516
7.2467472,-182.850006103516
7.2623722,-163.0
7.2779972,-140.190002441406
7.2936222,-115.120002746582
7.3092472,-89.4100036621094
7.3248722,-64.7399978637695
7.3404972,-42.1800003051758
7.3561222,-22.4500007629395
7.3717472,-6.3600001335144
7.3873722,5.1100001335144
7.4029972,11.2700004577637
7.4186222,12.3599996566772
7.4342472,9.80000019073486
7.4498722,5.71999979019165
7.4654972,1.99000000953674
7.4811222,-0.360000014305115
7.4967472,-1.35000002384186
7.5123722,-1.97000002861023
7.5279972,-3.88000011444092
7.5436222,-8.46000003814697
7.5592472,-16.0599994659424
7.5748722,-26.2999992370605
7.5904972,-38.8699989318848
7.6061222,-53.6199989318848
7.6217472,-69.8199996948242
7.6373722,-85.3199996948242
7.6529972,-96.8199996948242
7.6686222,-101.849998474121
7.6842472,-100.459999084473
7.6998722,-94.6600036621094
7.7154972,-86.3399963378906
7.7311222,-76.3099975585938
7.7467472,-64.8199996948242
7.7623722,-52.1199989318848
7.7779972,-38.7000007629395
7.7936222,-24.9599990844727
7.8092472,-11.0100002288818
7.8248722,3.28999996185303
7.8404972,18.1100006103516
7.8561222,33.6500015258789
7.8717472,50.3699989318848
7.8873722,68.6699981689453
7.9029972,88.4700012207031
7.9186222,109.23999786377
7.9342472,130.509994506836
7.9498722,152.309997558594
7.9654972,175.039993286133
7.9811222,198.710006713867
7.9967472,222.229995727539
8.0123722,243.949996948242
8.0279972,262.640014648438
8.0436222,278.149993896484
8.0592472,291.149993896484
8.0748722,302.589996337891
8.0904972,313.160003662109
8.1061222,323.089996337891
8.1217472,327.670013427734
8.1373722,327.670013427734
8.1529972,327.670013427734
8.1686222,327.670013427734
8.1842472,327.670013427734
8.1998722,327.670013427734
8.2154972,327.670013427734
8.2311222,327.670013427734
8.2467472,327.670013427734
8.2623722,327.670013427734
8.2779972,327.670013427734
8.2936222,327.670013427734
8.3092472,327.670013427734
8.3248722,327.670013427734
8.3404972,327.670013427734
8.3561222,326.619995117188
8.3717472,320.640014648438
8.3873722,314.420013427734
8.4029972,308.019989013672
8.4186222,301.630004882813
8.4342472,295.609985351563
8.4498722,290.25
8.4654972,285.619995117188
8.4811222,281.549987792969
8.4967472,277.929992675781
8.5123722,275.100006103516
8.5279972,273.880004882813
8.5436222,274.929992675781
8.5592472,277.989990234375
8.5748722,281.929992675781
8.5904972,285.410003662109
8.6061222,287.589996337891
8.6217472,288.450012207031
8.6373722,289.170013427734
8.6529972,291.959991455078
8.6686222,298.739990234375
8.6842472,310.179992675781
8.6998722,326.450012207031
8.7154972,327.670013427734
8.7311222,327.670013427734
8.7467472,327.670013427734
8.7623722,327.670013427734
8.7779972,327.670013427734
8.7936222,327.670013427734
8.8092472,327.670013427734
8.8248722,327.670013427734
8.8404972,327.670013427734
8.8561222,327.670013427734
8.8717472,327.670013427734
8.8873722,327.670013427734
8.9029972,327.670013427734
8.9186222,327.670013427734
8.9342472,327.670013427734
8.9498722,327.670013427734
8.9654972,327.670013427734
8.9811222,327.670013427734
8.9967472,327.670013427734
9.0123722,327.670013427734
9.0279972,327.670013427734
9.0436222,327.670013427734
9.0592472,291.859985351563
9.0748722,234.279998779297
9.0904972,167.259994506836
9.1061222,92.6600036621094
9.1217472,16.0599994659424
9.1373722,-56.6599998474121
9.1529972,-123.809997558594
9.1686222,-187.850006103516
9.1842472,-251.740005493164
9.1998722,-315.390014648438
9.2154972,-327.679992675781
9.2311222,-327.679992675781
9.2467472,-327.679992675781
9.2623722,-327.679992675781
9.2779972,-327.679992675781
9.2936222,-327.679992675781
9.3092472,-327.679992675781
9.3248722,-327.679992675781
9.3404972,-327.679992675781
9.3561222,-327.679992675781
9.3717472,-327.679992675781
9.3873722,-327.679992675781
9.4029972,-327.679992675781
9.4186222,-327.679992675781
9.4342472,-327.679992675781
9.4498722,-327.679992675781
9.4654972,-327.679992675781
9.4811222,-327.679992675781
9.4967472,-327.679992675781
9.5123722,-327.679992675781
9.5279972,-327.679992675781
9.5436222,-327.679992675781
9.5592472,-327.679992675781
9.5748722,-327.679992675781
9.5904972,-327.679992675781
9.6061222,-310.309997558594
9.6217472,-280.559997558594
9.6373722,-252.759994506836
9.6529972,-226.059997558594
9.6686222,-198.759994506836
9.6842472,-169.949996948242
9.6998722,-140.320007324219
9.7154972,-111.849998474121
9.7311222,-86.5699996948242
9.7467472,-65.6999969482422
9.7623722,-50.3699989318848
9.7779972,-42.4700012207031
9.7936222,-43.8800010681152
9.8092472,-54.7200012207031
9.8248722,-72.4499969482422
9.8404972,-92.6999969482422
9.8561222,-111.160003662109
9.8717472,-125.379997253418
9.8873722,-135.070007324219
9.9029972,-141.199996948242
9.9186222,-144.820007324219
9.9342472,-146.619995117188
9.9498722,-147.729995727539
9.9654972,-150.619995117188
9.9811222,-158.699996948242
9.9967472,-174.679992675781
10.0123722,-199.169998168945
10.0279972,-230.220001220703
10.0436222,-264.299987792969
10.0592472,-297.929992675781
10.0748722,-327.679992675781
10.0904972,-327.679992675781
10.1061222,-327.679992675781
10.1217472,-327.679992675781
10.1373722,-327.679992675781
10.1529972,-327.679992675781
10.1686222,-327.679992675781
10.1842472,-327.679992675781
10.1998722,-327.679992675781
10.2154972,-327.679992675781
10.2311222,-327.679992675781
10.2467472,-327.679992675781
10.2623722,-327.679992675781
10.2779972,-327.679992675781
10.2936222,-327.679992675781
10.3092472,-327.679992675781
10.3248722,-327.679992675781
10.3404972,-327.679992675781
10.3561222,-305.170013427734
10.3717472,-260.390014648438
10.3873722,-209.899993896484
10.4029972,-157.679992675781
10.4186222,-108.5
10.4342472,-65.4599990844727
10.4498722,-28.9400005340576
10.4654972,2.78999996185303
10.4811222,32.4199981689453
10.4967472,62.4500007629395
10.5123722,94.25
10.5279972,127.75
10.5436222,162.050003051758
10.5592472,196.339996337891
10.5748722,230.220001220703
10.5904972,263.140014648438
10.6061222,293.519989013672
10.6217472,318.570007324219
10.6373722,327.670013427734
10.6529972,327.670013427734
10.6686222,327.670013427734
10.6842472,327.670013427734
10.6998722,327.670013427734
10.7154972,325.609985351563
10.7311222,317.359985351563
10.7467472,309.420013427734
10.7623722,301.410003662109
10.7779972,292.320007324219
10.7936222,281.190002441406
10.8092472,267.829986572266
10.8248722,252.970001220703
10.8404972,237.779998779297
10.8561222,223.270004272461
10.8717472,209.929992675781
10.8873722,197.639999389648
10.9029972,185.830001831055
10.9186222,173.940002441406
10.9342472,161.690002441406
10.9498722,148.990005493164
10.9654972,135.770004272461
10.9811222,121.949996948242
10.9967472,107.830001831055
11.0123722,94.5699996948242
11.0279972,84.1500015258789
11.0436222,78.5299987792969
11.0592472,78.5100021362305
11.0748722,83.5199966430664
11.0904972,92.1999969482422
11.1061222,103.319999694824
11.1217472,116.339996337891
11.1373722,131.130004882813
11.1529972,147.25
11.1686222,163.649993896484
11.1842472,178.919998168945
11.1998722,192.039993286133
11.2154972,202.929992675781
11.2311222,211.979995727539
11.2467472,219.210006713867
11.2623722,224.339996337891
11.2779972,227.509994506836
11.2936222,229.360000610352
11.3092472,230.660003662109
11.3248722,231.710006713867
11.3404972,232.279998779297
11.3561222,232.110000610352
11.3717472,231.550003051758
11.3873722,231.279998779297
11.4029972,231.529998779297
11.4186222,231.949996948242
11.4342472,231.940002441406
11.4498722,231.089996337891
