Time(s),Value(%)
864.0126751,89.1500015258789
864.0283001,85.2699966430664
864.0439251,72.1399993896484
864.0595501,54.4099998474121
864.0751751,36.3800010681152
864.0908001,20.3999996185303
864.1064251,6.80000019073486
864.1220501,-5.0
864.1376751,-15.5600004196167
864.1533001,-24.7800006866455
864.1689251,-32.1699981689453
864.1845501,-37.2299995422363
864.2001751,-39.9099998474121
864.2158001,-40.5900001525879
864.2314251,-39.8400001525879
864.2470501,-38.2299995422363
864.2626751,-36.3499984741211
864.2783001,-34.6599998474121
864.2939251,-33.3600006103516
864.3095501,-32.2999992370605
864.3251751,-31.1800003051758
864.3408001,-29.6700000762939
864.3564251,-27.5400009155273
864.3720501,-24.8199996948242
864.3876751,-21.8099994659424
864.4033001,-18.8299999237061
864.4189251,-16.0400009155273
864.4345501,-13.4300003051758
864.4501751,-10.8900003433228
864.4658001,-8.27999973297119
864.4814251,-5.5
864.4970501,-2.48000001907349
864.5126751,0.759999990463257
864.5283001,4.51999998092651
864.5439251,9.81999969482422
864.5595501,18.6200008392334
864.5751751,32.5299987792969
864.5908001,50.5099983215332
864.6064251,68.2099990844727
864.6220501,80.2699966430664
864.6376751,83.3199996948242
864.6533001,77.3099975585938
864.6689251,64.7699966430664
864.6845501,49.1300010681152
864.7001751,33.3800010681152
864.7158001,19.1599998474121
864.7314251,6.6100001335144
864.7470501,-4.82000017166138
864.7626751,-15.3500003814697
864.7783001,-24.4599990844727
864.7939251,-31.3099994659424
864.8095501,-35.3600006103516
864.8251751,-36.75
864.8408001,-36.1199989318848
864.8564251,-34.2999992370605
864.8720501,-31.9099998474121
864.8876751,-29.1800003051758
864.9033001,-26.0499992370605
864.9189251,-22.5799999237061
864.9345501,-19.1800003051758
864.9501751,-16.4300003051758
864.9658001,-14.6199998855591
864.9814251,-13.6999998092651
864.9970501,-13.4499998092651
865.0126751,-13.7299995422363
865.0283001,-14.5200004577637
865.0439251,-15.8000001907349
865.0595501,-17.2399997711182
865.0751751,-18.3999996185303
865.0908001,-18.9699993133545
865.1064251,-18.5100002288818
865.1220501,-16.1900005340576
865.1376751,-10.8000001907349
865.1533001,-1.04999995231628
865.1689251,13.4399995803833
865.1845501,31.1200008392334
865.2001751,48.8699989318848
865.2158001,63.3199996948242
865.2314251,71.879997253418
865.2470501,73.3600006103516
865.2626751,68.0299987792969
865.2783001,57.0200004577637
865.2939251,42.0400009155273
865.3095501,25.9300003051758
865.3251751,11.9399995803833
865.3408001,1.77999997138977
865.3564251,-5.3600001335144
865.3720501,-11.7600002288818
865.3876751,-19.1399993896484
865.4033001,-27.4899997711182
865.4189251,-35.5
865.4345501,-41.6599998474121
865.4501751,-45.1500015258789
865.4658001,-46.0800018310547
865.4814251,-45.1800003051758
865.4970501,-43.1500015258789
865.5126751,-40.2599983215332
865.5283001,-36.5699996948242
865.5439251,-32.5800018310547
865.5595501,-29.1700000762939
865.5751751,-26.9699993133545
865.5908001,-25.9899997711182
865.6064251,-25.6000003814697
865.6220501,-24.9799995422363
865.6376751,-23.5599994659424
865.6533001,-21.2000007629395
865.6689251,-18.0900001525879
865.6845501,-14.5200004577637
865.7001751,-10.8199996948242
865.7158001,-7.32000017166138
865.7314251,-4.26999998092651
865.7470501,-1.64999997615814
865.7626751,0.879999995231628
865.7783001,3.98000001907349
865.7939251,8.88000011444092
865.8095501,17.8700008392334
865.8251751,33.2000007629395
865.8408001,54.560001373291
865.8564251,77.8199996948242
865.8720501,96.5500030517578
865.8876751,105.379997253418
865.9033001,102.669998168945
865.9189251,90.7200012207031
865.9345501,73.7399978637695
865.9501751,55.3600006103516
865.9658001,37.3499984741211
865.9814251,20.1800003051758
865.9970501,4.03999996185303
866.0126751,-10.4700002670288
866.0283001,-22.4200000762939
866.0439251,-30.9400005340576
866.0595501,-35.7299995422363
866.0751751,-37.1800003051758
866.0908001,-36.2000007629395
866.1064251,-33.8899993896484
866.1220501,-31.2700004577637
866.1376751,-29.0900001525879
866.1533001,-27.7199993133545
866.1689251,-27.0699996948242
866.1845501,-26.7900009155273
866.2001751,-26.5100002288818
866.2158001,-25.8700008392334
866.2314251,-24.6800003051758
866.2470501,-22.9400005340576
866.2626751,-20.8799991607666
866.2783001,-18.8199996948242
866.2939251,-17.0400009155273
866.3095501,-15.6800003051758
866.3251751,-14.6099996566772
866.3408001,-13.4300003051758
866.3564251,-11.5600004196167
866.3720501,-8.34000015258789
866.3876751,-2.82999992370605
866.4033001,6.57999992370605
866.4189251,21.6499996185303
866.4345501,42.1300010681152
866.4501751,64.3600006103516
866.4658001,82.25
866.4814251,90.3399963378906
866.4970501,86.6600036621094
866.5126751,73.370002746582
866.5283001,54.9500007629395
866.5439251,35.5200004577637
866.5595501,17.1900005340576
866.5751751,0.360000014305115
866.5908001,-14.8400001525879
866.6064251,-27.9300003051758
866.6220501,-38.0900001525879
866.6376751,-44.7299995422363
866.6533001,-47.7999992370605
866.6689251,-47.9000015258789
866.6845501,-46.0499992370605
866.7001751,-43.310001373291
866.7158001,-40.4900016784668
866.7314251,-37.9300003051758
866.7470501,-35.6300010681152
866.7626751,-33.5699996948242
866.7783001,-31.8099994659424
866.7939251,-30.3799991607666
866.8095501,-29.1599998474121
866.8251751,-28.0200004577637
866.8408001,-26.7900009155273
866.8564251,-25.3299999237061
866.8720501,-23.5
866.8876751,-21.3099994659424
866.9033001,-18.8899993896484
866.9189251,-16.4400005340576
866.9345501,-14.0100002288818
866.9501751,-11.3199996948242
866.9658001,-7.59000015258789
866.9814251,-1.72000002861023
866.9970501,7.42999982833862
867.0126751,20.6000003814697
867.0283001,37.2799987792969
867.0439251,54.8600006103516
867.0595501,69.129997253418
867.0751751,76.2200012207031
867.0908001,74.4700012207031
867.1064251,64.9700012207031
867.1220501,50.6599998474121
867.1376751,34.75
867.1533001,19.4200000762939
867.1689251,5.6399998664856
867.1845501,-6.23999977111816
867.2001751,-16.0300006866455
867.2158001,-23.4400005340576
867.2314251,-28.2900009155273
867.2470501,-30.5900001525879
867.2626751,-30.7800006866455
867.2783001,-29.5699996948242
867.2939251,-27.7399997711182
867.3095501,-25.8600006103516
867.3251751,-24.2299995422363
867.3408001,-22.8999996185303
867.3564251,-21.7299995422363
867.3720501,-20.5
867.3876751,-19.1000003814697
867.4033001,-17.5599994659424
867.4189251,-15.9399995803833
867.4345501,-14.3199996948242
867.4501751,-12.7799997329712
867.4658001,-11.3299999237061
867.4814251,-9.77000045776367
867.4970501,-7.80000019073486
867.5126751,-5.21999979019165
867.5283001,-1.96000003814697
867.5439251,2.40000009536743
867.5595501,9.10999965667725
867.5751751,19.7199993133545
867.5908001,34.8300018310547
867.6064251,52.8400001525879
867.6220501,69.8099975585938
867.6376751,81.0999984741211
867.6533001,83.7799987792969
867.6689251,77.9100036621094
867.6845501,65.8600006103516
867.7001751,50.7000007629395
867.7158001,34.7999992370605
867.7314251,19.4300003051758
867.7470501,5.01999998092651
867.7626751,-8.15999984741211
867.7783001,-19.5900001525879
867.7939251,-28.6100006103516
867.8095501,-34.7700004577637
867.8251751,-38.0200004577637
867.8408001,-38.7900009155273
867.8564251,-37.8800010681152
867.8720501,-36.189998626709
867.8876751,-34.3800010681152
867.9033001,-32.7299995422363
867.9189251,-31.2700004577637
867.9345501,-29.8799991607666
867.9501751,-28.4699993133545
867.9658001,-26.9500007629395
867.9814251,-25.2800006866455
867.9970501,-23.5400009155273
868.0126751,-21.8199996948242
868.0283001,-20.1000003814697
868.0439251,-18.3099994659424
868.0595501,-16.3799991607666
868.0751751,-14.2700004577637
868.0908001,-11.6999998092651
868.1064251,-8.14000034332275
868.1220501,-2.66000008583069
868.1376751,6.03999996185303
868.1533001,19.2000007629395
868.1689251,36.7200012207031
868.1845501,55.9599990844727
868.2001751,72.2300033569336
868.2158001,81.0800018310547
868.2314251,80.5400009155273
868.2470501,71.7300033569336
868.2626751,57.7900009155273
868.2783001,42.0699996948242
868.2939251,26.7099990844727
868.3095501,12.2299995422363
868.3251751,-1.67999994754791
868.3408001,-14.960000038147
868.3564251,-26.7299995422363
868.3720501,-35.8400001525879
868.3876751,-41.5200004577637
868.4033001,-43.8400001525879
868.4189251,-43.5400009155273
868.4345501,-41.689998626709
868.4501751,-39.3300018310547
868.4658001,-37.0900001525879
868.4814251,-35.1399993896484
868.4970501,-33.3300018310547
868.5126751,-31.4899997711182
868.5283001,-29.5799999237061
868.5439251,-27.6800003051758
868.5595501,-25.8999996185303
868.5751751,-24.2999992370605
868.5908001,-22.7199993133545
868.6064251,-20.8999996185303
868.6220501,-18.75
868.6376751,-16.3099994659424
868.6533001,-13.6199998855591
868.6689251,-10.5900001525879
868.6845501,-6.90000009536743
868.7001751,-2.0699999332428
868.7158001,4.59000015258789
868.7314251,14.3000001907349
868.7470501,28.1900005340576
868.7626751,45.8899993896484
868.7783001,64.3399963378906
868.7939251,78.6800003051758
868.8095501,84.9000015258789
868.8251751,81.7900009155273
868.8408001,71.0899963378906
868.8564251,56.1300010681152
868.8720501,40.0900001525879
868.8876751,24.8400001525879
868.9033001,10.8299999237061
868.9189251,-2.17000007629395
868.9345501,-14.2799997329712
868.9501751,-25.0100002288818
868.9658001,-33.5800018310547
868.9814251,-39.2299995422363
868.9970501,-41.6300010681152
869.0126751,-41.1599998474121
869.0283001,-38.8499984741211
869.0439251,-35.9000015258789
869.0595501,-33.25
869.0751751,-31.3199996948242
869.0908001,-29.9699993133545
869.1064251,-28.7399997711182
869.1220501,-27.2600002288818
869.1376751,-25.5
869.1533001,-23.5699996948242
869.1689251,-21.5799999237061
869.1845501,-19.5
869.2001751,-17.2900009155273
869.2158001,-14.9099998474121
869.2314251,-12.3599996566772
869.2470501,-9.72000026702881
869.2626751,-7.01999998092651
869.2783001,-3.98000001907349
869.2939251,0.109999999403954
869.3095501,6.57999992370605
869.3251751,17.1200008392334
869.3408001,32.9799995422363
869.3564251,52.8600006103516
869.3720501,72.0
869.3876751,84.5100021362305
869.4033001,86.8199996948242
869.4189251,79.2900009155273
869.4345501,65.1800003051758
869.4501751,48.5
869.4658001,32.0299987792969
869.4814251,16.7199993133545
869.4970501,2.4300000667572
869.5126751,-10.8100004196167
869.5283001,-22.3799991607666
869.5439251,-31.2600002288818
869.5595501,-36.7799987792969
869.5751751,-39.1399993896484
869.5908001,-39.3400001525879
869.6064251,-38.4500007629395
869.6220501,-37.0999984741211
869.6376751,-35.5200004577637
869.6533001,-33.7299995422363
869.6689251,-31.6900005340576
869.6845501,-29.4599990844727
869.7001751,-27.2000007629395
869.7158001,-25.0100002288818
869.7314251,-22.8700008392334
869.7470501,-20.7000007629395
869.7626751,-18.4699993133545
869.7783001,-16.3099994659424
869.7939251,-14.3100004196167
869.8095501,-12.4099998474121
869.8251751,-10.2299995422363
869.8408001,-6.92000007629395
869.8564251,-1.19000005722046
869.8720501,8.88000011444092
869.8876751,24.9899997711182
869.9033001,46.5400009155273
869.9189251,69.4100036621094
869.9345501,87.4599990844727
869.9501751,95.7799987792969
869.9658001,92.9899978637695
869.9814251,81.2600021362305
869.9970501,64.6100006103516
870.0126751,46.8699989318848
870.0283001,30.2099990844727
870.0439251,14.9700002670288
870.0595501,0.550000011920929
870.0751751,-13.4300003051758
870.0908001,-26.6700000762939
870.1064251,-38.2200012207031
870.1220501,-46.8300018310547
870.1376751,-51.5800018310547
870.1533001,-52.4700012207031
870.1689251,-50.4500007629395
870.1845501,-46.9700012207031
870.2001751,-43.2599983215332
870.2158001,-39.9900016784668
870.2314251,-37.3800010681152
870.2470501,-35.3600006103516
870.2626751,-33.75
870.2783001,-32.2999992370605
870.2939251,-30.7800006866455
870.3095501,-28.9899997711182
870.3251751,-26.8999996185303
870.3408001,-24.6200008392334
870.3564251,-22.2900009155273
870.3720501,-19.9500007629395
870.3876751,-17.5499992370605
870.4033001,-14.6499996185303
870.4189251,-10.2399997711182
870.4345501,-2.42000007629395
870.4501751,11.0600004196167
870.4658001,31.2099990844727
870.4814251,55.75
870.4970501,78.9499969482422
870.5126751,94.0899963378906
870.5283001,97.129997253418
870.5439251,88.5299987792969
870.5595501,72.1999969482422
870.5751751,52.9300003051758
870.5908001,34.1699981689453
870.6064251,17.2999992370605
870.6220501,2.25
870.6376751,-11.5200004577637
870.6533001,-24.1599998474121
870.6689251,-35.0400009155273
870.6845501,-43.0999984741211
870.7001751,-47.5400009155273
870.7158001,-48.439998626709
870.7314251,-46.6699981689453
870.7470501,-43.4199981689453
870.7626751,-39.7099990844727
870.7783001,-36.2799987792969
870.7939251,-33.5299987792969
870.8095501,-31.4599990844727
870.8251751,-29.7800006866455
870.8408001,-28.1499996185303
870.8564251,-26.3799991607666
870.8720501,-24.4599990844727
870.8876751,-22.3999996185303
870.9033001,-20.2199993133545
870.9189251,-17.9300003051758
870.9345501,-15.539999961853
870.9501751,-13.0
870.9658001,-10.0100002288818
870.9814251,-5.80999994277954
870.9970501,1.14999997615814
871.0126751,13.1599998474121
871.0283001,31.8299999237061
871.0439251,55.6300010681152
871.0595501,79.1399993896484
871.0751751,95.5800018310547
871.0908001,100.470001220703
871.1064251,93.5899963378906
871.1220501,78.2900009155273
871.1376751,59.2200012207031
871.1533001,40.1599998474121
871.1689251,22.8600006103516
871.1845501,7.36999988555908
871.2001751,-6.84999990463257
871.2158001,-19.9099998474121
871.2314251,-31.0900001525879
871.2470501,-39.3699989318848
871.2626751,-44.0200004577637
871.2783001,-45.0699996948242
871.2939251,-43.2999992370605
871.3095501,-39.9500007629395
871.3251751,-36.2900009155273
871.3408001,-33.1699981689453
871.3564251,-30.8400001525879
871.3720501,-29.0400009155273
871.3876751,-27.3600006103516
871.4033001,-25.5599994659424
871.4189251,-23.5900001525879
871.4345501,-21.4899997711182
871.4501751,-19.3099994659424
871.4658001,-17.1800003051758
871.4814251,-15.2700004577637
871.4970501,-13.5900001525879
871.5126751,-11.8500003814697
871.5283001,-9.56999969482422
871.5439251,-6.25
871.5595501,-0.980000019073486
871.5751751,8.27999973297119
871.5908001,24.2600002288818
871.6064251,47.310001373291
871.6220501,72.8199996948242
871.6376751,93.0400009155273
871.6533001,101.650001525879
871.6689251,96.9899978637695
871.6845501,81.8099975585938
871.7001751,60.9599990844727
871.7158001,38.8699989318848
871.7314251,18.1200008392334
871.7470501,-0.340000003576279
871.7626751,-16.1399993896484
871.7783001,-28.8600006103516
871.7939251,-38.0900001525879
871.8095501,-43.7099990844727
871.8251751,-45.9700012207031
871.8408001,-45.5699996948242
871.8564251,-43.3800010681152
871.8720501,-40.2599983215332
871.8876751,-36.8400001525879
871.9033001,-33.4700012207031
871.9189251,-30.3199996948242
871.9345501,-27.5
871.9501751,-25.1100006103516
871.9658001,-23.1100006103516
871.9814251,-21.2999992370605
871.9970501,-19.4699993133545
872.0126751,-17.6000003814697
872.0283001,-15.8900003433228
872.0439251,-14.5299997329712
872.0595501,-13.5200004577637
872.0751751,-12.6700000762939
872.0908001,-11.6000003814697
872.1064251,-9.81999969482422
872.1220501,-6.57000017166138
872.1376751,-0.670000016689301
872.1533001,9.67000007629395
872.1689251,26.0
872.1845501,47.6800003051758
872.2001751,70.3899993896484
872.2158001,87.5899963378906
872.2314251,94.0699996948242
872.2470501,88.4899978637695
872.2626751,73.4300003051758
872.2783001,53.5400009155273
872.2939251,33.0299987792969
872.3095501,14.2299995422363
872.3251751,-2.3199999332428
872.3408001,-16.8099994659424
872.3564251,-29.1700000762939
872.3720501,-38.8499984741211
872.3876751,-45.060001373291
872.4033001,-47.4700012207031
872.4189251,-46.6100006103516
872.4345501,-43.6500015258789
872.4501751,-39.8899993896484
872.4658001,-36.2799987792969
872.4814251,-33.1800003051758
872.4970501,-30.5699996948242
872.5126751,-28.3600006103516
872.5283001,-26.5100002288818
872.5439251,-24.9500007629395
872.5595501,-23.6000003814697
872.5751751,-22.25
872.5908001,-20.75
872.6064251,-19.1000003814697
872.6220501,-17.4200000762939
872.6376751,-15.8400001525879
872.6533001,-14.3400001525879
872.6689251,-12.6899995803833
872.6845501,-10.2700004577637
872.7001751,-5.8600001335144
872.7158001,2.46000003814697
872.7314251,16.6800003051758
872.7470501,36.9099998474121
872.7626751,60.0900001525879
872.7783001,80.5999984741211
872.7939251,92.7300033569336
872.8095501,93.620002746582
872.8251751,84.4300003051758
872.8408001,69.1699981689453
872.8564251,52.0499992370605
872.8720501,35.560001373291
872.8876751,20.2900009155273
872.9033001,6.0
872.9189251,-7.5
872.9345501,-19.9400005340576
872.9501751,-30.5699996948242
872.9658001,-38.6599998474121
872.9814251,-43.75
872.9970501,-45.9300003051758
873.0126751,-45.7799987792969
873.0283001,-44.1399993896484
873.0439251,-41.7299995422363
873.0595501,-39.1399993896484
873.0751751,-36.7400016784668
873.0908001,-34.6599998474121
873.1064251,-32.810001373291
873.1220501,-31.0699996948242
873.1376751,-29.4200000762939
873.1533001,-27.7999992370605
873.1689251,-26.0799999237061
873.1845501,-24.0699996948242
873.2001751,-21.6299991607666
873.2158001,-18.6499996185303
873.2314251,-14.7299995422363
873.2470501,-8.47000026702881
873.2626751,2.86999988555908
873.2783001,21.7299995422363
873.2939251,47.0099983215332
873.3095501,73.0
873.3251751,92.2799987792969
873.3408001,99.7200012207031
873.3564251,94.6699981689453
873.3720501,80.3600006103516
873.3876751,61.6800003051758
873.4033001,42.8499984741211
873.4189251,26.0499992370605
873.4345501,11.2600002288818
873.4501751,-2.61999988555908
873.4658001,-16.3600006103516
873.4814251,-29.5
873.4970501,-40.7000007629395
873.5126751,-48.5400009155273
873.5283001,-52.3300018310547
873.5439251,-52.3699989318848
873.5595501,-49.7700004577637
873.5751751,-45.9000015258789
873.5908001,-41.8699989318848
873.6064251,-38.3800010681152
873.6220501,-35.7000007629395
873.6376751,-33.7799987792969
873.6533001,-32.2599983215332
873.6689251,-30.6900005340576
873.6845501,-28.7800006866455
873.7001751,-26.5100002288818
873.7158001,-24.0900001525879
873.7314251,-21.6700000762939
873.7470501,-19.2099990844727
873.7626751,-16.3899993896484
873.7783001,-12.3999996185303
873.7939251,-5.55999994277954
873.8095501,6.51999998092651
873.8251751,25.5400009155273
873.8408001,50.1300010681152
873.8564251,75.0
873.8720501,93.1900024414063
873.8876751,99.9199981689453
873.9033001,94.7300033569336
873.9189251,80.9100036621094
873.9345501,63.1300010681152
873.9501751,45.2099990844727
873.9658001,28.9599990844727
873.9814251,14.3500003814697
873.9970501,0.419999986886978
874.0126751,-13.6199998855591
874.0283001,-27.4699993133545
874.0439251,-39.5499992370605
874.0595501,-47.9599990844727
874.0751751,-51.689998626709
874.0908001,-51.0900001525879
874.1064251,-47.5699996948242
874.1220501,-42.7999992370605
874.1376751,-38.1300010681152
874.1533001,-34.2400016784668
874.1689251,-31.2399997711182
874.1845501,-28.9300003051758
874.2001751,-27.0100002288818
874.2158001,-25.2299995422363
874.2314251,-23.4699993133545
874.2470501,-21.8500003814697
874.2626751,-20.5499992370605
874.2783001,-19.5599994659424
874.2939251,-18.5
874.3095501,-16.5900001525879
874.3251751,-12.6700000762939
874.3408001,-4.96999979019165
874.3564251,8.81999969482422
874.3720501,30.1299991607666
874.3876751,56.5999984741211
874.4033001,81.5500030517578
874.4189251,97.4100036621094
874.4345501,100.120002746582
874.4501751,90.8199996948242
874.4658001,74.3199996948242
874.4814251,56.1399993896484
874.4970501,39.8199996948242
874.5126751,25.9899997711182
874.5283001,13.2299995422363
874.5439251,-0.119999997317791
874.5595501,-14.5500001907349
874.5751751,-28.9400005340576
874.5908001,-41.1699981689453
874.6064251,-49.3699989318848
874.6220501,-52.9000015258789
874.6376751,-52.4099998474121
874.6533001,-49.3400001525879
874.6689251,-45.2299995422363
874.6845501,-41.25
874.7001751,-37.8699989318848
874.7158001,-35.0699996948242
