Time(s),Value(%)
864.0126751,7.78000020980835
864.0283001,5.30999994277954
864.0439251,3.14000010490417
864.0595501,1.76999998092651
864.0751751,1.49000000953674
864.0908001,1.72000002861023
864.1064251,1.26999998092651
864.1220501,-0.629999995231628
864.1376751,-3.9300000667572
864.1533001,-7.98999977111816
864.1689251,-12.210000038147
864.1845501,-16.1499996185303
864.2001751,-19.2399997711182
864.2158001,-20.75
864.2314251,-20.2800006866455
864.2470501,-18.4300003051758
864.2626751,-16.6299991607666
864.2783001,-16.0900001525879
864.2939251,-16.8700008392334
864.3095501,-17.9899997711182
864.3251751,-18.2700004577637
864.3408001,-16.8899993896484
864.3564251,-13.5600004196167
864.3720501,-8.55000019073486
864.3876751,-2.46000003814697
864.4033001,4.28000020980835
864.4189251,11.4899997711182
864.4345501,18.7600002288818
864.4501751,25.3600006103516
864.4658001,30.5499992370605
864.4814251,33.7999992370605
864.4970501,34.7000007629395
864.5126751,32.9599990844727
864.5283001,28.6900005340576
864.5439251,22.7099990844727
864.5595501,16.2099990844727
864.5751751,10.2200002670288
864.5908001,5.5
864.6064251,2.63000011444092
864.6220501,1.66999995708466
864.6376751,1.83000004291534
864.6533001,1.96000003814697
864.6689251,1.35000002384186
864.6845501,0.0500000007450581
864.7001751,-1.73000001907349
864.7158001,-4.05000019073486
864.7314251,-6.94999980926514
864.7470501,-10.0299997329712
864.7626751,-12.5
864.7783001,-13.5
864.7939251,-12.6199998855591
864.8095501,-10.3100004196167
864.8251751,-7.67000007629395
864.8408001,-5.88000011444092
864.8564251,-5.59999990463257
864.8720501,-6.86999988555908
864.8876751,-9.23999977111816
864.9033001,-12.0100002288818
864.9189251,-14.4300003051758
864.9345501,-16.1700000762939
864.9501751,-17.2099990844727
864.9658001,-17.5100002288818
864.9814251,-16.6800003051758
864.9970501,-14.1899995803833
865.0126751,-9.48999977111816
865.0283001,-2.53999996185303
865.0439251,5.67000007629395
865.0595501,13.4300003051758
865.0751751,19.2700004577637
865.0908001,22.7299995422363
865.1064251,24.1399993896484
865.1220501,24.0100002288818
865.1376751,22.8299999237061
865.1533001,21.1700000762939
865.1689251,19.6000003814697
865.1845501,18.4699993133545
865.2001751,17.3999996185303
865.2158001,15.4499998092651
865.2314251,11.8199996948242
865.2470501,6.59999990463257
865.2626751,0.879999995231628
865.2783001,-3.89000010490417
865.2939251,-6.76999998092651
865.3095501,-7.88000011444092
865.3251751,-8.03999996185303
865.3408001,-7.84999990463257
865.3564251,-7.42000007629395
865.3720501,-6.6399998664856
865.3876751,-5.90000009536743
865.4033001,-6.25
865.4189251,-8.5
865.4345501,-12.3599996566772
865.4501751,-16.5599994659424
865.4658001,-19.5400009155273
865.4814251,-20.1700000762939
865.4970501,-18.25
865.5126751,-14.5500001907349
865.5283001,-10.5500001907349
865.5439251,-8.02000045776367
865.5595501,-8.17000007629395
865.5751751,-10.7299995422363
865.5908001,-13.8500003814697
865.6064251,-15.1599998474121
865.6220501,-13.1099996566772
865.6376751,-7.55000019073486
865.6533001,0.349999994039536
865.6689251,8.64999961853027
865.6845501,15.1700000762939
865.7001751,18.4400005340576
865.7158001,18.5300006866455
865.7314251,17.0699996948242
865.7470501,16.1000003814697
865.7626751,16.5300006866455
865.7783001,17.7399997711182
865.7939251,18.3099994659424
865.8095501,17.2399997711182
865.8251751,14.3900003433228
865.8408001,10.289999961853
865.8564251,5.75
865.8720501,1.54999995231628
865.8876751,-1.80999994277954
865.9033001,-4.3600001335144
865.9189251,-6.44999980926514
865.9345501,-8.52000045776367
865.9501751,-10.6099996566772
865.9658001,-12.3999996185303
865.9814251,-13.8000001907349
865.9970501,-15.1999998092651
866.0126751,-16.7999992370605
866.0283001,-18.1499996185303
866.0439251,-18.7199993133545
866.0595501,-18.6000003814697
866.0751751,-18.2600002288818
866.0908001,-17.7900009155273
866.1064251,-16.7299995422363
866.1220501,-14.8299999237061
866.1376751,-12.6099996566772
866.1533001,-11.0900001525879
866.1689251,-10.9899997711182
866.1845501,-12.1099996566772
866.2001751,-13.3500003814697
866.2158001,-13.1700000762939
866.2314251,-10.4099998474121
866.2470501,-4.84999990463257
866.2626751,2.61999988555908
866.2783001,10.5100002288818
866.2939251,17.3199996948242
866.3095501,22.2099990844727
866.3251751,25.0900001525879
866.3408001,26.0599994659424
866.3564251,25.1200008392334
866.3720501,22.3199996948242
866.3876751,18.0799999237061
866.4033001,13.3800001144409
866.4189251,9.3100004196167
866.4345501,6.51999998092651
866.4501751,4.92000007629395
866.4658001,3.99000000953674
866.4814251,3.17000007629395
866.4970501,1.9099999666214
866.5126751,-0.200000002980232
866.5283001,-3.19000005722046
866.5439251,-6.59999990463257
866.5595501,-9.85000038146973
866.5751751,-12.6099996566772
866.5908001,-14.8100004196167
866.6064251,-16.3899993896484
866.6220501,-16.9500007629395
866.6376751,-16.1900005340576
866.6533001,-14.3800001144409
866.6689251,-12.3800001144409
866.6845501,-10.9499998092651
866.7001751,-10.2600002288818
866.7158001,-9.98999977111816
866.7314251,-9.93000030517578
866.7470501,-10.2299995422363
866.7626751,-10.960000038147
866.7783001,-11.6199998855591
866.7939251,-11.0799999237061
866.8095501,-8.35000038146973
866.8251751,-3.44000005722046
866.8408001,2.47000002861023
866.8564251,7.69999980926514
866.8720501,10.8199996948242
866.8876751,11.2700004577637
866.9033001,9.73999977111816
866.9189251,7.90000009536743
866.9345501,7.48000001907349
866.9501751,9.21000003814697
866.9658001,12.3599996566772
866.9814251,15.3599996566772
866.9970501,16.9899997711182
867.0126751,16.7199993133545
867.0283001,14.5200004577637
867.0439251,10.6999998092651
867.0595501,5.92000007629395
867.0751751,1.11000001430511
867.0908001,-2.72000002861023
867.1064251,-4.78999996185303
867.1220501,-4.73999977111816
867.1376751,-3.00999999046326
867.1533001,-0.959999978542328
867.1689251,-0.259999990463257
867.1845501,-1.75
867.2001751,-5.01000022888184
867.2158001,-8.65999984741211
867.2314251,-11.0500001907349
867.2470501,-11.1099996566772
867.2626751,-9.05000019073486
867.2783001,-6.30000019073486
867.2939251,-4.69000005722046
867.3095501,-5.3600001335144
867.3251751,-8.0600004196167
867.3408001,-11.289999961853
867.3564251,-13.1899995803833
867.3720501,-12.4099998474121
867.3876751,-8.64000034332275
867.4033001,-2.69000005722046
867.4189251,4.01999998092651
867.4345501,10.2299995422363
867.4501751,14.9499998092651
867.4658001,17.7399997711182
867.4814251,18.8600006103516
867.4970501,19.0400009155273
867.5126751,18.7999992370605
867.5283001,18.3899993896484
867.5439251,17.8400001525879
867.5595501,16.8999996185303
867.5751751,14.9899997711182
867.5908001,11.4899997711182
867.6064251,6.38000011444092
867.6220501,0.46000000834465
867.6376751,-4.82000017166138
867.6533001,-8.15999984741211
867.6689251,-9.10000038146973
867.6845501,-8.3100004196167
867.7001751,-7.13000011444092
867.7158001,-6.69999980926514
867.7314251,-7.17000007629395
867.7470501,-7.88000011444092
867.7626751,-8.22999954223633
867.7783001,-8.22000026702881
867.7939251,-8.26000022888184
867.8095501,-8.73999977111816
867.8251751,-9.77999973297119
867.8408001,-11.3100004196167
867.8564251,-12.9899997711182
867.8720501,-14.4200000762939
867.8876751,-15.25
867.9033001,-15.3199996948242
867.9189251,-14.4799995422363
867.9345501,-12.4099998474121
867.9501751,-8.93000030517578
867.9658001,-4.30000019073486
867.9814251,0.819999992847443
867.9970501,5.86999988555908
868.0126751,10.539999961853
868.0283001,14.5
868.0439251,17.4099998474121
868.0595501,19.3700008392334
868.0751751,21.0
868.0908001,22.8500003814697
868.1064251,24.75
868.1220501,25.7399997711182
868.1376751,24.6200008392334
868.1533001,20.8799991607666
868.1689251,15.0100002288818
868.1845501,8.14999961853027
868.2001751,1.63999998569489
868.2158001,-3.34999990463257
868.2314251,-6.15999984741211
868.2470501,-6.92000007629395
868.2626751,-6.42000007629395
868.2783001,-5.67999982833862
868.2939251,-5.42000007629395
868.3095501,-5.84999990463257
868.3251751,-6.78999996185303
868.3408001,-8.06999969482422
868.3564251,-9.64999961853027
868.3720501,-11.4099998474121
868.3876751,-12.960000038147
868.4033001,-13.9499998092651
868.4189251,-14.4300003051758
868.4345501,-14.8400001525879
868.4501751,-15.4499998092651
868.4658001,-16.0900001525879
868.4814251,-16.3799991607666
868.4970501,-16.0699996948242
868.5126751,-15.0799999237061
868.5283001,-13.1700000762939
868.5439251,-9.85999965667725
868.5595501,-4.75
868.5751751,1.85000002384186
868.5908001,8.82999992370605
868.6064251,14.8100004196167
868.6220501,19.1100006103516
868.6376751,22.1900005340576
868.6533001,24.9300003051758
868.6689251,27.7900009155273
868.6845501,30.7399997711182
868.7001751,33.4300003051758
868.7158001,35.0699996948242
868.7314251,34.4700012207031
868.7470501,30.5599994659424
868.7626751,23.2099990844727
868.7783001,13.710000038147
868.7939251,4.34999990463257
868.8095501,-2.91000008583069
868.8251751,-7.63000011444092
868.8408001,-10.710000038147
868.8564251,-13.4399995803833
868.8720501,-16.4699993133545
868.8876751,-19.2600002288818
868.9033001,-20.5
868.9189251,-19.1900005340576
868.9345501,-15.5600004196167
868.9501751,-11.0799999237061
868.9658001,-7.57000017166138
868.9814251,-6.26000022888184
868.9970501,-7.57000017166138
869.0126751,-11.0100002288818
869.0283001,-15.2399997711182
869.0439251,-18.6399993896484
869.0595501,-19.9099998474121
869.0751751,-18.5499992370605
869.0908001,-15.0299997329712
869.1064251,-10.5699996948242
869.1220501,-6.32999992370605
869.1376751,-2.79999995231628
869.1533001,0.270000010728836
869.1689251,3.48000001907349
869.1845501,7.23000001907349
869.2001751,11.2700004577637
869.2158001,14.6999998092651
869.2314251,16.5699996948242
869.2470501,16.7600002288818
869.2626751,16.0499992370605
869.2783001,15.5100002288818
869.2939251,15.6899995803833
869.3095501,16.5300006866455
869.3251751,17.5100002288818
869.3408001,17.8500003814697
869.3564251,16.7700004577637
869.3720501,14.039999961853
869.3876751,10.1499996185303
869.4033001,6.05000019073486
869.4189251,2.65000009536743
869.4345501,0.430000007152557
869.4501751,-0.920000016689301
869.4658001,-2.3199999332428
869.4814251,-4.59000015258789
869.4970501,-7.80999994277954
869.5126751,-11.4499998092651
869.5283001,-14.8900003433228
869.5439251,-17.7199993133545
869.5595501,-19.6399993896484
869.5751751,-20.4400005340576
869.5908001,-20.25
869.6064251,-19.7900009155273
869.6220501,-20.0200004577637
869.6376751,-21.3999996185303
869.6533001,-23.2800006866455
869.6689251,-23.8899993896484
869.6845501,-21.3099994659424
869.7001751,-14.9700002670288
869.7158001,-6.30000019073486
869.7314251,2.26999998092651
869.7470501,9.02999973297119
869.7626751,13.7799997329712
869.7783001,17.3899993896484
869.7939251,20.7700004577637
869.8095501,24.1200008392334
869.8251751,26.9699993133545
869.8408001,28.7999992370605
869.8564251,29.3999996185303
869.8720501,28.6900005340576
869.8876751,26.5
869.9033001,22.6000003814697
869.9189251,17.2800006866455
869.9345501,11.6499996185303
869.9501751,7.01999998092651
869.9658001,3.94000005722046
869.9814251,1.80999994277954
869.9970501,-0.439999997615814
870.0126751,-3.50999999046326
870.0283001,-7.32000017166138
870.0439251,-11.25
870.0595501,-14.6499996185303
870.0751751,-17.0100002288818
870.0908001,-17.9200000762939
870.1064251,-17.1700000762939
870.1220501,-15.1499996185303
870.1376751,-12.8299999237061
870.1533001,-11.3500003814697
870.1689251,-11.2600002288818
870.1845501,-12.1599998474121
870.2001751,-13.0900001525879
870.2158001,-13.25
870.2314251,-12.3900003433228
870.2470501,-10.6000003814697
870.2626751,-7.8899998664856
870.2783001,-3.98000001907349
870.2939251,1.42999994754791
870.3095501,8.39999961853027
870.3251751,16.4799995422363
870.3408001,24.6000003814697
870.3564251,31.2600002288818
870.3720501,35.1100006103516
870.3876751,35.6699981689453
870.4033001,33.6599998474121
870.4189251,30.4799995422363
870.4345501,27.1299991607666
870.4501751,23.5300006866455
870.4658001,18.7800006866455
870.4814251,12.1899995803833
870.4970501,4.19000005722046
870.5126751,-3.70000004768372
870.5283001,-9.88000011444092
870.5439251,-13.5600004196167
870.5595501,-14.8000001907349
870.5751751,-14.0200004577637
870.5908001,-11.7200002670288
870.6064251,-8.77000045776367
870.6220501,-6.34000015258789
870.6376751,-5.46000003814697
870.6533001,-6.48999977111816
870.6689251,-8.98999977111816
870.6845501,-12.1499996185303
870.7001751,-15.1000003814697
870.7158001,-17.1000003814697
870.7314251,-17.6700000762939
870.7470501,-16.7600002288818
870.7626751,-14.7700004577637
870.7783001,-12.3800001144409
870.7939251,-10.2799997329712
870.8095501,-8.89999961853027
870.8251751,-8.10999965667725
870.8408001,-6.98999977111816
870.8564251,-4.32999992370605
870.8720501,0.550000011920929
870.8876751,7.26000022888184
870.9033001,14.3800001144409
870.9189251,20.4300003051758
870.9345501,24.6700000762939
870.9501751,27.2099990844727
870.9658001,28.5
870.9814251,28.8199996948242
870.9970501,28.0400009155273
871.0126751,25.8199996948242
871.0283001,22.1299991607666
871.0439251,17.4599990844727
871.0595501,12.4899997711182
871.0751751,7.78000020980835
871.0908001,3.6800000667572
871.1064251,0.330000013113022
871.1220501,-2.38000011444092
871.1376751,-4.80999994277954
871.1533001,-7.48000001907349
871.1689251,-10.9799995422363
871.1845501,-15.5
871.2001751,-20.5599994659424
871.2158001,-24.9799995422363
871.2314251,-27.4099998474121
871.2470501,-27.1399993896484
871.2626751,-24.7700004577637
871.2783001,-21.9500007629395
871.2939251,-20.3999996185303
871.3095501,-21.0799999237061
871.3251751,-23.9099998474121
871.3408001,-27.8099994659424
871.3564251,-31.1900005340576
871.3720501,-32.689998626709
871.3876751,-31.5699996948242
871.4033001,-27.5599994659424
871.4189251,-20.5599994659424
871.4345501,-10.6499996185303
871.4501751,1.54999995231628
871.4658001,14.4200000762939
871.4814251,25.4799995422363
871.4970501,32.4799995422363
871.5126751,34.5200004577637
871.5283001,32.3400001525879
871.5439251,27.7800006866455
871.5595501,22.7399997711182
871.5751751,18.3299999237061
871.5908001,14.6599998474121
871.6064251,11.460000038147
871.6220501,8.47999954223633
871.6376751,5.67000007629395
871.6533001,2.9300000667572
871.6689251,0.109999999403954
871.6845501,-2.75
871.7001751,-5.30999994277954
871.7158001,-6.92999982833862
871.7314251,-7.05999994277954
871.7470501,-5.6100001335144
871.7626751,-3.35999989509583
871.7783001,-1.78999996185303
871.7939251,-2.26999998092651
871.8095501,-5.23999977111816
871.8251751,-10.1000003814697
871.8408001,-15.6599998474121
871.8564251,-20.5900001525879
871.8720501,-23.7999992370605
871.8876751,-25.0
871.9033001,-24.7199993133545
871.9189251,-23.8700008392334
871.9345501,-23.0400009155273
871.9501751,-21.9599990844727
871.9658001,-19.5900001525879
871.9814251,-14.9399995803833
871.9970501,-7.8600001335144
872.0126751,0.660000026226044
872.0283001,8.92000007629395
872.0439251,15.3599996566772
872.0595501,19.3799991607666
872.0751751,21.4599990844727
872.0908001,22.4799995422363
872.1064251,22.9500007629395
872.1220501,22.8899993896484
872.1376751,22.1000003814697
872.1533001,20.5400009155273
872.1689251,18.3299999237061
872.1845501,15.5
872.2001751,11.960000038147
872.2158001,7.92000007629395
872.2314251,4.1399998664856
872.2470501,1.33000004291534
872.2626751,-0.349999994039536
872.2783001,-1.32000005245209
872.2939251,-1.99000000953674
872.3095501,-2.58999991416931
872.3251751,-3.22000002861023
872.3408001,-3.9300000667572
872.3564251,-4.90999984741211
872.3720501,-6.40000009536743
872.3876751,-8.57999992370605
872.4033001,-11.4300003051758
872.4189251,-14.789999961853
872.4345501,-18.3600006103516
872.4501751,-21.6000003814697
872.4658001,-23.8700008392334
872.4814251,-24.6900005340576
872.4970501,-23.7299995422363
872.5126751,-20.7900009155273
872.5283001,-15.8599996566772
872.5439251,-9.32999992370605
872.5595501,-1.83000004291534
872.5751751,6.09999990463257
872.5908001,13.9399995803833
872.6064251,21.0599994659424
872.6220501,27.1800003051758
872.6376751,32.4599990844727
872.6533001,37.0800018310547
872.6689251,40.6399993896484
872.6845501,42.4599990844727
872.7001751,42.0299987792969
872.7158001,39.2799987792969
872.7314251,34.5200004577637
872.7470501,28.2299995422363
872.7626751,21.0100002288818
872.7783001,13.6000003814697
872.7939251,6.75
872.8095501,1.03999996185303
872.8251751,-3.19000005722046
872.8408001,-5.98999977111816
872.8564251,-7.76000022888184
872.8720501,-9.18000030517578
872.8876751,-11.0100002288818
872.9033001,-13.8000001907349
872.9189251,-17.5699996948242
872.9345501,-21.6700000762939
872.9501751,-25.25
872.9658001,-27.7600002288818
872.9814251,-29.2099990844727
872.9970501,-29.9699993133545
873.0126751,-30.2099990844727
873.0283001,-29.7800006866455
873.0439251,-28.4200000762939
873.0595501,-25.9699993133545
873.0751751,-22.1100006103516
873.0908001,-16.3099994659424
873.1064251,-8.21000003814697
873.1220501,1.73000001907349
873.1376751,12.3000001907349
873.1533001,22.0300006866455
873.1689251,29.5900001525879
873.1845501,33.9000015258789
873.2001751,34.5400009155273
873.2158001,32.2799987792969
873.2314251,28.9400005340576
873.2470501,26.3899993896484
873.2626751,25.3099994659424
873.2783001,24.7800006866455
873.2939251,23.0599994659424
873.3095501,18.8899993896484
873.3251751,12.3900003433228
873.3408001,4.98999977111816
873.3564251,-1.47000002861023
873.3720501,-5.84000015258789
873.3876751,-8.18000030517578
873.4033001,-9.56999969482422
873.4189251,-11.1499996185303
873.4345501,-13.2299995422363
873.4501751,-15.210000038147
873.4658001,-16.4599990844727
873.4814251,-16.9899997711182
873.4970501,-17.3199996948242
873.5126751,-18.2299995422363
873.5283001,-20.0900001525879
873.5439251,-22.5400009155273
873.5595501,-24.7299995422363
873.5751751,-26.0400009155273
873.5908001,-26.2000007629395
873.6064251,-25.1299991607666
873.6220501,-22.7099990844727
873.6376751,-18.5400009155273
873.6533001,-12.1000003814697
873.6689251,-3.4300000667572
873.6845501,6.25
873.7001751,15.039999961853
873.7158001,21.5599994659424
873.7314251,25.7299995422363
873.7470501,28.25
873.7626751,29.6399993896484
873.7783001,29.7099990844727
873.7939251,28.0100002288818
873.8095501,24.3700008392334
873.8251751,19.1700000762939
873.8408001,13.2700004577637
873.8564251,7.73999977111816
873.8720501,3.09999990463257
873.8876751,-0.860000014305115
873.9033001,-4.59000015258789
873.9189251,-8.03999996185303
873.9345501,-10.6300001144409
873.9501751,-12.0
873.9658001,-12.539999961853
873.9814251,-13.1199998855591
873.9970501,-14.4200000762939
874.0126751,-16.5599994659424
874.0283001,-19.1900005340576
874.0439251,-21.7600002288818
874.0595501,-23.7700004577637
874.0751751,-24.9799995422363
874.0908001,-25.4500007629395
874.1064251,-25.4699993133545
874.1220501,-25.5799999237061
874.1376751,-26.1800003051758
874.1533001,-26.7999992370605
874.1689251,-25.8500003814697
874.1845501,-21.5499992370605
874.2001751,-13.3900003433228
874.2158001,-2.60999989509583
874.2314251,8.51000022888184
874.2470501,17.8299999237061
874.2626751,24.1499996185303
874.2783001,27.7399997711182
874.2939251,29.9699993133545
874.3095501,32.0699996948242
874.3251751,34.1599998474121
874.3408001,35.4199981689453
874.3564251,34.9599990844727
874.3720501,32.4500007629395
874.3876751,28.2999992370605
874.4033001,23.3500003814697
874.4189251,18.25
874.4345501,12.960000038147
874.4501751,7.13000011444092
874.4658001,0.699999988079071
874.4814251,-5.71000003814697
874.4970501,-11.0699996948242
874.5126751,-14.5799999237061
874.5283001,-16.1599998474121
874.5439251,-16.2999992370605
874.5595501,-15.6000003814697
874.5751751,-14.4300003051758
874.5908001,-13.0100002288818
874.6064251,-11.6400003433228
874.6220501,-11.1000003814697
874.6376751,-12.4099998474121
874.6533001,-16.0799999237061
874.6689251,-21.5499992370605
874.6845501,-27.0599994659424
874.7001751,-30.2999992370605
874.7158001,-29.4699993133545
874.7314251,-24.0699996948242
