Time(s),Value(%)
864.0126751,42.6599998474121
864.0283001,47.7700004577637
864.0439251,51.810001373291
864.0595501,54.9300003051758
864.0751751,57.4500007629395
864.0908001,59.5400009155273
864.1064251,61.0900001525879
864.1220501,61.8400001525879
864.1376751,61.7099990844727
864.1533001,60.8800010681152
864.1689251,59.7099990844727
864.1845501,58.560001373291
864.2001751,57.6100006103516
864.2158001,56.7599983215332
864.2314251,55.7299995422363
864.2470501,54.189998626709
864.2626751,52.0
864.2783001,49.1100006103516
864.2939251,45.3400001525879
864.3095501,40.5699996948242
864.3251751,34.939998626709
864.3408001,29.0900001525879
864.3564251,23.9599990844727
864.3720501,20.1499996185303
864.3876751,17.4400005340576
864.4033001,15.2299995422363
864.4189251,13.210000038147
864.4345501,11.5500001907349
864.4501751,10.5699996948242
864.4658001,10.3599996566772
864.4814251,10.8299999237061
864.4970501,11.8800001144409
864.5126751,13.7799997329712
864.5283001,16.8999996185303
864.5439251,21.4300003051758
864.5595501,27.1299991607666
864.5751751,33.5
864.5908001,39.9300003051758
864.6064251,46.0099983215332
864.6220501,51.5499992370605
864.6376751,56.5299987792969
864.6533001,60.8899993896484
864.6689251,64.4000015258789
864.6845501,66.7799987792969
864.7001751,67.9800033569336
864.7158001,68.1699981689453
864.7314251,67.5699996948242
864.7470501,66.3499984741211
864.7626751,64.7300033569336
864.7783001,63.0299987792969
864.7939251,61.6599998474121
864.8095501,60.7599983215332
864.8251751,60.0
864.8408001,58.8699989318848
864.8564251,57.189998626709
864.8720501,55.2099990844727
864.8876751,53.3600006103516
864.9033001,51.9000015258789
864.9189251,50.8300018310547
864.9345501,49.6599998474121
864.9501751,47.5699996948242
864.9658001,43.8499984741211
864.9814251,38.3199996948242
864.9970501,31.2099990844727
865.0126751,22.75
865.0283001,13.0799999237061
865.0439251,2.60999989509583
865.0595501,-7.53000020980835
865.0751751,-15.6700000762939
865.0908001,-20.3400001525879
865.1064251,-21.1800003051758
865.1220501,-18.8099994659424
865.1376751,-14.1199998855591
865.1533001,-7.84999990463257
865.1689251,-0.629999995231628
865.1845501,6.94000005722046
865.2001751,14.4099998474121
865.2158001,21.5100002288818
865.2314251,28.2900009155273
865.2470501,34.939998626709
865.2626751,41.560001373291
865.2783001,47.9900016784668
865.2939251,53.8600006103516
865.3095501,58.7900009155273
865.3251751,62.6399993896484
865.3408001,65.5
865.3564251,67.5199966430664
865.3720501,68.7399978637695
865.3876751,69.0899963378906
865.4033001,68.620002746582
865.4189251,67.6399993896484
865.4345501,66.6699981689453
865.4501751,66.0899963378906
865.4658001,65.9899978637695
865.4814251,66.4300003051758
865.4970501,66.7600021362305
865.5126751,66.5299987792969
865.5283001,65.4400024414063
865.5439251,63.4199981689453
865.5595501,60.5400009155273
865.5751751,56.7299995422363
865.5908001,51.8899993896484
865.6064251,46.1699981689453
865.6220501,40.1699981689453
865.6376751,34.8800010681152
865.6533001,30.9799995422363
865.6689251,28.4599990844727
865.6845501,26.8099994659424
865.7001751,25.6800003051758
865.7158001,25.0699996948242
865.7314251,25.0900001525879
865.7470501,25.6800003051758
865.7626751,26.6599998474121
865.7783001,27.9200000762939
865.7939251,29.5900001525879
865.8095501,31.9099998474121
865.8251751,34.9199981689453
865.8408001,38.2400016784668
865.8564251,41.25
865.8720501,43.3600006103516
865.8876751,44.3600006103516
865.9033001,44.4099998474121
865.9189251,43.8699989318848
865.9345501,42.8899993896484
865.9501751,41.2900009155273
865.9658001,38.8600006103516
865.9814251,35.7700004577637
865.9970501,32.5099983215332
866.0126751,29.6000003814697
866.0283001,27.2800006866455
866.0439251,25.4599990844727
866.0595501,23.75
866.0751751,21.6599998474121
866.0908001,18.8199996948242
866.1064251,15.1499996185303
866.1220501,10.6700000762939
866.1376751,5.30999994277954
866.1533001,-1.00999999046326
866.1689251,-8.14999961853027
866.1845501,-15.3400001525879
866.2001751,-21.4599990844727
866.2158001,-25.7199993133545
866.2314251,-28.3600006103516
866.2470501,-30.2000007629395
866.2626751,-31.8400001525879
866.2783001,-33.3499984741211
866.2939251,-34.6199989318848
866.3095501,-35.6399993896484
866.3251751,-36.4700012207031
866.3408001,-36.9599990844727
866.3564251,-36.6300010681152
866.3720501,-34.9599990844727
866.3876751,-31.8199996948242
866.4033001,-27.5200004577637
866.4189251,-22.5599994659424
866.4345501,-17.3999996185303
866.4501751,-12.3599996566772
866.4658001,-7.61999988555908
866.4814251,-3.28999996185303
866.4970501,0.430000007152557
866.5126751,3.16000008583069
866.5283001,4.51999998092651
866.5439251,4.44000005722046
866.5595501,3.09999990463257
866.5751751,0.639999985694885
866.5908001,-2.80999994277954
866.6064251,-7.01999998092651
866.6220501,-11.4099998474121
866.6376751,-15.1899995803833
866.6533001,-17.8999996185303
866.6689251,-19.7800006866455
866.6845501,-21.4300003051758
866.7001751,-23.1100006103516
866.7158001,-24.6399993896484
866.7314251,-25.6499996185303
866.7470501,-26.0100002288818
866.7626751,-25.8700008392334
866.7783001,-25.6800003051758
866.7939251,-26.0799999237061
866.8095501,-27.5300006866455
866.8251751,-30.1100006103516
866.8408001,-33.5900001525879
866.8564251,-37.6800003051758
866.8720501,-42.189998626709
866.8876751,-46.8300018310547
866.9033001,-50.9799995422363
866.9189251,-53.5699996948242
866.9345501,-53.5999984741211
866.9501751,-50.7299995422363
866.9658001,-45.3899993896484
866.9814251,-38.4199981689453
866.9970501,-30.7000007629395
867.0126751,-22.9300003051758
867.0283001,-15.5600004196167
867.0439251,-8.80000019073486
867.0595501,-2.77999997138977
867.0751751,2.33999991416931
867.0908001,6.46999979019165
867.1064251,9.59000015258789
867.1220501,11.8100004196167
867.1376751,13.1800003051758
867.1533001,13.7200002670288
867.1689251,13.539999961853
867.1845501,12.8999996185303
867.2001751,12.1099996566772
867.2158001,11.289999961853
867.2314251,10.2399997711182
867.2470501,8.72999954223633
867.2626751,6.86999988555908
867.2783001,5.01000022888184
867.2939251,3.54999995231628
867.3095501,2.60999989509583
867.3251751,2.05999994277954
867.3408001,1.51999998092651
867.3564251,0.490000009536743
867.3720501,-1.36000001430511
867.3876751,-4.1100001335144
867.4033001,-7.59000015258789
867.4189251,-11.6499996185303
867.4345501,-16.1800003051758
867.4501751,-20.9899997711182
867.4658001,-25.5499992370605
867.4814251,-28.9899997711182
867.4970501,-30.3799991607666
867.5126751,-29.2399997711182
867.5283001,-25.6499996185303
867.5439251,-20.1499996185303
867.5595501,-13.5100002288818
867.5751751,-6.5
867.5908001,0.25
867.6064251,6.3899998664856
867.6220501,11.8100004196167
867.6376751,16.4899997711182
867.6533001,20.5100002288818
867.6689251,23.9400005340576
867.6845501,26.8700008392334
867.7001751,29.3099994659424
867.7158001,31.25
867.7314251,32.6800003051758
867.7470501,33.560001373291
867.7626751,33.7599983215332
867.7783001,33.0900001525879
867.7939251,31.4400005340576
867.8095501,28.9500007629395
867.8251751,26.0200004577637
867.8408001,23.0799999237061
867.8564251,20.4699993133545
867.8720501,18.2600002288818
867.8876751,16.3199996948242
867.9033001,14.3100004196167
867.9189251,11.8299999237061
867.9345501,8.53999996185303
867.9501751,4.42000007629395
867.9658001,-0.379999995231628
867.9814251,-5.73000001907349
867.9970501,-11.5500001907349
868.0126751,-17.6599998474121
868.0283001,-23.6200008392334
868.0439251,-28.6800003051758
868.0595501,-32.0299987792969
868.0751751,-33.0800018310547
868.0908001,-31.6900005340576
868.1064251,-28.1399993896484
868.1220501,-23.1000003814697
868.1376751,-17.3700008392334
868.1533001,-11.6899995803833
868.1689251,-6.5
868.1845501,-1.87999999523163
868.2001751,2.41000008583069
868.2158001,6.69999980926514
868.2314251,11.1400003433228
868.2470501,15.6499996185303
868.2626751,20.0
868.2783001,23.9400005340576
868.2939251,27.2999992370605
868.3095501,29.7600002288818
868.3251751,30.8400001525879
868.3408001,30.0499992370605
868.3564251,27.3400001525879
868.3720501,23.1800003051758
868.3876751,18.3199996948242
868.4033001,13.3999996185303
868.4189251,8.65999984741211
868.4345501,4.01000022888184
868.4501751,-0.699999988079071
868.4658001,-5.5
868.4814251,-10.25
868.4970501,-14.8699998855591
868.5126751,-19.5
868.5283001,-24.3299999237061
868.5439251,-29.3299999237061
868.5595501,-34.189998626709
868.5751751,-38.5999984741211
868.5908001,-42.4199981689453
868.6064251,-45.6399993896484
868.6220501,-48.2000007629395
868.6376751,-49.8400001525879
868.6533001,-50.2299995422363
868.6689251,-49.2900009155273
868.6845501,-47.0800018310547
868.7001751,-43.5299987792969
868.7158001,-38.5800018310547
868.7314251,-32.4199981689453
868.7470501,-25.6599998474121
868.7626751,-19.0699996948242
868.7783001,-13.1899995803833
868.7939251,-8.10000038146973
868.8095501,-3.76999998092651
868.8251751,-0.409999996423721
868.8408001,1.54999995231628
868.8564251,1.98000001907349
868.8720501,1.13999998569489
868.8876751,-0.400000005960464
868.9033001,-2.24000000953674
868.9189251,-4.32999992370605
868.9345501,-6.84999990463257
868.9501751,-9.94999980926514
868.9658001,-13.6199998855591
868.9814251,-17.7399997711182
868.9970501,-22.1599998474121
869.0126751,-26.7000007629395
869.0283001,-31.1299991607666
869.0439251,-35.2700004577637
869.0595501,-39.0900001525879
869.0751751,-42.8400001525879
869.0908001,-46.7599983215332
869.1064251,-50.8800010681152
869.1220501,-54.9099998474121
869.1376751,-58.5499992370605
869.1533001,-61.6199989318848
869.1689251,-64.120002746582
869.1845501,-66.0699996948242
869.2001751,-67.370002746582
869.2158001,-67.8899993896484
869.2314251,-67.5699996948242
869.2470501,-66.2900009155273
869.2626751,-63.7599983215332
869.2783001,-59.6599998474121
869.2939251,-54.0999984741211
869.3095501,-47.5699996948242
869.3251751,-40.7700004577637
869.3408001,-34.0999984741211
869.3564251,-27.5900001525879
869.3720501,-21.2800006866455
869.3876751,-15.5900001525879
869.4033001,-11.1800003051758
869.4189251,-8.40999984741211
869.4345501,-7.07999992370605
869.4501751,-6.65000009536743
869.4658001,-6.67999982833862
869.4814251,-7.11999988555908
869.4970501,-8.1899995803833
869.5126751,-10.0200004577637
869.5283001,-12.5200004577637
869.5439251,-15.4200000762939
869.5595501,-18.4400005340576
869.5751751,-21.3700008392334
869.5908001,-24.0499992370605
869.6064251,-26.4400005340576
869.6220501,-28.6499996185303
869.6376751,-30.9699993133545
869.6533001,-33.7000007629395
869.6689251,-36.8400001525879
869.6845501,-40.1599998474121
869.7001751,-43.3199996948242
869.7158001,-46.060001373291
869.7314251,-48.3199996948242
869.7470501,-50.0900001525879
869.7626751,-51.3499984741211
869.7783001,-52.0499992370605
869.7939251,-52.1699981689453
869.8095501,-51.5
869.8251751,-49.5299987792969
869.8408001,-45.810001373291
869.8564251,-40.3300018310547
869.8720501,-33.6100006103516
869.8876751,-26.3099994659424
869.9033001,-18.8400001525879
869.9189251,-11.2299995422363
869.9345501,-3.5699999332428
869.9501751,3.50999999046326
869.9658001,9.19999980926514
869.9814251,13.0299997329712
869.9970501,15.1700000762939
870.0126751,16.25
870.0283001,16.7700004577637
870.0439251,16.8199996948242
870.0595501,16.1800003051758
870.0751751,14.6899995803833
870.0908001,12.4300003051758
870.1064251,9.61999988555908
870.1220501,6.53999996185303
870.1376751,3.40000009536743
870.1533001,0.409999996423721
870.1689251,-2.34999990463257
870.1845501,-4.98000001907349
870.2001751,-7.71000003814697
870.2158001,-10.7700004577637
870.2314251,-14.1199998855591
870.2470501,-17.4599990844727
870.2626751,-20.4699993133545
870.2783001,-22.9799995422363
870.2939251,-25.0
870.3095501,-26.6700000762939
870.3251751,-28.1700000762939
870.3408001,-29.5900001525879
870.3564251,-30.9099998474121
870.3720501,-31.7600002288818
870.3876751,-31.4200000762939
870.4033001,-29.2399997711182
870.4189251,-25.1299991607666
870.4345501,-19.5100002288818
870.4501751,-12.9499998092651
870.4658001,-5.69999980926514
870.4814251,2.27999997138977
870.4970501,10.8599996566772
870.5126751,19.2800006866455
870.5283001,26.4799995422363
870.5439251,31.7900009155273
870.5595501,35.3199996948242
870.5751751,37.6300010681152
870.5908001,39.2200012207031
870.6064251,40.1199989318848
870.6220501,40.0299987792969
870.6376751,38.75
870.6533001,36.4500007629395
870.6689251,33.5400009155273
870.6845501,30.5100002288818
870.7001751,27.6900005340576
870.7158001,25.2199993133545
870.7314251,23.0400009155273
870.7470501,20.9400005340576
870.7626751,18.5900001525879
870.7783001,15.75
870.7939251,12.3699998855591
870.8095501,8.44999980926514
870.8251751,3.95000004768372
870.8408001,-1.21000003814697
870.8564251,-6.94999980926514
870.8720501,-12.8199996948242
870.8876751,-18.1299991607666
870.9033001,-22.2299995422363
870.9189251,-24.6800003051758
870.9345501,-25.3199996948242
870.9501751,-24.2000007629395
870.9658001,-21.5599994659424
870.9814251,-17.8700008392334
870.9970501,-13.710000038147
871.0126751,-9.52000045776367
871.0283001,-5.26000022888184
871.0439251,-0.340000003576279
871.0595501,5.92999982833862
871.0751751,13.7799997329712
871.0908001,22.75
871.1064251,32.0999984741211
871.1220501,41.1500015258789
871.1376751,49.4099998474121
871.1533001,56.310001373291
871.1689251,61.060001373291
871.1845501,62.9599990844727
871.2001751,61.9700012207031
871.2158001,58.810001373291
871.2314251,54.5400009155273
871.2470501,50.0900001525879
871.2626751,46.0200004577637
871.2783001,42.4599990844727
871.2939251,39.2999992370605
871.3095501,36.2200012207031
871.3251751,32.8899993896484
871.3408001,29.0599994659424
871.3564251,24.7099990844727
871.3720501,19.8799991607666
871.3876751,14.5200004577637
871.4033001,8.5600004196167
871.4189251,2.07999992370605
871.4345501,-4.46999979019165
871.4501751,-10.4700002670288
871.4658001,-15.3400001525879
871.4814251,-18.8600006103516
871.4970501,-21.0900001525879
871.5126751,-22.1000003814697
871.5283001,-22.0
871.5439251,-20.9500007629395
871.5595501,-19.3199996948242
871.5751751,-17.4099998474121
871.5908001,-15.1899995803833
871.6064251,-12.1700000762939
871.6220501,-7.78000020980835
871.6376751,-1.88999998569489
871.6533001,4.96999979019165
871.6689251,11.9300003051758
871.6845501,18.1900005340576
871.7001751,23.2999992370605
871.7158001,27.0200004577637
871.7314251,29.0499992370605
871.7470501,29.0200004577637
871.7626751,26.8299999237061
871.7783001,22.8500003814697
871.7939251,17.9400005340576
871.8095501,13.0500001907349
871.8251751,8.84000015258789
871.8408001,5.5
871.8564251,2.82999992370605
871.8720501,0.409999996423721
871.8876751,-2.24000000953674
871.9033001,-5.46000003814697
871.9189251,-9.27999973297119
871.9345501,-13.7299995422363
871.9501751,-18.9799995422363
871.9658001,-25.2700004577637
871.9814251,-32.4700012207031
871.9970501,-39.8899993896484
872.0126751,-46.4500007629395
872.0283001,-51.2900009155273
872.0439251,-54.2999992370605
872.0595501,-55.8600006103516
872.0751751,-56.2299995422363
872.0908001,-55.439998626709
872.1064251,-53.5299987792969
872.1220501,-50.7700004577637
872.1376751,-47.4799995422363
872.1533001,-43.7700004577637
872.1689251,-39.2599983215332
872.1845501,-33.4700012207031
872.2001751,-26.2900009155273
872.2158001,-18.2299995422363
872.2314251,-10.210000038147
872.2470501,-3.02999997138977
872.2626751,2.89000010490417
872.2783001,7.48000001907349
872.2939251,10.75
872.3095501,12.5600004196167
872.3251751,12.8299999237061
872.3408001,11.710000038147
872.3564251,9.77000045776367
872.3720501,7.76000022888184
872.3876751,6.28000020980835
872.4033001,5.51999998092651
872.4189251,5.28999996185303
872.4345501,5.11999988555908
872.4501751,4.40000009536743
872.4658001,2.69000005722046
872.4814251,-0.0799999982118607
872.4970501,-3.77999997138977
872.5126751,-8.35000038146973
872.5283001,-13.789999961853
872.5439251,-19.8600006103516
872.5595501,-25.8500003814697
872.5751751,-30.6000003814697
872.5908001,-33.0900001525879
872.6064251,-33.0499992370605
872.6220501,-30.8299999237061
872.6376751,-26.9200000762939
872.6533001,-21.3899993896484
872.6689251,-13.9899997711182
872.6845501,-4.51000022888184
872.7001751,6.71000003814697
872.7158001,18.8500003814697
872.7314251,30.9200000762939
872.7470501,42.4300003051758
872.7626751,53.4700012207031
872.7783001,64.1699981689453
872.7939251,74.1399993896484
872.8095501,82.5899963378906
872.8251751,89.0100021362305
872.8408001,93.4899978637695
872.8564251,96.620002746582
872.8720501,98.9199981689453
872.8876751,100.580001831055
872.9033001,101.459999084473
872.9189251,101.470001220703
872.9345501,100.669998168945
872.9501751,99.3000030517578
872.9658001,97.620002746582
872.9814251,95.8300018310547
872.9970501,93.9700012207031
873.0126751,91.9000015258789
873.0283001,89.4100036621094
873.0439251,86.3099975585938
873.0595501,82.5999984741211
873.0751751,78.4700012207031
873.0908001,74.2300033569336
873.1064251,70.1699981689453
873.1220501,66.4000015258789
873.1376751,62.9500007629395
873.1533001,59.9000015258789
873.1689251,57.5099983215332
873.1845501,56.0400009155273
873.2001751,55.5999984741211
873.2158001,56.3400001525879
873.2314251,58.6599998474121
873.2470501,62.9700012207031
873.2626751,69.1100006103516
873.2783001,76.2699966430664
873.2939251,83.2799987792969
873.3095501,89.4000015258789
873.3251751,94.6800003051758
873.3408001,99.3600006103516
873.3564251,103.180000305176
873.3720501,105.419998168945
873.3876751,105.599998474121
873.4033001,103.910003662109
873.4189251,101.0
873.4345501,97.5199966430664
873.4501751,93.6999969482422
873.4658001,89.4599990844727
873.4814251,84.6800003051758
873.4970501,79.4199981689453
873.5126751,73.9300003051758
873.5283001,68.4899978637695
873.5439251,63.2900009155273
873.5595501,58.2400016784668
873.5751751,53.0499992370605
873.5908001,47.3499984741211
873.6064251,40.939998626709
873.6220501,33.8699989318848
873.6376751,26.4200000762939
873.6533001,18.9300003051758
873.6689251,11.6800003051758
873.6845501,4.82999992370605
873.7001751,-1.53999996185303
873.7158001,-7.25
873.7314251,-11.8699998855591
873.7470501,-15.0
873.7626751,-16.5300006866455
873.7783001,-16.4400005340576
873.7939251,-14.4799995422363
873.8095501,-10.3999996185303
873.8251751,-4.44000005722046
873.8408001,2.44000005722046
873.8564251,8.93000030517578
873.8720501,14.1599998474121
873.8876751,18.1499996185303
873.9033001,21.3199996948242
873.9189251,23.5900001525879
873.9345501,24.4099998474121
873.9501751,23.3600006103516
873.9658001,20.6399993896484
873.9814251,16.8600006103516
873.9970501,12.539999961853
874.0126751,7.76000022888184
874.0283001,2.26999998092651
874.0439251,-4.07000017166138
874.0595501,-11.2399997711182
874.0751751,-19.1000003814697
874.0908001,-27.4699993133545
874.1064251,-36.1300010681152
874.1220501,-44.7900009155273
874.1376751,-53.2999992370605
874.1533001,-61.75
874.1689251,-70.4300003051758
874.1845501,-79.5400009155273
874.2001751,-88.7699966430664
874.2158001,-97.5
874.2314251,-105.209999084473
874.2470501,-111.709999084473
874.2626751,-117.120002746582
874.2783001,-121.519996643066
874.2939251,-124.660003662109
874.3095501,-126.220001220703
874.3251751,-126.099998474121
874.3408001,-124.449996948242
874.3564251,-121.379997253418
874.3720501,-117.01000213623
874.3876751,-111.610000610352
874.4033001,-105.699996948242
874.4189251,-99.9599990844727
874.4345501,-94.9400024414063
874.4501751,-90.9400024414063
874.4658001,-88.129997253418
874.4814251,-86.6699981689453
874.4970501,-86.6900024414063
874.5126751,-87.9899978637695
874.5283001,-90.0400009155273
874.5439251,-92.3199996948242
874.5595501,-94.6600036621094
874.5751751,-97.4800033569336
874.5908001,-101.360000610352
874.6064251,-106.559997558594
874.6220501,-113.029998779297
874.6376751,-120.669998168945
874.6533001,-129.399993896484
874.6689251,-138.830001831055
874.6845501,-148.029998779297
874.7001751,-155.779998779297
874.7158001,-161.350006103516
874.7314251,-165.190002441406
874.7470501,-168.309997558594
874.7626751,-171.210006713867
874.7783001,-173.600006103516
