Time(s),Value(℃)
864.0126751,4.80999994277954
864.0283001,4.80000019073486
864.0439251,4.78000020980835
864.0595501,4.76999998092651
864.0751751,4.76000022888184
864.0908001,4.75
864.1064251,4.73999977111816
864.1220501,4.73000001907349
864.1376751,4.71000003814697
864.1533001,4.69999980926514
864.1689251,4.67999982833862
864.1845501,4.67000007629395
864.2001751,4.65999984741211
864.2158001,4.65000009536743
864.2314251,4.6399998664856
864.2470501,4.63000011444092
864.2626751,4.63000011444092
864.2783001,4.63000011444092
864.2939251,4.63000011444092
864.3095501,4.63000011444092
864.3251751,4.63000011444092
864.3408001,4.61999988555908
864.3564251,4.61999988555908
864.3720501,4.6100001335144
864.3876751,4.59999990463257
864.4033001,4.59000015258789
864.4189251,4.57999992370605
864.4345501,4.57000017166138
864.4501751,4.57000017166138
864.4658001,4.57000017166138
864.4814251,4.57000017166138
864.4970501,4.57000017166138
864.5126751,4.57000017166138
864.5283001,4.57999992370605
864.5439251,4.57999992370605
864.5595501,4.59000015258789
864.5751751,4.59000015258789
864.5908001,4.59000015258789
864.6064251,4.59000015258789
864.6220501,4.59000015258789
864.6376751,4.57999992370605
864.6533001,4.57999992370605
864.6689251,4.57000017166138
864.6845501,4.55999994277954
864.7001751,4.55999994277954
864.7158001,4.55999994277954
864.7314251,4.55999994277954
864.7470501,4.55999994277954
864.7626751,4.57000017166138
864.7783001,4.57999992370605
864.7939251,4.57999992370605
864.8095501,4.59000015258789
864.8251751,4.59999990463257
864.8408001,4.6100001335144
864.8564251,4.61999988555908
864.8720501,4.63000011444092
864.8876751,4.6399998664856
864.9033001,4.65999984741211
864.9189251,4.67999982833862
864.9345501,4.69999980926514
864.9501751,4.71999979019165
864.9658001,4.73999977111816
864.9814251,4.76000022888184
864.9970501,4.78999996185303
865.0126751,4.80999994277954
865.0283001,4.82999992370605
865.0439251,4.84999990463257
865.0595501,4.88000011444092
865.0751751,4.90000009536743
865.0908001,4.92000007629395
865.1064251,4.94999980926514
865.1220501,4.98000001907349
865.1376751,5.01000022888184
865.1533001,5.03999996185303
865.1689251,5.07000017166138
865.1845501,5.09000015258789
865.2001751,5.11999988555908
865.2158001,5.1399998664856
865.2314251,5.15999984741211
865.2470501,5.17000007629395
865.2626751,5.17999982833862
865.2783001,5.19000005722046
865.2939251,5.19999980926514
865.3095501,5.21000003814697
865.3251751,5.21000003814697
865.3408001,5.21000003814697
865.3564251,5.19999980926514
865.3720501,5.19999980926514
865.3876751,5.17999982833862
865.4033001,5.17000007629395
865.4189251,5.15000009536743
865.4345501,5.11999988555908
865.4501751,5.09999990463257
865.4658001,5.07999992370605
865.4814251,5.07000017166138
865.4970501,5.05000019073486
865.5126751,5.03999996185303
865.5283001,5.03999996185303
865.5439251,5.03000020980835
865.5595501,5.03000020980835
865.5751751,5.03000020980835
865.5908001,5.03000020980835
865.6064251,5.03999996185303
865.6220501,5.03999996185303
865.6376751,5.03000020980835
865.6533001,5.03000020980835
865.6689251,5.01999998092651
865.6845501,5.01000022888184
865.7001751,5.0
865.7158001,4.98000001907349
865.7314251,4.96000003814697
865.7470501,4.94000005722046
865.7626751,4.92000007629395
865.7783001,4.8899998664856
865.7939251,4.86999988555908
865.8095501,4.84000015258789
865.8251751,4.80999994277954
865.8408001,4.76999998092651
865.8564251,4.73999977111816
865.8720501,4.69999980926514
865.8876751,4.67000007629395
865.9033001,4.63000011444092
865.9189251,4.59000015258789
865.9345501,4.55000019073486
865.9501751,4.51000022888184
865.9658001,4.46999979019165
865.9814251,4.42000007629395
865.9970501,4.38000011444092
866.0126751,4.32999992370605
866.0283001,4.28000020980835
866.0439251,4.23000001907349
866.0595501,4.17999982833862
866.0751751,4.13000011444092
866.0908001,4.07999992370605
866.1064251,4.03000020980835
866.1220501,3.98000001907349
866.1376751,3.9300000667572
866.1533001,3.88000011444092
866.1689251,3.83999991416931
866.1845501,3.79999995231628
866.2001751,3.76999998092651
866.2158001,3.73000001907349
866.2314251,3.69000005722046
866.2470501,3.66000008583069
866.2626751,3.61999988555908
866.2783001,3.58999991416931
866.2939251,3.54999995231628
866.3095501,3.51999998092651
866.3251751,3.49000000953674
866.3408001,3.47000002861023
866.3564251,3.44000005722046
866.3720501,3.42000007629395
866.3876751,3.40000009536743
866.4033001,3.38000011444092
866.4189251,3.35999989509583
866.4345501,3.33999991416931
866.4501751,3.30999994277954
866.4658001,3.28999996185303
866.4814251,3.25999999046326
866.4970501,3.22000002861023
866.5126751,3.19000005722046
866.5283001,3.16000008583069
866.5439251,3.13000011444092
866.5595501,3.09999990463257
866.5751751,3.05999994277954
866.5908001,3.02999997138977
866.6064251,3.0
866.6220501,2.98000001907349
866.6376751,2.95000004768372
866.6533001,2.92000007629395
866.6689251,2.90000009536743
866.6845501,2.86999988555908
866.7001751,2.84999990463257
866.7158001,2.82999992370605
866.7314251,2.79999995231628
866.7470501,2.77999997138977
866.7626751,2.75
866.7783001,2.73000001907349
866.7939251,2.70000004768372
866.8095501,2.6800000667572
866.8251751,2.66000008583069
866.8408001,2.63000011444092
866.8564251,2.60999989509583
866.8720501,2.58999991416931
866.8876751,2.5699999332428
866.9033001,2.55999994277954
866.9189251,2.54999995231628
866.9345501,2.54999995231628
866.9501751,2.54999995231628
866.9658001,2.54999995231628
866.9814251,2.5699999332428
866.9970501,2.57999992370605
867.0126751,2.60999989509583
867.0283001,2.63000011444092
867.0439251,2.66000008583069
867.0595501,2.6800000667572
867.0751751,2.70000004768372
867.0908001,2.72000002861023
867.1064251,2.74000000953674
867.1220501,2.75
867.1376751,2.75999999046326
867.1533001,2.77999997138977
867.1689251,2.78999996185303
867.1845501,2.80999994277954
867.2001751,2.82999992370605
867.2158001,2.84999990463257
867.2314251,2.86999988555908
867.2470501,2.89000010490417
867.2626751,2.91000008583069
867.2783001,2.9300000667572
867.2939251,2.94000005722046
867.3095501,2.95000004768372
867.3251751,2.96000003814697
867.3408001,2.97000002861023
867.3564251,2.97000002861023
867.3720501,2.98000001907349
867.3876751,2.99000000953674
867.4033001,3.0
867.4189251,3.00999999046326
867.4345501,3.01999998092651
867.4501751,3.02999997138977
867.4658001,3.04999995231628
867.4814251,3.0699999332428
867.4970501,3.07999992370605
867.5126751,3.09999990463257
867.5283001,3.10999989509583
867.5439251,3.11999988555908
867.5595501,3.14000010490417
867.5751751,3.14000010490417
867.5908001,3.15000009536743
867.6064251,3.16000008583069
867.6220501,3.17000007629395
867.6376751,3.17000007629395
867.6533001,3.1800000667572
867.6689251,3.19000005722046
867.6845501,3.20000004768372
867.7001751,3.20000004768372
867.7158001,3.21000003814697
867.7314251,3.22000002861023
867.7470501,3.23000001907349
867.7626751,3.24000000953674
867.7783001,3.25
867.7939251,3.25999999046326
867.8095501,3.27999997138977
867.8251751,3.28999996185303
867.8408001,3.30999994277954
867.8564251,3.32999992370605
867.8720501,3.34999990463257
867.8876751,3.35999989509583
867.9033001,3.38000011444092
867.9189251,3.39000010490417
867.9345501,3.40000009536743
867.9501751,3.40000009536743
867.9658001,3.40000009536743
867.9814251,3.40000009536743
867.9970501,3.40000009536743
868.0126751,3.39000010490417
868.0283001,3.39000010490417
868.0439251,3.40000009536743
868.0595501,3.40000009536743
868.0751751,3.41000008583069
868.0908001,3.42000007629395
868.1064251,3.4300000667572
868.1220501,3.44000005722046
868.1376751,3.45000004768372
868.1533001,3.46000003814697
868.1689251,3.47000002861023
868.1845501,3.48000001907349
868.2001751,3.49000000953674
868.2158001,3.49000000953674
868.2314251,3.5
868.2470501,3.50999999046326
868.2626751,3.51999998092651
868.2783001,3.52999997138977
868.2939251,3.53999996185303
868.3095501,3.54999995231628
868.3251751,3.54999995231628
868.3408001,3.55999994277954
868.3564251,3.5699999332428
868.3720501,3.5699999332428
868.3876751,3.5699999332428
868.4033001,3.5699999332428
868.4189251,3.5699999332428
868.4345501,3.5699999332428
868.4501751,3.5699999332428
868.4658001,3.5699999332428
868.4814251,3.5699999332428
868.4970501,3.55999994277954
868.5126751,3.55999994277954
868.5283001,3.55999994277954
868.5439251,3.54999995231628
868.5595501,3.54999995231628
868.5751751,3.53999996185303
868.5908001,3.52999997138977
868.6064251,3.52999997138977
868.6220501,3.51999998092651
868.6376751,3.51999998092651
868.6533001,3.51999998092651
868.6689251,3.51999998092651
868.6845501,3.50999999046326
868.7001751,3.50999999046326
868.7158001,3.50999999046326
868.7314251,3.5
868.7470501,3.49000000953674
868.7626751,3.48000001907349
868.7783001,3.46000003814697
868.7939251,3.45000004768372
868.8095501,3.4300000667572
868.8251751,3.41000008583069
868.8408001,3.39000010490417
868.8564251,3.36999988555908
868.8720501,3.33999991416931
868.8876751,3.3199999332428
868.9033001,3.28999996185303
868.9189251,3.25999999046326
868.9345501,3.23000001907349
868.9501751,3.20000004768372
868.9658001,3.16000008583069
868.9814251,3.13000011444092
868.9970501,3.09999990463257
869.0126751,3.05999994277954
869.0283001,3.02999997138977
869.0439251,2.99000000953674
869.0595501,2.95000004768372
869.0751751,2.91000008583069
869.0908001,2.88000011444092
869.1064251,2.84999990463257
869.1220501,2.8199999332428
869.1376751,2.78999996185303
869.1533001,2.76999998092651
869.1689251,2.75
869.1845501,2.74000000953674
869.2001751,2.72000002861023
869.2158001,2.71000003814697
869.2314251,2.70000004768372
869.2470501,2.69000005722046
869.2626751,2.6800000667572
869.2783001,2.6800000667572
869.2939251,2.6800000667572
869.3095501,2.6800000667572
869.3251751,2.6800000667572
869.3408001,2.69000005722046
869.3564251,2.69000005722046
869.3720501,2.70000004768372
869.3876751,2.71000003814697
869.4033001,2.72000002861023
869.4189251,2.73000001907349
869.4345501,2.74000000953674
869.4501751,2.75
869.4658001,2.75999999046326
869.4814251,2.76999998092651
869.4970501,2.78999996185303
869.5126751,2.79999995231628
869.5283001,2.8199999332428
869.5439251,2.83999991416931
869.5595501,2.84999990463257
869.5751751,2.86999988555908
869.5908001,2.88000011444092
869.6064251,2.89000010490417
869.6220501,2.90000009536743
869.6376751,2.91000008583069
869.6533001,2.92000007629395
869.6689251,2.92000007629395
869.6845501,2.9300000667572
869.7001751,2.94000005722046
869.7158001,2.94000005722046
869.7314251,2.95000004768372
869.7470501,2.95000004768372
869.7626751,2.96000003814697
869.7783001,2.97000002861023
869.7939251,2.98000001907349
869.8095501,3.0
869.8251751,3.02999997138977
869.8408001,3.05999994277954
869.8564251,3.09999990463257
869.8720501,3.13000011444092
869.8876751,3.16000008583069
869.9033001,3.19000005722046
869.9189251,3.22000002861023
869.9345501,3.24000000953674
869.9501751,3.25999999046326
869.9658001,3.27999997138977
869.9814251,3.29999995231628
869.9970501,3.30999994277954
870.0126751,3.32999992370605
870.0283001,3.33999991416931
870.0439251,3.34999990463257
870.0595501,3.35999989509583
870.0751751,3.36999988555908
870.0908001,3.38000011444092
870.1064251,3.39000010490417
870.1220501,3.40000009536743
870.1376751,3.41000008583069
870.1533001,3.42000007629395
870.1689251,3.4300000667572
870.1845501,3.44000005722046
870.2001751,3.45000004768372
870.2158001,3.46000003814697
870.2314251,3.47000002861023
870.2470501,3.49000000953674
870.2626751,3.5
870.2783001,3.51999998092651
870.2939251,3.52999997138977
870.3095501,3.54999995231628
870.3251751,3.5699999332428
870.3408001,3.58999991416931
870.3564251,3.61999988555908
870.3720501,3.64000010490417
870.3876751,3.6800000667572
870.4033001,3.71000003814697
870.4189251,3.74000000953674
870.4345501,3.76999998092651
870.4501751,3.80999994277954
870.4658001,3.82999992370605
870.4814251,3.85999989509583
870.4970501,3.88000011444092
870.5126751,3.90000009536743
870.5283001,3.91000008583069
870.5439251,3.9300000667572
870.5595501,3.94000005722046
870.5751751,3.95000004768372
870.5908001,3.96000003814697
870.6064251,3.97000002861023
870.6220501,3.98000001907349
870.6376751,4.0
870.6533001,4.01000022888184
870.6689251,4.01999998092651
870.6845501,4.03000020980835
870.7001751,4.03999996185303
870.7158001,4.05000019073486
870.7314251,4.05000019073486
870.7470501,4.05000019073486
870.7626751,4.03999996185303
870.7783001,4.01999998092651
870.7939251,4.01000022888184
870.8095501,3.99000000953674
870.8251751,3.97000002861023
870.8408001,3.96000003814697
870.8564251,3.95000004768372
870.8720501,3.94000005722046
870.8876751,3.94000005722046
870.9033001,3.94000005722046
870.9189251,3.95000004768372
870.9345501,3.95000004768372
870.9501751,3.96000003814697
870.9658001,3.97000002861023
870.9814251,3.98000001907349
870.9970501,3.99000000953674
871.0126751,4.0
871.0283001,4.01999998092651
871.0439251,4.03000020980835
871.0595501,4.05999994277954
871.0751751,4.07999992370605
871.0908001,4.1100001335144
871.1064251,4.13000011444092
871.1220501,4.15999984741211
871.1376751,4.19000005722046
871.1533001,4.21000003814697
871.1689251,4.23000001907349
871.1845501,4.25
871.2001751,4.26999998092651
871.2158001,4.28000020980835
871.2314251,4.28999996185303
871.2470501,4.30000019073486
871.2626751,4.30000019073486
871.2783001,4.28999996185303
871.2939251,4.28999996185303
871.3095501,4.28000020980835
871.3251751,4.26000022888184
871.3408001,4.25
871.3564251,4.23000001907349
871.3720501,4.21999979019165
871.3876751,4.19999980926514
871.4033001,4.19000005722046
871.4189251,4.17999982833862
871.4345501,4.17000007629395
871.4501751,4.15999984741211
871.4658001,4.15999984741211
871.4814251,4.15999984741211
871.4970501,4.15999984741211
871.5126751,4.17000007629395
871.5283001,4.17999982833862
871.5439251,4.19999980926514
871.5595501,4.21999979019165
871.5751751,4.23999977111816
871.5908001,4.26000022888184
871.6064251,4.26999998092651
871.6220501,4.28999996185303
871.6376751,4.30999994277954
871.6533001,4.32000017166138
871.6689251,4.32999992370605
871.6845501,4.34000015258789
871.7001751,4.34000015258789
871.7158001,4.34000015258789
871.7314251,4.34000015258789
871.7470501,4.34999990463257
871.7626751,4.34999990463257
871.7783001,4.3600001335144
871.7939251,4.3600001335144
871.8095501,4.36999988555908
871.8251751,4.3899998664856
871.8408001,4.40000009536743
871.8564251,4.40999984741211
871.8720501,4.40999984741211
871.8876751,4.42000007629395
871.9033001,4.42000007629395
871.9189251,4.42000007629395
871.9345501,4.40999984741211
871.9501751,4.40000009536743
871.9658001,4.3899998664856
871.9814251,4.36999988555908
871.9970501,4.34999990463257
872.0126751,4.32999992370605
872.0283001,4.30000019073486
872.0439251,4.26999998092651
872.0595501,4.23999977111816
872.0751751,4.21000003814697
872.0908001,4.17000007629395
872.1064251,4.13000011444092
872.1220501,4.09999990463257
872.1376751,4.05999994277954
872.1533001,4.03000020980835
872.1689251,4.0
872.1845501,3.97000002861023
872.2001751,3.94000005722046
872.2158001,3.91000008583069
872.2314251,3.89000010490417
872.2470501,3.86999988555908
872.2626751,3.84999990463257
872.2783001,3.82999992370605
872.2939251,3.8199999332428
872.3095501,3.79999995231628
872.3251751,3.78999996185303
872.3408001,3.78999996185303
872.3564251,3.78999996185303
872.3720501,3.77999997138977
872.3876751,3.77999997138977
872.4033001,3.77999997138977
872.4189251,3.77999997138977
872.4345501,3.77999997138977
872.4501751,3.77999997138977
872.4658001,3.77999997138977
872.4814251,3.77999997138977
872.4970501,3.77999997138977
872.5126751,3.78999996185303
872.5283001,3.79999995231628
872.5439251,3.8199999332428
872.5595501,3.83999991416931
872.5751751,3.86999988555908
872.5908001,3.90000009536743
872.6064251,3.9300000667572
872.6220501,3.96000003814697
872.6376751,4.0
872.6533001,4.03999996185303
872.6689251,4.09000015258789
872.6845501,4.13000011444092
872.7001751,4.17000007629395
872.7158001,4.21000003814697
872.7314251,4.23999977111816
872.7470501,4.28000020980835
872.7626751,4.30000019073486
872.7783001,4.32999992370605
872.7939251,4.3600001335144
872.8095501,4.38000011444092
872.8251751,4.40999984741211
872.8408001,4.44000005722046
872.8564251,4.48000001907349
872.8720501,4.51000022888184
872.8876751,4.55000019073486
872.9033001,4.59000015258789
872.9189251,4.63000011444092
872.9345501,4.67000007629395
872.9501751,4.71000003814697
872.9658001,4.75
872.9814251,4.78999996185303
872.9970501,4.82999992370605
873.0126751,4.8600001335144
873.0283001,4.90000009536743
873.0439251,4.94000005722046
873.0595501,4.98000001907349
873.0751751,5.01999998092651
873.0908001,5.05999994277954
873.1064251,5.09999990463257
873.1220501,5.1399998664856
873.1376751,5.17999982833862
873.1533001,5.21000003814697
873.1689251,5.25
873.1845501,5.28000020980835
873.2001751,5.30999994277954
873.2158001,5.32999992370605
873.2314251,5.34999990463257
873.2470501,5.36999988555908
873.2626751,5.3899998664856
873.2783001,5.40999984741211
873.2939251,5.42000007629395
873.3095501,5.44000005722046
873.3251751,5.44999980926514
873.3408001,5.46000003814697
873.3564251,5.48000001907349
873.3720501,5.48999977111816
873.3876751,5.51000022888184
873.4033001,5.51999998092651
873.4189251,5.51999998092651
873.4345501,5.53000020980835
873.4501751,5.53000020980835
873.4658001,5.51999998092651
873.4814251,5.51999998092651
873.4970501,5.5
873.5126751,5.48999977111816
873.5283001,5.46999979019165
873.5439251,5.44999980926514
873.5595501,5.42999982833862
873.5751751,5.42000007629395
873.5908001,5.40000009536743
873.6064251,5.38000011444092
873.6220501,5.3600001335144
873.6376751,5.34999990463257
873.6533001,5.34000015258789
873.6689251,5.32999992370605
873.6845501,5.32000017166138
873.7001751,5.30999994277954
873.7158001,5.30000019073486
873.7314251,5.28999996185303
873.7470501,5.28999996185303
873.7626751,5.28000020980835
873.7783001,5.26000022888184
873.7939251,5.25
873.8095501,5.23999977111816
873.8251751,5.21999979019165
873.8408001,5.21000003814697
873.8564251,5.19000005722046
873.8720501,5.17999982833862
873.8876751,5.17999982833862
873.9033001,5.17000007629395
873.9189251,5.17000007629395
873.9345501,5.17000007629395
873.9501751,5.17999982833862
873.9658001,5.17999982833862
873.9814251,5.19000005722046
873.9970501,5.19999980926514
874.0126751,5.21000003814697
874.0283001,5.21999979019165
874.0439251,5.23000001907349
874.0595501,5.23999977111816
874.0751751,5.26000022888184
874.0908001,5.26999998092651
874.1064251,5.28000020980835
874.1220501,5.28999996185303
874.1376751,5.30000019073486
874.1533001,5.30999994277954
874.1689251,5.32000017166138
874.1845501,5.32999992370605
874.2001751,5.32999992370605
874.2158001,5.34000015258789
874.2314251,5.34999990463257
874.2470501,5.36999988555908
874.2626751,5.38000011444092
874.2783001,5.40000009536743
874.2939251,5.40999984741211
874.3095501,5.42999982833862
874.3251751,5.44000005722046
874.3408001,5.46000003814697
874.3564251,5.46999979019165
874.3720501,5.48999977111816
874.3876751,5.5
874.4033001,5.51000022888184
874.4189251,5.53000020980835
874.4345501,5.53999996185303
874.4501751,5.55000019073486
874.4658001,5.57000017166138
874.4814251,5.57999992370605
874.4970501,5.59000015258789
874.5126751,5.59999990463257
874.5283001,5.6100001335144
874.5439251,5.6100001335144
874.5595501,5.6100001335144
874.5751751,5.6100001335144
874.5908001,5.6100001335144
874.6064251,5.6100001335144
874.6220501,5.6100001335144
874.6376751,5.6100001335144
874.6533001,5.61999988555908
874.6689251,5.61999988555908
874.6845501,5.63000011444092
874.7001751,5.6399998664856
874.7158001,5.6399998664856
874.7314251,5.65000009536743
874.7470501,5.65999984741211
874.7626751,5.67000007629395
874.7783001,5.67999982833862
874.7939251,5.69000005722046
874.8095501,5.69000005722046
874.8251751,5.69999980926514
874.8408001,5.69999980926514
874.8564251,5.69999980926514
874.8720501,5.69999980926514
874.8876751,5.69000005722046
874.9033001,5.67999982833862
874.9189251,5.67000007629395
874.9345501,5.65999984741211
874.9501751,5.65000009536743
