Time(s),Value(%)
180.0134825,20.6399993896484
180.0291075,19.1299991607666
180.0447325,17.1200008392334
180.0603575,15.0600004196167
180.0759825,13.3100004196167
180.0916075,12.0299997329712
180.1072325,11.210000038147
180.1228575,10.7399997711182
180.1384825,10.5500001907349
180.1541075,10.6499996185303
180.1697325,11.0100002288818
180.1853575,11.3000001907349
180.2009825,11.0
180.2166075,9.68000030517578
180.2322325,7.28999996185303
180.2478575,4.15999984741211
180.2634825,0.660000026226044
180.2791075,-2.91000008583069
180.2947325,-6.44000005722046
180.3103575,-9.86999988555908
180.3259825,-13.1700000762939
180.3416075,-16.3500003814697
180.3572325,-19.4400005340576
180.3728575,-22.2700004577637
180.3884825,-24.3899993896484
180.4041075,-25.3099994659424
180.4197325,-24.8999996185303
180.4353575,-23.4899997711182
180.4509825,-21.6100006103516
180.4666075,-19.7999992370605
180.4822325,-18.2900009155273
180.4978575,-16.8999996185303
180.5134825,-15.1199998855591
180.5291075,-12.4099998474121
180.5447325,-8.59000015258789
180.5603575,-3.82999992370605
180.5759825,1.63999998569489
180.5916075,7.67000007629395
180.6072325,13.9099998474121
180.6228575,19.6299991607666
180.6384825,23.6900005340576
180.6541075,25.2099990844727
180.6697325,24.2299995422363
180.6853575,21.5799999237061
180.7009825,18.1599998474121
180.7166075,14.5
180.7322325,10.8000001907349
180.7478575,7.09999990463257
180.7634825,3.42000007629395
180.7791075,-0.200000002980232
180.7947325,-3.75
180.8103575,-7.21000003814697
180.8259825,-10.5699996948242
180.8416075,-13.8000001907349
180.8572325,-16.8600006103516
180.8728575,-19.7399997711182
180.8884825,-22.4500007629395
180.9041075,-25.1000003814697
180.9197325,-27.8700008392334
180.9353575,-30.9500007629395
180.9509825,-34.3400001525879
180.9666075,-37.7900009155273
180.9822325,-40.8800010681152
180.9978575,-43.2299995422363
181.0134825,-44.7200012207031
181.0291075,-45.5200004577637
181.0447325,-45.9000015258789
181.0603575,-45.8300018310547
181.0759825,-44.8400001525879
181.0916075,-42.4599990844727
181.1072325,-38.6800003051758
181.1228575,-33.8600006103516
181.1384825,-28.25
181.1541075,-21.8700008392334
181.1697325,-14.8000001907349
181.1853575,-7.80999994277954
181.2009825,-1.87999999523163
181.2166075,2.20000004768372
181.2322325,4.48000001907349
181.2478575,5.46999979019165
181.2634825,5.57000017166138
181.2791075,4.86999988555908
181.2947325,3.38000011444092
181.3103575,1.26999998092651
181.3259825,-1.14999997615814
181.3416075,-3.54999995231628
181.3572325,-5.69000005722046
181.3728575,-7.48999977111816
181.3884825,-9.0
181.4041075,-10.3199996948242
181.4197325,-11.5200004577637
181.4353575,-12.6400003433228
181.4509825,-13.7399997711182
181.4666075,-14.9300003051758
181.4822325,-16.5
181.4978575,-18.7299995422363
181.5134825,-21.6599998474121
181.5291075,-25.0799999237061
181.5447325,-28.6299991607666
181.5603575,-31.9899997711182
181.5759825,-34.9599990844727
181.5916075,-37.5200004577637
181.6072325,-39.7299995422363
181.6228575,-41.6599998474121
181.6384825,-43.3699989318848
181.6541075,-44.8300018310547
181.6697325,-46.0
181.6853575,-46.6599998474121
181.7009825,-46.3899993896484
181.7166075,-44.810001373291
181.7322325,-41.9099998474121
181.7478575,-38.0999984741211
181.7634825,-33.939998626709
181.7791075,-29.7000007629395
181.7947325,-25.2800006866455
181.8103575,-20.5
181.8259825,-15.6199998855591
181.8416075,-11.2600002288818
181.8572325,-7.90000009536743
181.8728575,-5.61999988555908
181.8884825,-4.1100001335144
181.9041075,-3.05999994277954
181.9197325,-2.38000011444092
181.9353575,-2.13000011444092
181.9509825,-2.38000011444092
181.9666075,-3.00999999046326
181.9822325,-3.77999997138977
181.9978575,-4.46000003814697
182.0134825,-4.90999984741211
182.0291075,-5.23000001907349
182.0447325,-5.65999984741211
182.0603575,-6.48999977111816
182.0759825,-7.88000011444092
182.0916075,-9.77000045776367
182.1072325,-11.9499998092651
182.1228575,-14.1700000762939
182.1384825,-16.2299995422363
182.1541075,-18.0300006866455
182.1697325,-19.4200000762939
182.1853575,-20.7000007629395
182.2009825,-22.1399993896484
182.2166075,-23.9699993133545
182.2322325,-26.2399997711182
182.2478575,-28.8600006103516
182.2634825,-31.7199993133545
182.2791075,-34.75
182.2947325,-37.8199996948242
182.3103575,-40.6500015258789
182.3259825,-42.7799987792969
182.3416075,-43.7400016784668
182.3572325,-43.2000007629395
182.3728575,-41.0800018310547
182.3884825,-37.5999984741211
182.4041075,-33.1699981689453
182.4197325,-28.2800006866455
182.4353575,-23.3700008392334
182.4509825,-18.7299995422363
182.4666075,-14.4399995803833
182.4822325,-10.3999996185303
182.4978575,-6.48000001907349
182.5134825,-2.60999989509583
182.5291075,1.23000001907349
182.5447325,4.98999977111816
182.5603575,8.60999965667725
182.5759825,12.0
182.5916075,15.0100002288818
182.6072325,17.3600006103516
182.6228575,18.7700004577637
182.6384825,19.1399993896484
182.6541075,18.6700000762939
182.6697325,17.6900005340576
182.6853575,16.5499992370605
182.7009825,15.3800001144409
182.7166075,14.1899995803833
182.7322325,12.9399995803833
182.7478575,11.6700000762939
182.7634825,10.5299997329712
182.7791075,9.57999992370605
182.7947325,8.72000026702881
182.8103575,7.80000019073486
182.8259825,6.78999996185303
182.8416075,5.82999992370605
182.8572325,5.09000015258789
182.8728575,4.65999984741211
182.8884825,4.48999977111816
182.9041075,4.42000007629395
182.9197325,4.21000003814697
182.9353575,3.70000004768372
182.9509825,2.86999988555908
182.9666075,1.91999995708466
182.9822325,1.20000004768372
182.9978575,0.980000019073486
183.0134825,1.39999997615814
183.0291075,2.47000002861023
183.0447325,4.30000019073486
183.0603575,7.03999996185303
183.0759825,10.7700004577637
183.0916075,15.3199996948242
183.1072325,20.2099990844727
183.1228575,24.8600006103516
183.1384825,28.8999996185303
183.1541075,32.2299995422363
183.1697325,34.7299995422363
183.1853575,36.7099990844727
183.2009825,38.0299987792969
183.2166075,38.5
183.2322325,38.0499992370605
183.2478575,36.8800010681152
183.2634825,35.2299995422363
183.2791075,33.3499984741211
183.2947325,31.4200000762939
183.3103575,29.6399993896484
183.3259825,28.2199993133545
183.3416075,27.2399997711182
183.3572325,26.5400009155273
183.3728575,25.9099998474121
183.3884825,25.2299995422363
183.4041075,24.5599994659424
183.4197325,24.0200004577637
183.4353575,23.6900005340576
183.4509825,23.5200004577637
183.4666075,23.3400001525879
183.4822325,22.8500003814697
183.4978575,21.8099994659424
183.5134825,20.1900005340576
183.5291075,18.1100006103516
183.5447325,15.75
183.5603575,13.25
183.5759825,10.7399997711182
183.5916075,8.52000045776367
183.6072325,7.03000020980835
183.6228575,6.71999979019165
183.6384825,7.78000020980835
183.6541075,10.0799999237061
183.6697325,13.25
183.6853575,16.8899993896484
183.7009825,20.6100006103516
183.7166075,24.1499996185303
183.7322325,27.3799991607666
183.7478575,30.25
183.7634825,32.7099990844727
183.7791075,34.7400016784668
183.7947325,36.3600006103516
183.8103575,37.5900001525879
183.8259825,38.4000015258789
183.8416075,38.7299995422363
183.8572325,38.6100006103516
183.8728575,38.1599998474121
183.8884825,37.4799995422363
183.9041075,36.6100006103516
183.9197325,35.5
183.9353575,34.1399993896484
183.9509825,32.689998626709
183.9666075,31.3999996185303
183.9822325,30.4400005340576
183.9978575,29.8500003814697
184.0134825,29.4899997711182
184.0291075,29.1299991607666
184.0447325,28.5699996948242
184.0603575,27.6599998474121
184.0759825,26.3799991607666
184.0916075,24.7600002288818
184.1072325,22.7199993133545
184.1228575,20.2000007629395
184.1384825,17.25
184.1541075,14.1700000762939
184.1697325,11.4200000762939
184.1853575,9.4399995803833
184.2009825,8.31999969482422
184.2166075,7.94999980926514
184.2322325,8.18000030517578
184.2478575,8.9399995803833
184.2634825,10.1199998855591
184.2791075,11.5500001907349
184.2947325,13.039999961853
184.3103575,14.539999961853
184.3259825,16.0900001525879
184.3416075,17.8400001525879
184.3572325,19.8400001525879
184.3728575,22.0
184.3884825,24.1700000762939
184.4041075,26.1900005340576
184.4197325,27.9400005340576
184.4353575,29.2999992370605
184.4509825,30.0300006866455
184.4666075,29.9699993133545
184.4822325,29.1200008392334
184.4978575,27.6299991607666
184.5134825,25.7000007629395
184.5291075,23.4799995422363
184.5447325,21.1000003814697
184.5603575,18.75
184.5759825,16.6599998474121
184.5916075,14.9799995422363
184.6072325,13.6099996566772
184.6228575,12.3599996566772
184.6384825,11.1300001144409
184.6541075,9.86999988555908
184.6697325,8.43000030517578
184.6853575,6.65999984741211
184.7009825,4.48999977111816
184.7166075,2.08999991416931
184.7322325,-0.200000002980232
184.7478575,-2.14000010490417
184.7634825,-3.72000002861023
184.7791075,-5.07000017166138
184.7947325,-6.19999980926514
184.8103575,-6.98000001907349
184.8259825,-7.30000019073486
184.8416075,-7.21999979019165
184.8572325,-6.8600001335144
184.8728575,-6.28000020980835
184.8884825,-5.34000015258789
184.9041075,-3.83999991416931
184.9197325,-1.74000000953674
184.9353575,0.769999980926514
184.9509825,3.39000010490417
184.9666075,5.8600001335144
184.9822325,8.0
184.9978575,9.73999977111816
185.0134825,11.0600004196167
185.0291075,11.8900003433228
185.0447325,12.210000038147
185.0603575,12.0699996948242
185.0759825,11.5900001525879
185.0916075,10.8999996185303
185.1072325,10.1099996566772
185.1228575,9.23999977111816
185.1384825,8.3100004196167
185.1541075,7.38000011444092
185.1697325,6.53999996185303
185.1853575,5.82999992370605
185.2009825,5.17000007629395
185.2166075,4.40000009536743
185.2322325,3.47000002861023
185.2478575,2.4300000667572
185.2634825,1.39999997615814
185.2791075,0.469999998807907
185.2947325,-0.340000003576279
185.3103575,-1.13999998569489
185.3259825,-2.09999990463257
185.3416075,-3.35999989509583
185.3572325,-4.94999980926514
185.3728575,-6.76000022888184
185.3884825,-8.63000011444092
185.4041075,-10.3800001144409
185.4197325,-11.9200000762939
185.4353575,-13.0299997329712
185.4509825,-13.3500003814697
185.4666075,-12.539999961853
185.4822325,-10.5799999237061
185.4978575,-7.78999996185303
185.5134825,-4.55000019073486
185.5291075,-1.21000003814697
185.5447325,2.0
185.5603575,4.92000007629395
185.5759825,7.32000017166138
185.5916075,9.03999996185303
185.6072325,10.0500001907349
185.6228575,10.3999996185303
185.6384825,10.1999998092651
185.6541075,9.52999973297119
185.6697325,8.47000026702881
185.6853575,7.15000009536743
185.7009825,5.69000005722046
185.7166075,4.23000001907349
185.7322325,2.88000011444092
185.7478575,1.70000004768372
185.7634825,0.639999985694885
185.7791075,-0.330000013113022
185.7947325,-1.27999997138977
185.8103575,-2.1800000667572
185.8259825,-3.0
185.8416075,-3.75
185.8572325,-4.44000005722046
185.8728575,-5.17999982833862
185.8884825,-6.09000015258789
185.9041075,-7.30999994277954
185.9197325,-8.84000015258789
185.9353575,-10.5699996948242
185.9509825,-12.3299999237061
185.9666075,-13.9799995422363
185.9822325,-15.4499998092651
185.9978575,-16.6499996185303
186.0134825,-17.4599990844727
186.0291075,-17.6200008392334
186.0447325,-16.8700008392334
186.0603575,-15.0600004196167
186.0759825,-12.3500003814697
186.0916075,-9.17000007629395
186.1072325,-5.98000001907349
186.1228575,-3.08999991416931
186.1384825,-0.649999976158142
186.1541075,1.32000005245209
186.1697325,2.88000011444092
186.1853575,4.0
186.2009825,4.73000001907349
186.2166075,5.19000005722046
186.2322325,5.55999994277954
186.2478575,5.98999977111816
186.2634825,6.51000022888184
186.2791075,6.98999977111816
186.2947325,7.17000007629395
186.3103575,6.76999998092651
186.3259825,5.71000003814697
186.3416075,4.1100001335144
186.3572325,2.19000005722046
186.3728575,0.159999996423721
186.3884825,-1.85000002384186
186.4041075,-3.77999997138977
186.4197325,-5.59999990463257
186.4353575,-7.38000011444092
186.4509825,-9.19999980926514
186.4666075,-11.1300001144409
186.4822325,-13.1999998092651
186.4978575,-15.3699998855591
186.5134825,-17.6100006103516
186.5291075,-19.9099998474121
186.5447325,-22.2399997711182
186.5603575,-24.4799995422363
186.5759825,-26.4899997711182
186.5916075,-28.0200004577637
186.6072325,-28.8600006103516
186.6228575,-28.8799991607666
186.6384825,-28.1100006103516
186.6541075,-26.7600002288818
186.6697325,-25.1299991607666
186.6853575,-23.4899997711182
186.7009825,-22.0
186.7166075,-20.5599994659424
186.7322325,-18.9300003051758
186.7478575,-16.8099994659424
186.7634825,-14.1199998855591
186.7791075,-10.9799995422363
186.7947325,-7.57000017166138
186.8103575,-4.05000019073486
186.8259825,-0.620000004768372
186.8416075,2.42000007629395
186.8572325,4.55999994277954
186.8728575,5.40000009536743
186.8884825,4.8899998664856
186.9041075,3.38000011444092
186.9197325,1.33000004291534
186.9353575,-0.889999985694885
186.9509825,-3.10999989509583
186.9666075,-5.21999979019165
186.9822325,-7.21000003814697
186.9978575,-9.11999988555908
187.0134825,-10.9899997711182
187.0291075,-12.8299999237061
187.0447325,-14.6700000762939
187.0603575,-16.5200004577637
187.0759825,-18.4400005340576
187.0916075,-20.5
187.1072325,-22.6800003051758
187.1228575,-24.9200000762939
187.1384825,-27.1000003814697
187.1541075,-29.1200008392334
187.1697325,-31.0300006866455
187.1853575,-32.6599998474121
187.2009825,-33.939998626709
187.2166075,-34.8199996948242
187.2322325,-35.3400001525879
187.2478575,-35.5800018310547
187.2634825,-35.6399993896484
187.2791075,-35.3699989318848
187.2947325,-34.3600006103516
187.3103575,-32.189998626709
187.3259825,-28.7600002288818
187.3416075,-24.3199996948242
187.3572325,-19.2600002288818
187.3728575,-13.9099998474121
187.3884825,-8.55000019073486
187.4041075,-3.63000011444092
187.4197325,0.230000004172325
187.4353575,2.60999989509583
187.4509825,3.51999998092651
187.4666075,3.38000011444092
187.4822325,2.69000005722046
187.4978575,1.73000001907349
187.5134825,0.720000028610229
187.5291075,-0.209999993443489
187.5447325,-1.02999997138977
187.5603575,-1.76999998092651
187.5759825,-2.57999992370605
187.5916075,-3.63000011444092
187.6072325,-4.96000003814697
187.6228575,-6.55000019073486
187.6384825,-8.30000019073486
187.6541075,-10.1400003433228
187.6697325,-12.0100002288818
187.6853575,-13.8500003814697
187.7009825,-15.6099996566772
187.7166075,-17.3099994659424
187.7322325,-19.1000003814697
187.7478575,-21.0900001525879
187.7634825,-23.2999992370605
187.7791075,-25.6000003814697
187.7947325,-27.7399997711182
187.8103575,-29.5
187.8259825,-30.7900009155273
187.8416075,-31.6000003814697
187.8572325,-31.9099998474121
187.8728575,-31.5300006866455
187.8884825,-30.1399993896484
187.9041075,-27.5499992370605
187.9197325,-23.9500007629395
187.9353575,-19.8600006103516
187.9509825,-15.8400001525879
187.9666075,-12.2700004577637
187.9822325,-9.22000026702881
187.9978575,-6.57000017166138
188.0134825,-4.09000015258789
188.0291075,-1.62999999523163
188.0447325,0.879999995231628
188.0603575,3.48000001907349
188.0759825,6.17999982833862
188.0916075,9.02000045776367
188.1072325,11.9399995803833
188.1228575,14.6199998855591
188.1384825,16.5200004577637
188.1541075,17.1800003051758
188.1697325,16.6399993896484
188.1853575,15.25
188.2009825,13.4899997711182
188.2166075,11.6800003051758
188.2322325,9.9399995803833
188.2478575,8.30000019073486
188.2634825,6.71000003814697
188.2791075,5.03999996185303
188.2947325,3.05999994277954
188.3103575,0.589999973773956
188.3259825,-2.36999988555908
188.3416075,-5.69999980926514
188.3572325,-9.19999980926514
188.3728575,-12.7200002670288
188.3884825,-16.1399993896484
188.4041075,-19.3299999237061
188.4197325,-22.0900001525879
188.4353575,-24.25
188.4509825,-25.7099990844727
188.4666075,-26.4799995422363
188.4822325,-26.6399993896484
188.4978575,-26.3199996948242
188.5134825,-25.6800003051758
188.5291075,-24.8799991607666
188.5447325,-23.9899997711182
188.5603575,-22.8199996948242
188.5759825,-20.8600006103516
188.5916075,-17.6299991607666
188.6072325,-13.0100002288818
188.6228575,-7.34000015258789
188.6384825,-1.08000004291534
188.6541075,5.3600001335144
188.6697325,11.6700000762939
188.6853575,17.3400001525879
188.7009825,21.7000007629395
188.7166075,24.1700000762939
188.7322325,24.6700000762939
188.7478575,23.6100006103516
188.7634825,21.5900001525879
188.7791075,19.0900001525879
188.7947325,16.4699993133545
188.8103575,13.8999996185303
188.8259825,11.4899997711182
188.8416075,9.22000026702881
188.8572325,7.03999996185303
188.8728575,4.88000011444092
188.8884825,2.70000004768372
188.9041075,0.519999980926514
188.9197325,-1.67999994754791
188.9353575,-3.94000005722046
188.9509825,-6.21000003814697
188.9666075,-8.39999961853027
188.9822325,-10.3999996185303
188.9978575,-12.1800003051758
189.0134825,-13.8500003814697
189.0291075,-15.6000003814697
189.0447325,-17.4500007629395
189.0603575,-19.2999992370605
189.0759825,-20.9799995422363
189.0916075,-22.3700008392334
189.1072325,-23.4400005340576
189.1228575,-24.0200004577637
189.1384825,-23.8199996948242
189.1541075,-22.5300006866455
189.1697325,-20.0200004577637
189.1853575,-16.6299991607666
189.2009825,-12.6199998855591
189.2166075,-8.18000030517578
189.2322325,-3.53999996185303
189.2478575,0.970000028610229
189.2634825,4.98000001907349
189.2791075,8.17000007629395
189.2947325,10.5200004577637
189.3103575,12.2200002670288
189.3259825,13.3599996566772
189.3416075,13.9700002670288
189.3572325,14.1000003814697
189.3728575,13.8599996566772
189.3884825,13.4399995803833
189.4041075,12.9499998092651
189.4197325,12.3900003433228
189.4353575,11.6899995803833
189.4509825,10.8100004196167
189.4666075,9.73999977111816
189.4822325,8.52000045776367
189.4978575,7.15999984741211
189.5134825,5.73999977111816
189.5291075,4.32999992370605
189.5447325,3.01999998092651
189.5603575,1.79999995231628
189.5759825,0.5
189.5916075,-1.02999997138977
189.6072325,-2.8199999332428
189.6228575,-4.80999994277954
189.6384825,-7.0
189.6541075,-9.43000030517578
189.6697325,-12.1099996566772
189.6853575,-14.8199996948242
189.7009825,-17.1900005340576
189.7166075,-18.9099998474121
189.7322325,-19.8700008392334
189.7478575,-20.1399993896484
189.7634825,-19.7700004577637
189.7791075,-18.8099994659424
189.7947325,-17.3600006103516
189.8103575,-15.5799999237061
189.8259825,-13.6700000762939
189.8416075,-11.6300001144409
189.8572325,-9.27000045776367
189.8728575,-6.34000015258789
189.8884825,-2.75999999046326
189.9041075,1.27999997138977
189.9197325,5.53000020980835
189.9353575,9.71000003814697
189.9509825,13.6400003433228
189.9666075,17.1299991607666
189.9822325,19.9300003051758
189.9978575,21.8099994659424
190.0134825,22.7199993133545
190.0291075,22.8099994659424
190.0447325,22.3600006103516
190.0603575,21.6599998474121
190.0759825,20.9300003051758
190.0916075,20.2800006866455
190.1072325,19.7299995422363
190.1228575,19.2099990844727
190.1384825,18.6200008392334
190.1541075,17.8500003814697
190.1697325,16.8099994659424
190.1853575,15.5
190.2009825,13.8199996948242
190.2166075,11.6199998855591
190.2322325,8.96000003814697
190.2478575,6.1100001335144
190.2634825,3.45000004768372
190.2791075,1.22000002861023
190.2947325,-0.629999995231628
190.3103575,-2.33999991416931
190.3259825,-3.94000005722046
190.3416075,-5.23000001907349
190.3572325,-6.05999994277954
190.3728575,-6.3899998664856
190.3884825,-6.32999992370605
190.4041075,-5.96000003814697
190.4197325,-5.23000001907349
190.4353575,-4.0
190.4509825,-2.25
190.4666075,-0.0599999986588955
190.4822325,2.42000007629395
190.4978575,5.07999992370605
190.5134825,7.80000019073486
190.5291075,10.4700002670288
190.5447325,13.0200004577637
190.5603575,15.3699998855591
190.5759825,17.4500007629395
190.5916075,19.1800003051758
190.6072325,20.4799995422363
190.6228575,21.3299999237061
190.6384825,21.7900009155273
190.6541075,22.0
190.6697325,22.0900001525879
190.6853575,22.1100006103516
190.7009825,21.9599990844727
190.7166075,21.5100002288818
190.7322325,20.6800003051758
190.7478575,19.5300006866455
190.7634825,18.1100006103516
190.7791075,16.4699993133545
190.7947325,14.7200002670288
