Time(s),Value(%)
288.0041916,-46.310001373291
288.0198166,-43.4700012207031
288.0354416,-41.3899993896484
288.0510666,-40.3199996948242
288.0666916,-40.25
288.0823166,-40.9599990844727
288.0979416,-42.1300010681152
288.1135666,-43.5099983215332
288.1291916,-45.0099983215332
288.1448166,-46.7400016784668
288.1604416,-48.7900009155273
288.1760666,-50.810001373291
288.1916916,-52.1800003051758
288.2073166,-52.439998626709
288.2229416,-51.6399993896484
288.2385666,-50.1199989318848
288.2541916,-47.9000015258789
288.2698166,-43.8600006103516
288.2854416,-34.9900016784668
288.3010666,-17.2600002288818
288.3166916,11.9499998092651
288.3323166,51.2700004577637
288.3479416,94.5100021362305
288.3635666,132.600006103516
288.3791916,157.399993896484
288.3948166,164.699996948242
288.4104416,155.419998168945
288.4260666,134.479995727539
288.4416916,108.290000915527
288.4573166,82.0800018310547
288.4729416,58.5699996948242
288.4885666,38.1800003051758
288.5041916,20.0400009155273
288.5198166,3.09999990463257
288.5354416,-13.3000001907349
288.5510666,-28.8199996948242
288.5666916,-41.9500007629395
288.5823166,-51.0
288.5979416,-55.25
288.6135666,-55.4099998474121
288.6291916,-53.0499992370605
288.6448166,-49.7999992370605
288.6604416,-46.8800010681152
288.6760666,-44.9799995422363
288.6916916,-44.3400001525879
288.7073166,-44.8400001525879
288.7229416,-46.1599998474121
288.7385666,-47.8400001525879
288.7541916,-49.4599990844727
288.7698166,-50.8600006103516
288.7854416,-52.25
288.8010666,-53.75
288.8166916,-55.1500015258789
288.8323166,-55.9700012207031
288.8479416,-55.8400001525879
288.8635666,-54.6100006103516
288.8791916,-52.4500007629395
288.8948166,-49.7000007629395
288.9104416,-46.0900001525879
288.9260666,-39.7799987792969
288.9416916,-27.0900001525879
288.9573166,-3.83999991416931
288.9729416,31.9099998474121
288.9885666,77.0199966430664
289.0041916,123.309997558594
289.0198166,160.899993896484
289.0354416,182.509994506836
289.0510666,185.899993896484
289.0666916,173.649993896484
289.0823166,151.259994506836
289.0979416,124.76000213623
289.1135666,98.5999984741211
289.1291916,74.7399978637695
289.1448166,52.9099998474121
289.1604416,32.060001373291
289.1760666,11.710000038147
289.1916916,-7.61999988555908
289.2073166,-24.8799991607666
289.2229416,-38.9799995422363
289.2385666,-49.2299995422363
289.2541916,-55.5699996948242
289.2698166,-58.5400009155273
289.2854416,-59.1399993896484
289.3010666,-58.5099983215332
289.3166916,-57.5400009155273
289.3323166,-56.8600006103516
289.3479416,-56.7400016784668
289.3635666,-57.1500015258789
289.3791916,-57.9799995422363
289.3948166,-59.2200012207031
289.4104416,-60.810001373291
289.4260666,-62.5
289.4416916,-63.9500007629395
289.4573166,-64.8499984741211
289.4729416,-65.1399993896484
289.4885666,-64.9400024414063
289.5041916,-64.4800033569336
289.5198166,-63.9500007629395
289.5354416,-63.4500007629395
289.5510666,-62.8499984741211
289.5666916,-61.3300018310547
289.5823166,-56.7999992370605
289.5979416,-45.6800003051758
289.6135666,-23.8700008392334
289.6291916,10.9700002670288
289.6448166,57.1300010681152
289.6604416,107.309997558594
289.6760666,150.289993286133
289.6916916,176.149993896484
289.7073166,180.949996948242
289.7229416,167.559997558594
289.7385666,143.039993286133
289.7541916,114.980003356934
289.7698166,88.629997253418
289.7854416,65.8000030517578
289.8010666,45.6599998474121
289.8166916,26.6000003814697
289.8323166,7.65999984741211
289.8479416,-10.960000038147
289.8635666,-28.2099990844727
289.8791916,-42.7900009155273
289.8948166,-53.7900009155273
289.9104416,-60.8899993896484
289.9260666,-64.3199996948242
289.9416916,-64.8499984741211
289.9573166,-63.6500015258789
289.9729416,-61.8400001525879
289.9885666,-60.2799987792969
290.0041916,-59.4500007629395
290.0198166,-59.5099983215332
290.0354416,-60.3800010681152
290.0510666,-61.7799987792969
290.0666916,-63.2400016784668
290.0823166,-64.3300018310547
290.0979416,-64.6999969482422
290.1135666,-64.25
290.1291916,-63.2099990844727
290.1448166,-62.0200004577637
290.1604416,-60.939998626709
290.1760666,-59.7999992370605
290.1916916,-58.2099990844727
290.2073166,-55.9599990844727
290.2229416,-53.0699996948242
290.2385666,-49.5999984741211
290.2541916,-45.1399993896484
290.2698166,-37.9000015258789
290.2854416,-23.9699993133545
290.3010666,1.25
290.3166916,39.75
290.3323166,88.2200012207031
290.3479416,138.009994506836
290.3635666,178.360000610352
290.3791916,200.970001220703
290.3948166,203.080001831055
290.4104416,187.710006713867
290.4260666,161.559997558594
290.4416916,131.839996337891
290.4573166,103.76000213623
290.4729416,79.5400009155273
290.4885666,58.8600006103516
290.5041916,40.1500015258789
290.5198166,22.2000007629395
290.5354416,5.09999990463257
290.5510666,-10.0500001907349
290.5666916,-22.2700004577637
290.5823166,-31.3099994659424
290.5979416,-37.5900001525879
290.6135666,-41.6800003051758
290.6291916,-43.9799995422363
290.6448166,-44.8400001525879
290.6604416,-44.7000007629395
290.6760666,-44.1199989318848
290.6916916,-43.7000007629395
290.7073166,-43.9199981689453
290.7229416,-44.9900016784668
290.7385666,-46.7900009155273
290.7541916,-48.9599990844727
290.7698166,-51.1100006103516
290.7854416,-53.0200004577637
290.8010666,-54.75
290.8166916,-56.4900016784668
290.8323166,-58.2200012207031
290.8479416,-59.7000007629395
290.8635666,-60.5499992370605
290.8791916,-60.4599990844727
290.8948166,-59.3800010681152
290.9104416,-57.4900016784668
290.9260666,-54.5900001525879
290.9416916,-49.060001373291
290.9573166,-37.5299987792969
290.9729416,-15.9700002670288
290.9885666,17.7999992370605
291.0041916,61.4199981689453
291.0198166,107.430000305176
291.0354416,145.889999389648
291.0510666,168.509994506836
291.0666916,171.869995117188
291.0823166,158.110000610352
291.0979416,133.229995727539
291.1135666,104.199996948242
291.1291916,76.379997253418
291.1448166,52.1800003051758
291.1604416,31.4200000762939
291.1760666,12.7700004577637
291.1916916,-4.57000017166138
291.2073166,-20.4200000762939
291.2229416,-33.9000015258789
291.2385666,-44.0200004577637
291.2541916,-50.2999992370605
291.2698166,-52.9900016784668
291.2854416,-52.9500007629395
291.3010666,-51.2700004577637
291.3166916,-48.9300003051758
291.3323166,-46.6500015258789
291.3479416,-44.8699989318848
291.3635666,-43.8499984741211
291.3791916,-43.7799987792969
291.3948166,-44.7200012207031
291.4104416,-46.5999984741211
291.4260666,-49.3699989318848
291.4416916,-52.8600006103516
291.4573166,-56.6800003051758
291.4729416,-60.3199996948242
291.4885666,-63.2900009155273
291.5041916,-65.1800003051758
291.5198166,-65.7699966430664
291.5354416,-65.0999984741211
291.5510666,-63.6199989318848
291.5666916,-61.9500007629395
291.5823166,-60.2700004577637
291.5979416,-57.5499992370605
291.6135666,-51.2000007629395
291.6291916,-37.2700004577637
291.6448166,-11.8999996185303
291.6604416,26.2800006866455
291.6760666,74.3199996948242
291.6916916,124.110000610352
291.7073166,164.479995727539
291.7229416,186.130004882813
291.7385666,186.100006103516
291.7541916,168.199996948242
291.7698166,140.240005493164
291.7854416,110.099998474121
291.8010666,82.8899993896484
291.8166916,60.0699996948242
291.8323166,40.5499992370605
291.8479416,22.5
291.8635666,4.76000022888184
291.8791916,-12.6199998855591
291.8948166,-28.6000003814697
291.9104416,-41.7299995422363
291.9260666,-50.9500007629395
291.9416916,-56.0400009155273
291.9573166,-57.4199981689453
291.9729416,-55.9599990844727
291.9885666,-52.8899993896484
292.0041916,-49.5699996948242
292.0198166,-47.0900001525879
292.0354416,-46.0099983215332
292.0510666,-46.4500007629395
292.0666916,-48.1399993896484
292.0823166,-50.4799995422363
292.0979416,-52.7999992370605
292.1135666,-54.7099990844727
292.1291916,-56.1800003051758
292.1448166,-57.2400016784668
292.1604416,-57.7799987792969
292.1760666,-57.689998626709
292.1916916,-56.9599990844727
292.2073166,-55.5
292.2229416,-53.25
292.2385666,-50.2700004577637
292.2541916,-46.5900001525879
292.2698166,-41.4799995422363
292.2854416,-32.8300018310547
292.3010666,-16.8299999237061
292.3166916,10.8299999237061
292.3323166,51.1100006103516
292.3479416,98.5500030517578
292.3635666,142.929992675781
292.3791916,174.059997558594
292.3948166,186.229995727539
292.4104416,179.779998779297
292.4260666,159.770004272461
292.4416916,133.119995117188
292.4573166,105.900001525879
292.4729416,81.5999984741211
292.4885666,60.9500007629395
292.5041916,42.9300003051758
292.5198166,26.0799999237061
292.5354416,9.48999977111816
292.5510666,-6.80000019073486
292.5666916,-22.0900001525879
292.5823166,-35.3499984741211
292.5979416,-45.7299995422363
292.6135666,-52.9599990844727
292.6291916,-57.4900016784668
292.6448166,-60.0400009155273
292.6604416,-61.2000007629395
292.6760666,-61.4700012207031
292.6916916,-61.4099998474121
292.7073166,-61.4900016784668
292.7229416,-61.9599990844727
292.7385666,-62.75
292.7541916,-63.5499992370605
292.7698166,-64.0599975585938
292.7854416,-64.2099990844727
292.8010666,-64.120002746582
292.8166916,-64.0
292.8323166,-63.8699989318848
292.8479416,-63.439998626709
292.8635666,-62.3400001525879
292.8791916,-60.4300003051758
292.8948166,-57.7799987792969
292.9104416,-54.560001373291
292.9260666,-50.6599998474121
292.9416916,-44.9700012207031
292.9573166,-34.7299995422363
292.9729416,-16.1599998474121
292.9885666,13.3999996185303
293.0041916,53.2299995422363
293.0198166,98.0400009155273
293.0354416,139.350006103516
293.0510666,168.940002441406
293.0666916,182.070007324219
293.0823166,178.830001831055
293.0979416,163.039993286133
293.1135666,140.059997558594
293.1291916,114.610000610352
293.1448166,89.6900024414063
293.1604416,66.3199996948242
293.1760666,44.1399993896484
293.1916916,22.5
293.2073166,1.71000003814697
293.2229416,-16.9200000762939
293.2385666,-31.9099998474121
293.2541916,-42.5
293.2698166,-48.8899993896484
293.2854416,-51.9799995422363
293.3010666,-52.9000015258789
293.3166916,-52.7400016784668
293.3323166,-52.2599983215332
293.3479416,-51.8699989318848
293.3635666,-51.7299995422363
293.3791916,-51.8699989318848
293.3948166,-52.25
293.4104416,-52.7900009155273
293.4260666,-53.5299987792969
293.4416916,-54.5499992370605
293.4573166,-55.7400016784668
293.4729416,-56.810001373291
293.4885666,-57.5499992370605
293.5041916,-57.8899993896484
293.5198166,-57.8899993896484
293.5354416,-57.6199989318848
293.5510666,-57.0200004577637
293.5666916,-55.7400016784668
293.5823166,-52.560001373291
293.5979416,-44.8199996948242
293.6135666,-28.8999996185303
293.6291916,-2.13000011444092
293.6448166,34.9900016784668
293.6604416,77.75
293.6760666,118.629997253418
293.6916916,150.020004272461
293.7073166,166.630004882813
293.7229416,167.130004882813
293.7385666,154.240005493164
293.7541916,133.029998779297
293.7698166,108.620002746582
293.7854416,84.5699996948242
293.8010666,62.2099990844727
293.8166916,41.0999984741211
293.8323166,20.2999992370605
293.8479416,-0.189999997615814
293.8635666,-19.2999992370605
293.8791916,-35.6100006103516
293.8948166,-48.1300010681152
293.9104416,-56.689998626709
293.9260666,-61.7799987792969
293.9416916,-64.120002746582
293.9573166,-64.5299987792969
293.9729416,-63.8499984741211
293.9885666,-62.7700004577637
294.0041916,-61.6199989318848
294.0198166,-60.6100006103516
294.0354416,-60.060001373291
294.0510666,-60.1100006103516
294.0666916,-60.5400009155273
294.0823166,-60.8400001525879
294.0979416,-60.7200012207031
294.1135666,-60.310001373291
294.1291916,-59.9700012207031
294.1448166,-59.8499984741211
294.1604416,-59.8300018310547
294.1760666,-59.7799987792969
294.1916916,-59.6699981689453
294.2073166,-59.5400009155273
294.2229416,-59.1800003051758
294.2385666,-57.9900016784668
294.2541916,-54.6699981689453
294.2698166,-46.8499984741211
294.2854416,-31.2199993133545
294.3010666,-4.90000009536743
294.3166916,32.7099990844727
294.3323166,78.5400009155273
294.3479416,125.470001220703
294.3635666,164.169998168945
294.3791916,187.149993896484
294.3948166,191.880004882813
294.4104416,180.960006713867
294.4260666,159.940002441406
294.4416916,134.559997558594
294.4573166,108.910003662109
294.4729416,84.870002746582
294.4885666,62.5499992370605
294.5041916,41.3600006103516
294.5198166,20.9200000762939
294.5354416,1.41999995708466
294.5510666,-16.2199993133545
294.5666916,-30.6499996185303
294.5823166,-40.8300018310547
294.5979416,-47.0
294.6135666,-50.560001373291
294.6291916,-52.9099998474121
294.6448166,-54.8199996948242
294.6604416,-56.5699996948242
294.6760666,-58.2700004577637
294.6916916,-59.9599990844727
294.7073166,-61.6599998474121
294.7229416,-63.4199981689453
294.7385666,-65.1900024414063
294.7541916,-66.7399978637695
294.7698166,-67.9899978637695
294.7854416,-69.0500030517578
294.8010666,-70.0100021362305
294.8166916,-70.8000030517578
294.8323166,-71.25
294.8479416,-71.2099990844727
294.8635666,-70.379997253418
294.8791916,-68.3899993896484
294.8948166,-65.0800018310547
294.9104416,-60.6300010681152
294.9260666,-54.9700012207031
294.9416916,-46.7299995422363
294.9573166,-32.6500015258789
294.9729416,-9.05000019073486
294.9885666,25.4200000762939
295.0041916,68.0500030517578
295.0198166,112.330001831055
295.0354416,150.25
295.0510666,175.240005493164
295.0666916,184.300003051758
295.0823166,178.419998168945
295.0979416,161.449996948242
295.1135666,138.160003662109
295.1291916,112.540000915527
295.1448166,87.129997253418
295.1604416,63.2400016784668
295.1760666,41.439998626709
295.1916916,21.75
295.2073166,3.79999995231628
295.2229416,-12.5
295.2385666,-26.6299991607666
295.2541916,-37.7000007629395
295.2698166,-45.0800018310547
295.2854416,-48.939998626709
295.3010666,-50.2400016784668
295.3166916,-50.3199996948242
295.3323166,-50.3600006103516
295.3479416,-50.9900016784668
295.3635666,-52.1199989318848
295.3791916,-53.0499992370605
295.3948166,-53.0699996948242
295.4104416,-51.939998626709
295.4260666,-50.0699996948242
295.4416916,-48.4900016784668
295.4573166,-48.3300018310547
295.4729416,-50.1100006103516
295.4885666,-53.2999992370605
295.5041916,-56.7900009155273
295.5198166,-59.4799995422363
295.5354416,-60.6300010681152
295.5510666,-60.2099990844727
295.5666916,-58.689998626709
295.5823166,-55.9900016784668
295.5979416,-50.3600006103516
295.6135666,-38.5299987792969
295.6291916,-17.4099998474121
295.6448166,13.710000038147
295.6604416,51.6199989318848
295.6760666,89.6900024414063
295.6916916,120.389999389648
295.7073166,138.190002441406
295.7229416,141.259994506836
295.7385666,131.410003662109
295.7541916,112.800003051758
295.7698166,90.1900024414063
295.7854416,67.2799987792969
295.8010666,45.9799995422363
295.8166916,26.6499996185303
295.8323166,9.02999973297119
295.8479416,-7.09999990463257
295.8635666,-21.4300003051758
295.8791916,-33.2200012207031
295.8948166,-41.9599990844727
295.9104416,-47.8400001525879
295.9260666,-51.3499984741211
295.9416916,-52.8699989318848
295.9573166,-52.7999992370605
295.9729416,-51.9099998474121
295.9885666,-51.0
296.0041916,-50.3600006103516
296.0198166,-49.6199989318848
296.0354416,-48.4000015258789
296.0510666,-46.9700012207031
296.0666916,-45.9199981689453
296.0823166,-45.4599990844727
296.0979416,-45.0200004577637
296.1135666,-43.4199981689453
296.1291916,-39.7000007629395
296.1448166,-33.9500007629395
296.1604416,-27.6599998474121
296.1760666,-23.1700000762939
296.1916916,-22.7299995422363
296.2073166,-27.4500007629395
296.2229416,-35.9700012207031
296.2385666,-43.9500007629395
296.2541916,-45.5200004577637
296.2698166,-35.8600006103516
296.2854416,-13.3400001525879
296.3010666,19.9300003051758
296.3166916,58.9599990844727
296.3323166,97.3600006103516
296.3479416,129.100006103516
296.3635666,149.789993286133
296.3791916,157.389999389648
296.3948166,152.679992675781
296.4104416,138.850006103516
296.4260666,120.0
296.4416916,99.6100006103516
296.4573166,79.620002746582
296.4729416,60.4099998474121
296.4885666,41.6500015258789
296.5041916,23.2399997711182
296.5198166,5.84999990463257
296.5354416,-9.27999973297119
296.5510666,-21.1700000762939
296.5666916,-29.5200004577637
296.5823166,-34.5900001525879
296.5979416,-37.0499992370605
296.6135666,-37.8800010681152
296.6291916,-38.2599983215332
296.6448166,-39.1800003051758
296.6604416,-40.939998626709
296.6760666,-43.2099990844727
296.6916916,-45.5499992370605
296.7073166,-47.8800010681152
296.7229416,-50.2999992370605
296.7385666,-52.7400016784668
296.7541916,-55.0099983215332
296.7698166,-57.060001373291
296.7854416,-59.0099983215332
296.8010666,-60.9700012207031
296.8166916,-62.9000015258789
296.8323166,-64.7300033569336
296.8479416,-66.3000030517578
296.8635666,-66.8099975585938
296.8791916,-64.0800018310547
296.8948166,-54.4700012207031
296.9104416,-34.0400009155273
296.9260666,-0.860000014305115
296.9416916,42.9599990844727
296.9573166,91.2900009155273
296.9729416,135.479995727539
296.9885666,166.809997558594
297.0041916,179.929992675781
297.0198166,174.910003662109
297.0354416,156.460006713867
297.0510666,131.139999389648
297.0666916,104.51000213623
297.0823166,79.5899963378906
297.0979416,56.7999992370605
297.1135666,35.2999992370605
297.1291916,14.3699998855591
297.1448166,-5.86999988555908
297.1604416,-24.6000003814697
297.1760666,-40.7700004577637
297.1916916,-53.5499992370605
297.2073166,-62.7000007629395
297.2229416,-68.4800033569336
297.2385666,-71.5299987792969
297.2541916,-72.8399963378906
297.2698166,-73.3300018310547
297.2854416,-73.620002746582
297.3010666,-74.0100021362305
297.3166916,-74.5699996948242
297.3323166,-75.2600021362305
297.3479416,-76.0800018310547
297.3635666,-77.0800018310547
297.3791916,-78.2099990844727
297.3948166,-79.3000030517578
297.4104416,-80.1100006103516
297.4260666,-80.4499969482422
297.4416916,-80.2799987792969
297.4573166,-79.75
297.4729416,-78.9899978637695
297.4885666,-77.7099990844727
297.5041916,-74.9199981689453
297.5198166,-68.5999984741211
297.5354416,-55.6199989318848
297.5510666,-32.7400016784668
297.5666916,1.42999994754791
297.5823166,44.2599983215332
297.5979416,88.7799987792969
297.6135666,126.269996643066
297.6291916,150.5
297.6448166,159.880004882813
297.6604416,156.539993286133
297.6760666,144.289993286133
297.6916916,126.930000305176
297.7073166,107.160003662109
297.7229416,86.379997253418
297.7385666,65.0999984741211
297.7541916,43.7299995422363
297.7698166,22.7999992370605
297.7854416,2.98000001907349
297.8010666,-14.9700002670288
297.8166916,-30.2600002288818
297.8323166,-42.2700004577637
297.8479416,-50.7999992370605
297.8635666,-56.2299995422363
297.8791916,-59.1800003051758
297.8948166,-60.1300010681152
297.9104416,-59.3499984741211
297.9260666,-57.1100006103516
297.9416916,-53.9700012207031
297.9573166,-50.7799987792969
297.9729416,-48.2700004577637
297.9885666,-46.5499992370605
298.0041916,-45.1100006103516
298.0198166,-43.4500007629395
298.0354416,-41.7200012207031
298.0510666,-40.6500015258789
298.0666916,-40.7599983215332
298.0823166,-41.6599998474121
298.0979416,-42.1699981689453
298.1135666,-41.2200012207031
298.1291916,-38.810001373291
298.1448166,-35.4700012207031
298.1604416,-30.7999992370605
298.1760666,-22.6200008392334
298.1916916,-7.53999996185303
298.2073166,17.2299995422363
298.2229416,51.9799995422363
298.2385666,93.6100006103516
298.2541916,135.619995117188
298.2698166,169.619995117188
298.2854416,188.690002441406
298.3010666,190.25
298.3166916,176.460006713867
298.3323166,152.449996948242
298.3479416,124.089996337891
298.3635666,95.9800033569336
298.3791916,70.4199981689453
298.3948166,47.5900001525879
298.4104416,26.8600006103516
298.4260666,7.8600001335144
298.4416916,-9.18000030517578
298.4573166,-23.6399993896484
298.4729416,-34.9799995422363
298.4885666,-43.1800003051758
298.5041916,-48.6699981689453
298.5198166,-52.0699996948242
298.5354416,-54.0
298.5510666,-55.1399993896484
298.5666916,-56.1300010681152
298.5823166,-57.4000015258789
298.5979416,-59.1699981689453
298.6135666,-61.5900001525879
298.6291916,-64.870002746582
298.6448166,-68.9800033569336
298.6604416,-73.3899993896484
298.6760666,-77.2699966430664
298.6916916,-79.9199981689453
298.7073166,-81.1600036621094
