Time(s),Value(%)
852.0139116,-30.6200008392334
852.0295366,-35.7700004577637
852.0451616,-39.939998626709
852.0607866,-42.8800010681152
852.0764116,-44.5400009155273
852.0920366,-44.7299995422363
852.1076616,-42.8600006103516
852.1232866,-38.1599998474121
852.1389116,-30.2800006866455
852.1545366,-19.9300003051758
852.1701616,-8.57999992370605
852.1857866,2.25
852.2014116,11.6999998092651
852.2170366,19.6100006103516
852.2326616,26.2800006866455
852.2482866,32.0400009155273
852.2639116,37.1100006103516
852.2795366,41.5800018310547
852.2951616,45.5200004577637
852.3107866,48.9799995422363
852.3264116,52.0400009155273
852.3420366,54.6399993896484
852.3576616,56.4500007629395
852.3732866,56.6699981689453
852.3889116,54.560001373291
852.4045366,49.9599990844727
852.4201616,43.5
852.4357866,36.2400016784668
852.4514116,28.9899997711182
852.4670366,22.0400009155273
852.4826616,15.210000038147
852.4982866,8.26000022888184
852.5139116,1.16999995708466
852.5295366,-5.80999994277954
852.5451616,-12.6400003433228
852.5607866,-19.5100002288818
852.5764116,-26.7099990844727
852.5920366,-34.1399993896484
852.6076616,-41.2900009155273
852.6232866,-47.6399993896484
852.6389116,-52.9599990844727
852.6545366,-57.4199981689453
852.6701616,-61.6199989318848
852.6857866,-66.4300003051758
852.7014116,-72.5800018310547
852.7170366,-80.2200012207031
852.7326616,-89.0999984741211
852.7482866,-99.0400009155273
852.7639116,-109.910003662109
852.7795366,-121.339996337891
852.7951616,-132.229995727539
852.8107866,-140.809997558594
852.8264116,-145.440002441406
852.8420366,-145.369995117188
852.8576616,-140.919998168945
852.8732866,-132.970001220703
852.8889116,-122.599998474121
852.9045366,-110.930000305176
852.9201616,-98.9800033569336
852.9357866,-87.379997253418
852.9514116,-76.1800003051758
852.9670366,-64.8000030517578
852.9826616,-52.5400009155273
852.9982866,-39.1399993896484
853.0139116,-24.9300003051758
853.0295366,-10.460000038147
853.0451616,3.74000000953674
853.0607866,17.2099990844727
853.0764116,29.3099994659424
853.0920366,39.0499992370605
853.1076616,45.5999984741211
853.1232866,48.8800010681152
853.1389116,49.6399993896484
853.1545366,48.9700012207031
853.1701616,47.7900009155273
853.1857866,46.6500015258789
853.2014116,45.7599983215332
853.2170366,45.0299987792969
853.2326616,44.2299995422363
853.2482866,42.9900016784668
853.2639116,41.0499992370605
853.2795366,38.3600006103516
853.2951616,35.0299987792969
853.3107866,31.0900001525879
853.3264116,26.5499992370605
853.3420366,21.5300006866455
853.3576616,16.4500007629395
853.3732866,11.8800001144409
853.3889116,8.11999988555908
853.4045366,4.94999980926514
853.4201616,1.87999999523163
853.4357866,-1.24000000953674
853.4514116,-4.17000007629395
853.4670366,-6.55000019073486
853.4826616,-8.21000003814697
853.4982866,-9.27000045776367
853.5139116,-10.1300001144409
853.5295366,-11.3000001907349
853.5451616,-13.210000038147
853.5607866,-15.8800001144409
853.5764116,-19.0
853.5920366,-22.0699996948242
853.6076616,-24.7099990844727
853.6232866,-26.6800003051758
853.6389116,-27.6700000762939
853.6545366,-27.0799999237061
853.6701616,-24.0799999237061
853.6857866,-18.0499992370605
853.7014116,-8.98999977111816
853.7170366,2.22000002861023
853.7326616,14.2299995422363
853.7482866,25.7900009155273
853.7639116,36.1599998474121
853.7795366,45.2299995422363
853.7951616,53.2799987792969
853.8107866,60.75
853.8264116,67.9400024414063
853.8420366,74.9700012207031
853.8576616,81.7799987792969
853.8732866,88.3099975585938
853.8889116,94.4899978637695
853.9045366,100.209999084473
853.9201616,105.069999694824
853.9357866,108.300003051758
853.9514116,109.199996948242
853.9670366,107.680000305176
853.9826616,104.330001831055
853.9982866,100.050003051758
854.0139116,95.5999984741211
854.0295366,91.4300003051758
854.0451616,87.6399993896484
854.0607866,84.0899963378906
854.0764116,80.4700012207031
854.0920366,76.3199996948242
854.1076616,71.3300018310547
854.1232866,65.4499969482422
854.1389116,58.8400001525879
854.1545366,51.5900001525879
854.1701616,43.7400016784668
854.1857866,35.4700012207031
854.2014116,27.2399997711182
854.2170366,19.7000007629395
854.2326616,13.2399997711182
854.2482866,7.65000009536743
854.2639116,2.42000007629395
854.2795366,-2.64000010490417
854.2951616,-7.32000017166138
854.3107866,-11.3199996948242
854.3264116,-14.5100002288818
854.3420366,-17.0300006866455
854.3576616,-19.2299995422363
854.3732866,-21.4799995422363
854.3889116,-24.0499992370605
854.4045366,-26.9200000762939
854.4201616,-29.6499996185303
854.4357866,-31.4500007629395
854.4514116,-31.6499996185303
854.4670366,-30.0599994659424
854.4826616,-26.8700008392334
854.4982866,-22.2299995422363
854.5139116,-15.9899997711182
854.5295366,-7.92000007629395
854.5451616,1.74000000953674
854.5607866,12.0299997329712
854.5764116,21.7199993133545
854.5920366,30.1100006103516
854.6076616,37.3400001525879
854.6232866,43.8499984741211
854.6389116,49.8199996948242
854.6545366,54.8300018310547
854.6701616,58.3199996948242
854.6857866,60.0800018310547
854.7014116,60.3800010681152
854.7170366,59.6100006103516
854.7326616,58.0499992370605
854.7482866,55.9300003051758
854.7639116,53.4799995422363
854.7795366,50.8899993896484
854.7951616,48.1800003051758
854.8107866,45.2099990844727
854.8264116,41.7999992370605
854.8420366,37.8400001525879
854.8576616,33.3400001525879
854.8732866,28.2399997711182
854.8889116,22.4899997711182
854.9045366,16.2099990844727
854.9201616,9.72000026702881
854.9357866,3.46000003814697
854.9514116,-2.41000008583069
854.9670366,-8.10999965667725
854.9826616,-13.9399995803833
854.9982866,-19.8199996948242
855.0139116,-25.3600006103516
855.0295366,-30.1399993896484
855.0451616,-34.0299987792969
855.0607866,-37.2200012207031
855.0764116,-40.1599998474121
855.0920366,-43.4700012207031
855.1076616,-47.5900001525879
855.1232866,-52.5499992370605
855.1389116,-57.8499984741211
855.1545366,-62.7599983215332
855.1701616,-66.620002746582
855.1857866,-69.1699981689453
855.2014116,-70.2399978637695
855.2170366,-69.4800033569336
855.2326616,-66.3099975585938
855.2482866,-60.2799987792969
855.2639116,-51.5800018310547
855.2795366,-41.2299995422363
855.2951616,-30.6700000762939
855.3107866,-21.0799999237061
855.3264116,-12.9499998092651
855.3420366,-6.1399998664856
855.3576616,-0.280000001192093
855.3732866,4.90000009536743
855.3889116,9.53999996185303
855.4045366,13.6300001144409
855.4201616,17.2199993133545
855.4357866,20.3999996185303
855.4514116,23.2999992370605
855.4670366,25.9500007629395
855.4826616,28.1499996185303
855.4982866,29.4200000762939
855.5139116,29.2399997711182
855.5295366,27.4500007629395
855.5451616,24.3600006103516
855.5607866,20.5599994659424
855.5764116,16.6499996185303
855.5920366,12.9700002670288
855.6076616,9.73999977111816
855.6232866,6.84999990463257
855.6389116,3.97000002861023
855.6545366,0.629999995231628
855.6701616,-3.53999996185303
855.6857866,-8.60999965667725
855.7014116,-14.4499998092651
855.7170366,-20.9500007629395
855.7326616,-28.1000003814697
855.7482866,-35.689998626709
855.7639116,-43.1699981689453
855.7795366,-49.7200012207031
855.7951616,-54.8699989318848
855.8107866,-58.8300018310547
855.8264116,-62.1599998474121
855.8420366,-65.1900024414063
855.8576616,-67.7799987792969
855.8732866,-69.6500015258789
855.8889116,-70.7099990844727
855.9045366,-71.120002746582
855.9201616,-71.3199996948242
855.9357866,-71.8000030517578
855.9514116,-72.9700012207031
855.9670366,-74.8199996948242
855.9826616,-76.8600006103516
855.9982866,-78.3199996948242
856.0139116,-78.5
856.0295366,-77.1600036621094
856.0451616,-74.2799987792969
856.0607866,-69.7099990844727
856.0764116,-62.9700012207031
856.0920366,-53.6399993896484
856.1076616,-41.8600006103516
856.1232866,-28.7199993133545
856.1389116,-15.7600002288818
856.1545366,-4.19000005722046
856.1701616,5.53000020980835
856.1857866,13.6899995803833
856.2014116,20.8299999237061
856.2170366,27.4300003051758
856.2326616,33.689998626709
856.2482866,39.6300010681152
856.2639116,45.2000007629395
856.2795366,50.4300003051758
856.2951616,55.4000015258789
856.3107866,60.0900001525879
856.3264116,64.1600036621094
856.3420366,66.9300003051758
856.3576616,67.7300033569336
856.3732866,66.4100036621094
856.3889116,63.4099998474121
856.4045366,59.4900016784668
856.4201616,55.3400001525879
856.4357866,51.3800010681152
856.4514116,47.7799987792969
856.4670366,44.4500007629395
856.4826616,41.0999984741211
856.4982866,37.3300018310547
856.5139116,32.7799987792969
856.5295366,27.4300003051758
856.5451616,21.3700008392334
856.5607866,14.6800003051758
856.5764116,7.3899998664856
856.5920366,-0.319999992847443
856.6076616,-8.0
856.6232866,-14.9300003051758
856.6389116,-20.7299995422363
856.6545366,-25.6499996185303
856.6701616,-30.2700004577637
856.6857866,-34.7999992370605
856.7014116,-39.0299987792969
856.7170366,-42.5900001525879
856.7326616,-45.2900009155273
856.7482866,-47.2700004577637
856.7639116,-48.9000015258789
856.7795366,-50.6399993896484
856.7951616,-52.8600006103516
856.8107866,-55.560001373291
856.8264116,-58.3699989318848
856.8420366,-60.6599998474121
856.8576616,-61.9099998474121
856.8732866,-61.8899993896484
856.8889116,-60.5200004577637
856.9045366,-57.5299987792969
856.9201616,-52.3800010681152
856.9357866,-44.6500015258789
856.9514116,-34.5200004577637
856.9670366,-22.9400005340576
856.9826616,-11.1000003814697
856.9982866,0.319999992847443
857.0139116,11.3500003814697
857.0295366,22.1399993896484
857.0451616,32.4900016784668
857.0607866,41.6800003051758
857.0764116,48.9000015258789
857.0920366,53.9000015258789
857.1076616,56.939998626709
857.1232866,58.3699989318848
857.1389116,58.4599990844727
857.1545366,57.5099983215332
857.1701616,55.8899993896484
857.1857866,53.9900016784668
857.2014116,52.0400009155273
857.2170366,50.0400009155273
857.2326616,47.8800010681152
857.2482866,45.4599990844727
857.2639116,42.6800003051758
857.2795366,39.4599990844727
857.2951616,35.7200012207031
857.3107866,31.5499992370605
857.3264116,27.1800003051758
857.3420366,22.8799991607666
857.3576616,18.7299995422363
857.3732866,14.5
857.3889116,9.94999980926514
857.4045366,5.15999984741211
857.4201616,0.490000009536743
857.4357866,-3.67000007629395
857.4514116,-7.15999984741211
857.4670366,-10.0699996948242
857.4826616,-12.75
857.4982866,-15.6700000762939
857.5139116,-19.1900005340576
857.5295366,-23.4099998474121
857.5451616,-28.2900009155273
857.5607866,-33.9000015258789
857.5764116,-40.3300018310547
857.5920366,-47.4700012207031
857.6076616,-54.5900001525879
857.6232866,-60.5999984741211
857.6389116,-64.6699981689453
857.6545366,-66.75
857.6701616,-67.3499984741211
857.6857866,-66.9199981689453
857.7014116,-65.6399993896484
857.7170366,-63.5499992370605
857.7326616,-60.8199996948242
857.7482866,-57.6300010681152
857.7639116,-53.7400016784668
857.7795366,-48.3199996948242
857.7951616,-40.4900016784668
857.8107866,-30.0900001525879
857.8264116,-17.7199993133545
857.8420366,-4.28000020980835
857.8576616,9.47000026702881
857.8732866,22.9099998474121
857.8889116,35.2900009155273
857.9045366,45.6199989318848
857.9201616,53.1300010681152
857.9357866,57.75
857.9514116,60.0499992370605
857.9670366,60.7099990844727
857.9826616,60.2700004577637
857.9982866,59.1199989318848
858.0139116,57.560001373291
858.0295366,55.8499984741211
858.0451616,54.060001373291
858.0607866,52.1500015258789
858.0764116,49.9599990844727
858.0920366,47.4300003051758
858.1076616,44.5
858.1232866,41.0999984741211
858.1389116,37.1399993896484
858.1545366,32.7000007629395
858.1701616,28.0799999237061
858.1857866,23.6200008392334
858.2014116,19.4699993133545
858.2170366,15.4300003051758
858.2326616,11.2200002670288
858.2482866,6.82999992370605
858.2639116,2.59999990463257
858.2795366,-1.10000002384186
858.2951616,-4.15000009536743
858.3107866,-6.63000011444092
858.3264116,-8.92000007629395
858.3420366,-11.5200004577637
858.3576616,-14.8199996948242
858.3732866,-18.8899993896484
858.3889116,-23.6800003051758
858.4045366,-29.2199993133545
858.4201616,-35.5699996948242
858.4357866,-42.5499992370605
858.4514116,-49.4500007629395
858.4670366,-55.2000007629395
858.4826616,-59.0499992370605
858.4982866,-61.1399993896484
858.5139116,-62.2099990844727
858.5295366,-62.7700004577637
858.5451616,-62.8600006103516
858.5607866,-62.310001373291
858.5764116,-61.0900001525879
858.5920366,-59.3600006103516
858.6076616,-56.7299995422363
858.6232866,-52.4000015258789
858.6389116,-45.560001373291
858.6545366,-36.0900001525879
858.6701616,-24.6299991607666
858.6857866,-12.1199998855591
858.7014116,0.639999985694885
858.7170366,13.0799999237061
858.7326616,24.5699996948242
858.7482866,34.3699989318848
858.7639116,41.8899993896484
858.7795366,47.0499992370605
858.7951616,50.2299995422363
858.8107866,51.8800010681152
858.8264116,52.4199981689453
858.8420366,52.189998626709
858.8576616,51.5099983215332
858.8732866,50.6500015258789
858.8889116,49.6800003051758
858.9045366,48.5
858.9201616,46.9300003051758
858.9357866,44.8600006103516
858.9514116,42.2200012207031
858.9670366,38.8499984741211
858.9826616,34.6300010681152
858.9982866,29.6599998474121
859.0139116,24.3600006103516
859.0295366,19.2900009155273
859.0451616,14.5699996948242
859.0607866,9.59000015258789
859.0764116,3.63000011444092
859.0920366,-3.5
859.1076616,-11.6700000762939
859.1232866,-21.0599994659424
859.1389116,-32.0800018310547
859.1545366,-44.7000007629395
859.1701616,-57.8699989318848
859.1857866,-69.9199981689453
859.2014116,-79.75
859.2170366,-87.8199996948242
859.2326616,-95.2600021362305
859.2482866,-102.370002746582
859.2639116,-108.370002746582
859.2795366,-112.360000610352
859.2951616,-114.089996337891
859.3107866,-114.069999694824
859.3264116,-113.230003356934
859.3420366,-112.440002441406
859.3576616,-112.230003356934
859.3732866,-112.620002746582
859.3889116,-113.449996948242
859.4045366,-114.610000610352
859.4201616,-116.080001831055
859.4357866,-117.660003662109
859.4514116,-118.51000213623
859.4670366,-117.129997253418
859.4826616,-112.230003356934
859.4982866,-103.830001831055
859.5139116,-93.1100006103516
859.5295366,-81.5299987792969
859.5451616,-70.129997253418
859.5607866,-59.310001373291
859.5764116,-49.0999984741211
859.5920366,-39.3199996948242
859.6076616,-29.8500003814697
859.6232866,-20.6100006103516
859.6389116,-11.6099996566772
859.6545366,-2.91000008583069
859.6701616,5.38000011444092
859.6857866,13.1599998474121
859.7014116,20.3400001525879
859.7170366,26.9599990844727
859.7326616,33.2200012207031
859.7482866,39.5200004577637
859.7639116,46.4099998474121
859.7795366,54.5
859.7951616,64.1100006103516
859.8107866,75.0500030517578
859.8264116,86.6600036621094
859.8420366,98.1399993896484
859.8576616,108.860000610352
859.8732866,118.51000213623
859.8889116,127.160003662109
859.9045366,135.070007324219
859.9201616,142.5
859.9357866,149.619995117188
859.9514116,156.5
859.9670366,163.229995727539
859.9826616,169.869995117188
859.9982866,176.309997558594
860.0139116,182.089996337891
860.0295366,186.399993896484
860.0451616,188.559997558594
860.0607866,188.490005493164
860.0764116,186.660003662109
860.0920366,183.720001220703
860.1076616,180.190002441406
860.1232866,176.369995117188
860.1389116,172.410003662109
860.1545366,168.380004882813
860.1701616,164.429992675781
860.1857866,160.800003051758
860.2014116,157.720001220703
860.2170366,155.289993286133
860.2326616,153.759994506836
860.2482866,153.639999389648
860.2639116,155.460006713867
860.2795366,159.119995117188
860.2951616,163.759994506836
860.3107866,168.160003662109
860.3264116,171.630004882813
860.3420366,174.470001220703
860.3576616,177.270004272461
860.3732866,179.880004882813
860.3889116,181.429992675781
860.4045366,181.130004882813
860.4201616,178.850006103516
860.4357866,175.070007324219
860.4514116,170.479995727539
860.4670366,165.539993286133
860.4826616,160.389999389648
860.4982866,155.009994506836
860.5139116,149.559997558594
860.5295366,144.389999389648
860.5451616,139.910003662109
860.5607866,136.199996948242
860.5764116,132.669998168945
860.5920366,127.699996948242
860.6076616,121.019996643066
860.6232866,112.5
860.6389116,102.629997253418
860.6545366,92.0500030517578
860.6701616,81.1699981689453
860.6857866,70.2099990844727
860.7014116,59.3300018310547
860.7170366,48.6800003051758
860.7326616,38.2799987792969
860.7482866,28.0799999237061
860.7639116,17.9599990844727
860.7795366,7.8600001335144
860.7951616,-2.16000008583069
860.8107866,-12.1099996566772
860.8264116,-21.9200000762939
860.8420366,-31.5499992370605
860.8576616,-40.9000015258789
860.8732866,-49.8800010681152
860.8889116,-58.5200004577637
860.9045366,-66.9499969482422
860.9201616,-75.2799987792969
860.9357866,-83.4499969482422
860.9514116,-91.25
860.9670366,-98.4800033569336
860.9826616,-105.059997558594
860.9982866,-110.959999084473
861.0139116,-115.809997558594
861.0295366,-118.839996337891
861.0451616,-119.269996643066
861.0607866,-117.050003051758
861.0764116,-112.940002441406
861.0920366,-108.099998474121
861.1076616,-103.529998779297
861.1232866,-99.7099990844727
861.1389116,-96.4800033569336
861.1545366,-93.2600021362305
861.1701616,-89.4400024414063
861.1857866,-84.7799987792969
861.2014116,-79.3300018310547
861.2170366,-73.2300033569336
861.2326616,-66.6100006103516
861.2482866,-59.7999992370605
861.2639116,-53.6399993896484
861.2795366,-49.4799995422363
861.2951616,-48.3899993896484
861.3107866,-50.3300018310547
861.3264116,-54.2700004577637
861.3420366,-59.0499992370605
861.3576616,-63.8699989318848
861.3732866,-68.3199996948242
861.3889116,-72.25
861.4045366,-75.7099990844727
861.4201616,-78.9599990844727
861.4357866,-82.4000015258789
861.4514116,-86.3899993896484
861.4670366,-91.0400009155273
861.4826616,-96.2099990844727
861.4982866,-101.699996948242
861.5139116,-107.330001831055
861.5295366,-113.019996643066
861.5451616,-118.73999786377
861.5607866,-124.370002746582
861.5764116,-129.779998779297
861.5920366,-133.649993896484
861.6076616,-137.100006103516
861.6232866,-140.309997558594
861.6389116,-143.509994506836
861.6545366,-146.699996948242
861.6701616,-149.669998168945
861.6857866,-152.179992675781
861.7014116,-154.100006103516
861.7170366,-155.410003662109
861.7326616,-156.050003051758
861.7482866,-155.809997558594
861.7639116,-154.440002441406
861.7795366,-151.899993896484
861.7951616,-148.119995117188
861.8107866,-142.850006103516
861.8264116,-135.830001831055
861.8420366,-127.230003356934
861.8576616,-117.730003356934
861.8732866,-108.220001220703
861.8889116,-99.1900024414063
861.9045366,-90.4599990844727
861.9201616,-81.7399978637695
861.9357866,-73.3000030517578
861.9514116,-65.9000015258789
861.9670366,-60.0999984741211
861.9826616,-55.9000015258789
861.9982866,-52.8300018310547
862.0139116,-50.310001373291
862.0295366,-48.060001373291
862.0451616,-46.060001373291
862.0607866,-44.3800010681152
862.0764116,-43.0200004577637
862.0920366,-41.9000015258789
862.1076616,-40.8600006103516
862.1232866,-39.810001373291
862.1389116,-38.7799987792969
862.1545366,-37.9799995422363
862.1701616,-37.5900001525879
862.1857866,-37.6800003051758
862.2014116,-38.1399993896484
862.2170366,-38.7900009155273
862.2326616,-39.4799995422363
862.2482866,-40.1199989318848
862.2639116,-40.7400016784668
862.2795366,-41.5099983215332
862.2951616,-42.6599998474121
862.3107866,-44.3800010681152
862.3264116,-46.6300010681152
862.3420366,-49.1599998474121
862.3576616,-51.7099990844727
862.3732866,-54.1599998474121
862.3889116,-56.5699996948242
862.4045366,-58.9799995422363
862.4201616,-61.2900009155273
862.4357866,-63.2700004577637
862.4514116,-64.75
862.4670366,-65.8899993896484
862.4826616,-66.9100036621094
862.4982866,-67.879997253418
862.5139116,-68.629997253418
862.5295366,-68.9400024414063
862.5451616,-68.7300033569336
862.5607866,-67.9800033569336
862.5764116,-66.5400009155273
862.5920366,-63.4199981689453
862.6076616,-58.7099990844727
862.6232866,-52.3400001525879
862.6389116,-44.5499992370605
862.6545366,-35.5299987792969
862.6701616,-25.3999996185303
862.6857866,-14.5100002288818
862.7014116,-3.53999996185303
