Time(s),Value(%)
1487.006776,-268.290008544922
1487.022401,-274.549987792969
1487.038026,-280.309997558594
1487.053651,-285.700012207031
1487.069276,-290.589996337891
1487.084901,-294.059997558594
1487.100526,-294.320007324219
1487.116151,-289.709991455078
1487.131776,-280.029998779297
1487.147401,-266.790008544922
1487.163026,-252.25
1487.178651,-237.869995117188
1487.194276,-223.539993286133
1487.209901,-208.809997558594
1487.225526,-194.410003662109
1487.241151,-182.110000610352
1487.256776,-173.179992675781
1487.272401,-167.550003051758
1487.288026,-164.020004272461
1487.303651,-161.160003662109
1487.319276,-158.050003051758
1487.334901,-154.470001220703
1487.350526,-150.570007324219
1487.366151,-146.410003662109
1487.381776,-141.729995727539
1487.397401,-136.130004882813
1487.413026,-129.550003051758
1487.428651,-122.75
1487.444276,-117.199996948242
1487.459901,-114.220001220703
1487.475526,-114.069999694824
1487.491151,-115.959999084473
1487.506776,-120.919998168945
1487.522401,-126.01000213623
1487.538026,-130.770004272461
1487.553651,-134.970001220703
1487.569276,-138.539993286133
1487.584901,-141.5
1487.600526,-143.990005493164
1487.616151,-146.130004882813
1487.631776,-147.809997558594
1487.647401,-148.160003662109
1487.663026,-145.440002441406
1487.678651,-138.039993286133
1487.694276,-125.690002441406
1487.709901,-109.709999084473
1487.725526,-92.0500030517578
1487.741151,-73.75
1487.756776,-54.2400016784668
1487.772401,-32.8400001525879
1487.788026,-10.4799995422363
1487.803651,10.4499998092651
1487.819276,27.9300003051758
1487.834901,41.5
1487.850526,52.1100006103516
1487.866151,61.25
1487.881776,69.9499969482422
1487.897401,78.5699996948242
1487.913026,87.0500030517578
1487.928651,95.5800018310547
1487.944276,104.800003051758
1487.959901,115.480003356934
1487.975526,127.690002441406
1487.991151,140.149993896484
1488.006776,150.369995117188
1488.022401,155.789993286133
1488.038026,155.029998779297
1488.053651,148.300003051758
1488.069276,136.910003662109
1488.084901,122.690002441406
1488.100526,107.459999084473
1488.116151,92.6999969482422
1488.131776,79.120002746582
1488.147401,66.0800018310547
1488.163026,51.6800003051758
1488.178651,33.9900016784668
1488.194276,12.4799995422363
1488.209901,-11.9499998092651
1488.225526,-37.9900016784668
1488.241151,-64.5199966430664
1488.256776,-90.3399963378906
1488.272401,-113.410003662109
1488.288026,-130.679992675781
1488.303651,-139.740005493164
1488.319276,-140.570007324219
1488.334901,-135.259994506836
1488.350526,-126.379997253418
1488.366151,-116.099998474121
1488.381776,-106.199996948242
1488.397401,-97.9400024414063
1488.413026,-91.6600036621094
1488.428651,-86.6100006103516
1488.444276,-81.5899963378906
1488.459901,-76.0100021362305
1488.475526,-70.5699996948242
1488.491151,-66.3000030517578
1488.506776,-62.2799987792969
1488.522401,-58.3699989318848
1488.538026,-53.2700004577637
1488.553651,-46.4599990844727
1488.569276,-38.2999992370605
1488.584901,-29.9799995422363
1488.600526,-23.0100002288818
1488.616151,-18.5
1488.631776,-16.6700000762939
1488.647401,-17.3600006103516
1488.663026,-20.7900009155273
1488.678651,-27.25
1488.694276,-36.1399993896484
1488.709901,-45.2599983215332
1488.725526,-51.2999992370605
1488.741151,-52.0999984741211
1488.756776,-48.310001373291
1488.772401,-42.25
1488.788026,-35.4300003051758
1488.803651,-27.7800006866455
1488.819276,-18.6200008392334
1488.834901,-7.67999982833862
1488.850526,4.65999984741211
1488.866151,17.8400001525879
1488.881776,31.6200008392334
1488.897401,46.0400009155273
1488.913026,61.0499992370605
1488.928651,76.1399993896484
1488.944276,90.4000015258789
1488.959901,102.98999786377
1488.975526,113.720001220703
1488.991151,123.389999389648
1489.006776,133.460006713867
1489.022401,144.880004882813
1489.038026,157.210006713867
1489.053651,169.130004882813
1489.069276,179.759994506836
1489.084901,189.160003662109
1489.100526,197.970001220703
1489.116151,206.75
1489.131776,215.710006713867
1489.147401,224.539993286133
1489.163026,232.669998168945
1489.178651,239.550003051758
1489.194276,244.990005493164
1489.209901,248.949996948242
1489.225526,251.309997558594
1489.241151,251.940002441406
1489.256776,251.139999389648
1489.272401,250.029998779297
1489.288026,250.449996948242
1489.303651,253.889999389648
1489.319276,260.519989013672
1489.334901,269.380004882813
1489.350526,279.350006103516
1489.366151,289.700012207031
1489.381776,300.019989013672
1489.397401,310.059997558594
1489.413026,319.549987792969
1489.428651,327.670013427734
1489.444276,327.670013427734
1489.459901,327.670013427734
1489.475526,327.670013427734
1489.491151,327.670013427734
1489.506776,327.670013427734
1489.522401,327.670013427734
1489.538026,327.670013427734
1489.553651,327.670013427734
1489.569276,327.670013427734
1489.584901,327.670013427734
1489.600526,327.670013427734
1489.616151,327.670013427734
1489.631776,327.670013427734
1489.647401,327.670013427734
1489.663026,327.670013427734
1489.678651,327.670013427734
1489.694276,327.670013427734
1489.709901,327.670013427734
1489.725526,327.670013427734
1489.741151,322.559997558594
1489.756776,316.640014648438
1489.772401,310.309997558594
1489.788026,303.709991455078
1489.803651,296.980010986328
1489.819276,290.209991455078
1489.834901,283.25
1489.850526,275.75
1489.866151,267.380004882813
1489.881776,258.029998779297
1489.897401,247.679992675781
1489.913026,236.220001220703
1489.928651,223.490005493164
1489.944276,209.720001220703
1489.959901,195.639999389648
1489.975526,182.350006103516
1489.991151,170.710006713867
1490.006776,160.860000610352
1490.022401,152.529998779297
1490.038026,145.5
1490.053651,139.770004272461
1490.069276,135.320007324219
1490.084901,131.889999389648
1490.100526,129.039993286133
1490.116151,126.349998474121
1490.131776,123.620002746582
1490.147401,120.699996948242
1490.163026,117.349998474121
1490.178651,113.230003356934
1490.194276,108.129997253418
1490.209901,102.139999389648
1490.225526,95.5500030517578
1490.241151,88.7600021362305
1490.256776,82.0
1490.272401,75.1699981689453
1490.288026,67.75
1490.303651,59.189998626709
1490.319276,49.310001373291
1490.334901,38.1599998474121
1490.350526,25.7800006866455
1490.366151,12.1700000762939
1490.381776,-2.33999991416931
1490.397401,-16.7700004577637
1490.413026,-29.7199993133545
1490.428651,-40.2799987792969
1490.444276,-48.7700004577637
1490.459901,-56.2299995422363
1490.475526,-63.3600006103516
1490.491151,-70.4100036621094
1490.506776,-75.6399993896484
1490.522401,-81.2600021362305
1490.538026,-87.4000015258789
1490.553651,-93.5299987792969
1490.569276,-98.5699996948242
1490.584901,-101.610000610352
1490.600526,-102.419998168945
1490.616151,-101.309997558594
1490.631776,-98.6600036621094
1490.647401,-94.7300033569336
1490.663026,-89.8899993896484
1490.678651,-84.6500015258789
1490.694276,-79.5
1490.709901,-74.8399963378906
1490.725526,-70.8099975585938
1490.741151,-67.4199981689453
1490.756776,-64.5100021362305
1490.772401,-61.939998626709
1490.788026,-59.5900001525879
1490.803651,-57.3899993896484
1490.819276,-55.3699989318848
1490.834901,-53.6399993896484
1490.850526,-52.4300003051758
1490.866151,-51.9000015258789
1490.881776,-52.0800018310547
1490.897401,-52.8800010681152
1490.913026,-54.2299995422363
1490.928651,-56.1100006103516
1490.944276,-58.3800010681152
1490.959901,-60.7099990844727
1490.975526,-62.6300010681152
1490.991151,-63.9000015258789
1491.006776,-64.6699981689453
1491.022401,-65.3099975585938
1491.038026,-66.0500030517578
1491.053651,-66.9400024414063
1491.069276,-68.0800018310547
1491.084901,-69.6500015258789
1491.100526,-71.6800003051758
1491.116151,-73.9100036621094
1491.131776,-75.8000030517578
1491.147401,-76.8399963378906
1491.163026,-76.7799987792969
1491.178651,-75.620002746582
1491.194276,-73.4599990844727
1491.209901,-70.4499969482422
1491.225526,-66.8399963378906
1491.241151,-62.9700012207031
1491.256776,-59.1800003051758
1491.272401,-55.7400016784668
1491.288026,-52.8400001525879
1491.303651,-50.560001373291
1491.319276,-48.8400001525879
1491.334901,-47.5800018310547
1491.350526,-46.7700004577637
1491.366151,-46.4199981689453
1491.381776,-46.4900016784668
1491.397401,-46.8300018310547
1491.413026,-47.189998626709
1491.428651,-47.4599990844727
1491.444276,-47.6699981689453
1491.459901,-47.939998626709
1491.475526,-48.2099990844727
1491.491151,-48.3300018310547
1491.506776,-48.189998626709
1491.522401,-47.7299995422363
1491.538026,-47.060001373291
1491.553651,-46.4599990844727
1491.569276,-46.25
1491.584901,-46.6599998474121
1491.600526,-47.7299995422363
1491.616151,-49.3899993896484
1491.631776,-51.5999984741211
1491.647401,-54.3499984741211
1491.663026,-57.5299987792969
1491.678651,-60.7099990844727
1491.694276,-63.25
1491.709901,-64.6100006103516
1491.725526,-64.629997253418
1491.741151,-63.5200004577637
1491.756776,-61.5200004577637
1491.772401,-58.8499984741211
1491.788026,-55.7099990844727
1491.803651,-52.3400001525879
1491.819276,-48.9700012207031
1491.834901,-45.7400016784668
1491.850526,-42.7099990844727
1491.866151,-39.8699989318848
1491.881776,-37.1699981689453
1491.897401,-34.6599998474121
1491.913026,-32.4599990844727
1491.928651,-30.7299995422363
1491.944276,-29.4899997711182
1491.959901,-28.6299991607666
1491.975526,-27.9799995422363
1491.991151,-27.4500007629395
1492.006776,-27.0799999237061
1492.022401,-26.9400005340576
1492.038026,-26.9300003051758
1492.053651,-26.8400001525879
1492.069276,-26.4899997711182
1492.084901,-25.8299999237061
1492.100526,-24.9799995422363
1492.116151,-24.1700000762939
1492.131776,-23.7000007629395
1492.147401,-23.7900009155273
1492.163026,-24.4799995422363
1492.178651,-25.6800003051758
1492.194276,-27.3600006103516
1492.209901,-29.5
1492.225526,-31.9799995422363
1492.241151,-34.439998626709
1492.256776,-36.310001373291
1492.272401,-37.060001373291
1492.288026,-36.5299987792969
1492.303651,-34.8499984741211
1492.319276,-32.2900009155273
1492.334901,-29.1000003814697
1492.350526,-25.5400009155273
1492.366151,-21.8600006103516
1492.381776,-18.2800006866455
1492.397401,-14.9499998092651
1492.413026,-11.9399995803833
1492.428651,-9.26000022888184
1492.444276,-6.88000011444092
1492.459901,-4.78999996185303
1492.475526,-3.02999997138977
1492.491151,-1.66999995708466
1492.506776,-0.709999978542328
1492.522401,-0.0500000007450581
1492.538026,0.439999997615814
1492.553651,0.860000014305115
1492.569276,1.14999997615814
1492.584901,1.27999997138977
1492.600526,1.30999994277954
1492.616151,1.33000004291534
1492.631776,1.29999995231628
1492.647401,1.0900000333786
1492.663026,0.610000014305115
1492.678651,-0.0599999986588955
1492.694276,-0.720000028610229
1492.709901,-1.22000002861023
1492.725526,-1.6599999666214
1492.741151,-2.22000002861023
1492.756776,-2.94000005722046
1492.772401,-3.63000011444092
1492.788026,-4.07000017166138
1492.803651,-4.19000005722046
1492.819276,-3.99000000953674
1492.834901,-3.48000001907349
1492.850526,-2.50999999046326
1492.866151,-0.899999976158142
1492.881776,1.37000000476837
1492.897401,4.15999984741211
1492.913026,7.19999980926514
1492.928651,10.289999961853
1492.944276,13.2799997329712
1492.959901,16.0799999237061
1492.975526,18.5900001525879
1492.991151,20.75
1493.006776,22.4799995422363
1493.022401,23.7000007629395
1493.038026,24.4099998474121
1493.053651,24.6599998474121
1493.069276,24.5699996948242
1493.084901,24.2999992370605
1493.100526,23.9799995422363
1493.116151,23.6499996185303
1493.131776,23.2299995422363
1493.147401,22.6200008392334
1493.163026,21.7700004577637
1493.178651,20.6299991607666
1493.194276,19.1599998474121
1493.209901,17.2999992370605
1493.225526,15.1099996566772
1493.241151,12.8299999237061
1493.256776,10.7799997329712
1493.272401,9.15999984741211
1493.288026,7.80000019073486
1493.303651,6.42999982833862
1493.319276,4.90999984741211
1493.334901,3.38000011444092
1493.350526,2.04999995231628
1493.366151,1.02999997138977
1493.381776,0.330000013113022
1493.397401,0.0
1493.413026,0.109999999403954
1493.428651,0.839999973773956
1493.444276,2.19000005722046
1493.459901,3.97000002861023
1493.475526,5.92999982833862
1493.491151,7.84000015258789
1493.506776,9.97000026702881
1493.522401,11.9899997711182
1493.538026,13.9099998474121
1493.553651,15.710000038147
1493.569276,17.3600006103516
1493.584901,18.75
1493.600526,19.8199996948242
1493.616151,20.5799999237061
1493.631776,21.1100006103516
1493.647401,21.5
1493.663026,21.8299999237061
1493.678651,22.0599994659424
1493.694276,22.0799999237061
1493.709901,21.7199993133545
1493.725526,20.9300003051758
1493.741151,19.6900005340576
1493.756776,17.9899997711182
1493.772401,15.8100004196167
1493.788026,13.2200002670288
1493.803651,10.5200004577637
1493.819276,8.13000011444092
1493.834901,6.28999996185303
1493.850526,4.82000017166138
1493.866151,3.35999989509583
1493.881776,1.70000004768372
1493.897401,-0.0099999997764825
1493.913026,-1.53999996185303
1493.928651,-2.71000003814697
1493.944276,-3.47000002861023
1493.959901,-3.66000008583069
1493.975526,-2.89000010490417
1493.991151,-0.730000019073486
1494.006776,2.84999990463257
1494.022401,7.48999977111816
1494.038026,12.6700000762939
1494.053651,17.9400005340576
1494.069276,22.9799995422363
1494.084901,27.5400009155273
1494.100526,31.3500003814697
1494.116151,34.189998626709
1494.131776,36.0099983215332
1494.147401,36.9199981689453
1494.163026,37.0900001525879
1494.178651,36.689998626709
1494.194276,35.8899993896484
1494.209901,34.8800010681152
1494.225526,33.7799987792969
1494.241151,32.5999984741211
1494.256776,31.2000007629395
1494.272401,29.4099998474121
1494.288026,27.1599998474121
1494.303651,24.4699993133545
1494.319276,21.3299999237061
1494.334901,17.7299995422363
1494.350526,13.7799997329712
1494.366151,9.78999996185303
1494.381776,6.15000009536743
1494.397401,3.11999988555908
1494.413026,0.550000011920929
1494.428651,-1.87000000476837
1494.444276,-4.30999994277954
1494.459901,-6.63000011444092
1494.475526,-8.61999988555908
1494.491151,-10.1800003051758
1494.506776,-11.5600004196167
1494.522401,-12.2700004577637
1494.538026,-11.6599998474121
1494.553651,-9.02000045776367
1494.569276,-4.15999984741211
1494.584901,2.5699999332428
1494.600526,10.6800003051758
1494.616151,19.7299995422363
1494.631776,29.2399997711182
1494.647401,38.5099983215332
1494.663026,46.6100006103516
1494.678651,52.810001373291
1494.694276,57.0299987792969
1494.709901,59.6500015258789
1494.725526,61.0099983215332
1494.741151,61.3199996948242
1494.756776,60.8699989318848
1494.772401,60.1199989318848
1494.788026,59.4599990844727
1494.803651,58.9500007629395
1494.819276,58.3600006103516
1494.834901,57.3199996948242
1494.850526,55.6199989318848
1494.866151,53.2000007629395
1494.881776,50.060001373291
1494.897401,46.2400016784668
1494.913026,41.9000015258789
1494.928651,37.2700004577637
1494.944276,32.5900001525879
1494.959901,27.9099998474121
1494.975526,23.0699996948242
1494.991151,17.8199996948242
1495.006776,12.1199998855591
1495.022401,6.17999982833862
1495.038026,0.469999998807907
1495.053651,-4.59000015258789
1495.069276,-8.81999969482422
1495.084901,-12.210000038147
1495.100526,-14.7700004577637
1495.116151,-16.4899997711182
1495.131776,-17.4300003051758
1495.147401,-17.8099994659424
1495.163026,-18.0599994659424
1495.178651,-18.6000003814697
1495.194276,-19.6399993896484
1495.209901,-21.1299991607666
1495.225526,-22.9400005340576
1495.241151,-25.1900005340576
1495.256776,-28.4400005340576
1495.272401,-33.3199996948242
1495.288026,-39.9900016784668
1495.303651,-48.1300010681152
1495.319276,-57.3300018310547
1495.334901,-67.2200012207031
1495.350526,-77.3600006103516
1495.366151,-87.0299987792969
1495.381776,-95.25
1495.397401,-101.48999786377
1495.413026,-106.180000305176
1495.428651,-110.23999786377
1495.444276,-114.190002441406
1495.459901,-117.879997253418
1495.475526,-120.870002746582
1495.491151,-122.900001525879
1495.506776,-125.800003051758
1495.522401,-128.25
1495.538026,-131.009994506836
1495.553651,-134.720001220703
1495.569276,-139.5
1495.584901,-144.830001831055
1495.600526,-149.800003051758
1495.616151,-153.610000610352
1495.631776,-155.809997558594
1495.647401,-156.009994506836
1495.663026,-153.460006713867
1495.678651,-147.509994506836
1495.694276,-138.300003051758
1495.709901,-126.949996948242
1495.725526,-115.160003662109
1495.741151,-104.349998474121
1495.756776,-95.1800003051758
1495.772401,-87.4599990844727
1495.788026,-80.6500015258789
1495.803651,-74.4800033569336
1495.819276,-69.2900009155273
1495.834901,-65.6900024414063
1495.850526,-63.9500007629395
1495.866151,-63.8899993896484
1495.881776,-65.129997253418
1495.897401,-67.2900009155273
1495.913026,-69.9100036621094
1495.928651,-72.1999969482422
1495.944276,-73.1600036621094
1495.959901,-72.2099990844727
1495.975526,-69.7399978637695
1495.991151,-66.7200012207031
1496.006776,-63.8199996948242
1496.022401,-61.060001373291
1496.038026,-58.0900001525879
1496.053651,-54.6500015258789
1496.069276,-50.689998626709
1496.084901,-46.3499984741211
1496.100526,-41.7299995422363
1496.116151,-36.9199981689453
1496.131776,-31.8700008392334
1496.147401,-26.2800006866455
1496.163026,-19.4400005340576
1496.178651,-10.710000038147
1496.194276,-0.0099999997764825
1496.209901,12.1999998092651
1496.225526,25.4300003051758
1496.241151,39.5400009155273
1496.256776,54.6199989318848
1496.272401,70.4000015258789
1496.288026,85.7699966430664
1496.303651,99.3000030517578
1496.319276,110.089996337891
1496.334901,118.23999786377
1496.350526,124.519996643066
1496.366151,129.779998779297
1496.381776,134.419998168945
1496.397401,138.440002441406
1496.413026,141.699996948242
1496.428651,144.279998779297
1496.444276,146.479995727539
1496.459901,148.669998168945
1496.475526,151.029998779297
1496.491151,153.339996337891
1496.506776,153.940002441406
1496.522401,153.509994506836
1496.538026,151.860000610352
1496.553651,149.149993896484
1496.569276,145.669998168945
1496.584901,141.690002441406
1496.600526,137.440002441406
1496.616151,133.119995117188
1496.631776,128.880004882813
1496.647401,124.970001220703
1496.663026,121.699996948242
1496.678651,119.360000610352
1496.694276,118.050003051758
1496.709901,118.059997558594
1496.725526,120.129997253418
1496.741151,124.959999084473
1496.756776,132.440002441406
1496.772401,141.399993896484
1496.788026,150.179992675781
1496.803651,157.679992675781
1496.819276,163.830001831055
1496.834901,168.899993896484
1496.850526,172.589996337891
1496.866151,174.229995727539
1496.881776,173.710006713867
1496.897401,171.779998779297
1496.913026,169.399993896484
1496.928651,166.949996948242
1496.944276,164.0
1496.959901,159.839996337891
1496.975526,154.229995727539
1496.991151,147.419998168945
1497.006776,139.729995727539
1497.022401,131.360000610352
1497.038026,122.459999084473
1497.053651,113.269996643066
1497.069276,104.040000915527
1497.084901,94.9300003051758
1497.100526,85.9199981689453
1497.116151,76.8899993896484
1497.131776,67.7799987792969
1497.147401,58.6199989318848
1497.163026,49.4599990844727
1497.178651,40.4000015258789
1497.194276,31.5
1497.209901,22.8299999237061
1497.225526,14.4799995422363
1497.241151,6.92000007629395
1497.256776,1.14999997615814
1497.272401,-1.83000004291534
1497.288026,-1.82000005245209
1497.303651,0.439999997615814
1497.319276,3.74000000953674
1497.334901,6.90000009536743
1497.350526,9.22999954223633
1497.366151,10.6300001144409
1497.381776,11.3000001907349
1497.397401,11.5699996948242
1497.413026,11.6899995803833
1497.428651,11.9300003051758
1497.444276,12.5299997329712
1497.459901,13.6899995803833
1497.475526,15.289999961853
1497.491151,16.5699996948242
1497.506776,16.0699996948242
1497.522401,12.9899997711182
1497.538026,7.3600001335144
1497.553651,0.100000001490116
1497.569276,-7.71000003814697
1497.584901,-15.3900003433228
1497.600526,-22.6499996185303
1497.616151,-29.4599990844727
1497.631776,-35.9300003051758
1497.647401,-42.2599983215332
1497.663026,-48.7400016784668
1497.678651,-55.6199989318848
1497.694276,-62.9099998474121
1497.709901,-70.4100036621094
1497.725526,-77.9300003051758
1497.741151,-85.3000030517578
