Time(s),Value(%)
636.0065617,75.0999984741211
636.0221867,59.6699981689453
636.0378117,44.310001373291
636.0534367,29.1399993896484
636.0690617,14.3500003814697
636.0846867,0.259999990463257
636.1003117,-12.7399997711182
636.1159367,-24.3999996185303
636.1315617,-34.6300010681152
636.1471867,-43.2400016784668
636.1628117,-49.689998626709
636.1784367,-53.4500007629395
636.1940617,-54.6500015258789
636.2096867,-54.310001373291
636.2253117,-53.9199981689453
636.2409367,-54.4199981689453
636.2565617,-55.6100006103516
636.2721867,-56.8400001525879
636.2878117,-58.1500015258789
636.3034367,-60.3199996948242
636.3190617,-64.0400009155273
636.3346867,-69.3600006103516
636.3503117,-75.7300033569336
636.3659367,-82.4400024414063
636.3815617,-89.0299987792969
636.3971867,-95.4000015258789
636.4128117,-101.599998474121
636.4284367,-107.599998474121
636.4440617,-113.169998168945
636.4596867,-118.029998779297
636.4753117,-122.139999389648
636.4909367,-124.23999786377
636.5065617,-126.900001525879
636.5221867,-130.809997558594
636.5378117,-135.970001220703
636.5534367,-141.779998779297
636.5690617,-147.589996337891
636.5846867,-153.020004272461
636.6003117,-157.940002441406
636.6159367,-162.399993896484
636.6315617,-166.460006713867
636.6471867,-170.139999389648
636.6628117,-173.410003662109
636.6784367,-176.270004272461
636.6940617,-178.690002441406
636.7096867,-180.690002441406
636.7253117,-182.279998779297
636.7409367,-183.490005493164
636.7565617,-184.360000610352
636.7721867,-185.039993286133
636.7878117,-185.690002441406
636.8034367,-186.300003051758
636.8190617,-186.539993286133
636.8346867,-185.910003662109
636.8503117,-184.199996948242
636.8659367,-181.580001831055
636.8815617,-178.470001220703
636.8971867,-175.270004272461
636.9128117,-172.179992675781
636.9284367,-169.070007324219
636.9440617,-165.479995727539
636.9596867,-160.979995727539
636.9753117,-155.429992675781
636.9909367,-149.029998779297
637.0065617,-142.050003051758
637.0221867,-134.759994506836
637.0378117,-127.419998168945
637.0534367,-120.599998474121
637.0690617,-115.160003662109
637.0846867,-111.790000915527
637.1003117,-110.48999786377
637.1159367,-110.650001525879
637.1315617,-111.459999084473
637.1471867,-112.360000610352
637.1628117,-113.069999694824
637.1784367,-113.51000213623
637.1940617,-113.680000305176
637.2096867,-113.470001220703
637.2253117,-112.629997253418
637.2409367,-110.900001525879
637.2565617,-108.209999084473
637.2721867,-104.669998168945
637.2878117,-100.339996337891
637.3034367,-95.2900009155273
637.3190617,-89.6900024414063
637.3346867,-83.9899978637695
637.3503117,-78.8399963378906
637.3659367,-74.7300033569336
637.3815617,-71.6800003051758
637.3971867,-69.3899993896484
637.4128117,-67.5800018310547
637.4284367,-66.1600036621094
637.4440617,-65.0800018310547
637.4596867,-64.25
637.4753117,-63.4799995422363
637.4909367,-61.4199981689453
637.5065617,-58.9599990844727
637.5221867,-55.9500007629395
637.5378117,-52.3499984741211
637.5534367,-48.1800003051758
637.5690617,-43.310001373291
637.5846867,-37.5900001525879
637.6003117,-31.1299991607666
637.6159367,-24.4599990844727
637.6315617,-18.2800006866455
637.6471867,-13.1300001144409
637.6628117,-9.02000045776367
637.6784367,-5.69999980926514
637.6940617,-3.04999995231628
637.7096867,-1.13999998569489
637.7253117,0.0
637.7409367,0.540000021457672
637.7565617,0.75
637.7721867,0.870000004768372
637.7878117,1.0
637.8034367,1.07000005245209
637.8190617,1.04999995231628
637.8346867,0.949999988079071
637.8503117,0.870000004768372
637.8659367,0.889999985694885
637.8815617,1.0900000333786
637.8971867,1.4099999666214
637.9128117,1.74000000953674
637.9284367,1.92999994754791
637.9440617,1.9099999666214
637.9596867,1.67999994754791
637.9753117,1.32000005245209
637.9909367,0.920000016689301
638.0065617,0.589999973773956
638.0221867,0.389999985694885
638.0378117,0.319999992847443
638.0534367,0.319999992847443
638.0690617,0.219999998807907
638.0846867,-0.0900000035762787
638.1003117,-0.680000007152557
638.1159367,-1.49000000953674
638.1315617,-2.5
638.1471867,-3.70000004768372
638.1628117,-5.01999998092651
638.1784367,-6.26000022888184
638.1940617,-7.13000011444092
638.2096867,-7.32000017166138
638.2253117,-6.69999980926514
638.2409367,-5.26000022888184
638.2565617,-3.10999989509583
638.2721867,-0.419999986886978
638.2878117,2.59999990463257
638.3034367,5.73999977111816
638.3190617,8.84000015258789
638.3346867,11.9200000762939
638.3503117,15.1999998092651
638.3659367,18.8899993896484
638.3815617,23.0900001525879
638.3971867,27.7199993133545
638.4128117,32.6800003051758
638.4284367,37.8899993896484
638.4440617,43.2000007629395
638.4596867,48.2900009155273
638.4753117,52.7000007629395
638.4909367,55.6100006103516
638.5065617,57.4199981689453
638.5221867,58.4099998474121
638.5378117,58.7999992370605
638.5534367,58.5999984741211
638.5690617,57.5900001525879
638.5846867,55.5900001525879
638.6003117,52.6800003051758
638.6159367,49.2000007629395
638.6315617,45.5299987792969
638.6471867,41.810001373291
638.6628117,37.8899993896484
638.6784367,33.6500015258789
638.6940617,29.3400001525879
638.7096867,25.4599990844727
638.7253117,22.4200000762939
638.7409367,20.2999992370605
638.7565617,18.8500003814697
638.7721867,17.5699996948242
638.7878117,15.9399995803833
638.8034367,13.5500001907349
638.8190617,10.3699998855591
638.8346867,6.40000009536743
638.8503117,1.51999998092651
638.8659367,-4.42999982833862
638.8815617,-11.3100004196167
638.8971867,-18.3400001525879
638.9128117,-24.3899993896484
638.9284367,-28.8099994659424
638.9440617,-32.0800018310547
638.9596867,-35.1599998474121
638.9753117,-38.4900016784668
638.9909367,-41.689998626709
639.0065617,-44.0999984741211
639.0221867,-45.3699989318848
639.0378117,-45.6199989318848
639.0534367,-45.4599990844727
639.0690617,-45.7599983215332
639.0846867,-47.189998626709
639.1003117,-49.8899993896484
639.1159367,-53.7299995422363
639.1315617,-58.5999984741211
639.1471867,-64.4700012207031
639.1628117,-71.0100021362305
639.1784367,-77.0899963378906
639.1940617,-80.9400024414063
639.2096867,-81.1800003051758
639.2253117,-77.8600006103516
639.2409367,-72.1399993896484
639.2565617,-65.2399978637695
639.2721867,-57.7999992370605
639.2878117,-50.0299987792969
639.3034367,-42.0200004577637
639.3190617,-33.9099998474121
639.3346867,-25.9400005340576
639.3503117,-18.3600006103516
639.3659367,-11.3599996566772
639.3815617,-4.98000001907349
639.3971867,0.730000019073486
639.4128117,5.67000007629395
639.4284367,9.69999980926514
639.4440617,12.8999996185303
639.4596867,15.7799997329712
639.4753117,19.1499996185303
639.4909367,23.8500003814697
639.5065617,29.6700000762939
639.5221867,36.0499992370605
639.5378117,42.5299987792969
639.5534367,48.9700012207031
639.5690617,55.4300003051758
639.5846867,61.9500007629395
639.6003117,68.5
639.6159367,75.0500030517578
639.6315617,81.6600036621094
639.6471867,88.4499969482422
639.6628117,95.4100036621094
639.6784367,102.410003662109
639.6940617,109.23999786377
639.7096867,115.720001220703
639.7253117,121.76000213623
639.7409367,127.389999389648
639.7565617,132.740005493164
639.7721867,137.940002441406
639.7878117,143.029998779297
639.8034367,147.889999389648
639.8190617,152.350006103516
639.8346867,156.309997558594
639.8503117,159.710006713867
639.8659367,162.610000610352
639.8815617,165.100006103516
639.8971867,167.259994506836
639.9128117,169.169998168945
639.9284367,170.889999389648
639.9440617,172.380004882813
639.9596867,173.570007324219
639.9753117,174.309997558594
639.9909367,174.5
640.0065617,174.119995117188
640.0221867,173.25
640.0378117,172.009994506836
640.0534367,170.470001220703
640.0690617,168.600006103516
640.0846867,166.369995117188
640.1003117,163.860000610352
640.1159367,161.229995727539
640.1315617,158.600006103516
640.1471867,156.039993286133
640.1628117,153.490005493164
640.1784367,150.919998168945
640.1940617,148.399993896484
640.2096867,145.979995727539
640.2253117,143.710006713867
640.2409367,141.580001831055
640.2565617,139.600006103516
640.2721867,137.789993286133
640.2878117,136.100006103516
640.3034367,134.419998168945
640.3190617,132.619995117188
640.3346867,130.649993896484
640.3503117,128.600006103516
640.3659367,126.559997558594
640.3815617,124.449996948242
640.3971867,122.110000610352
640.4128117,119.370002746582
640.4284367,116.220001220703
640.4440617,112.730003356934
640.4596867,109.029998779297
640.4753117,105.199996948242
640.4909367,101.809997558594
640.5065617,98.25
640.5221867,94.5400009155273
640.5378117,90.7699966430664
640.5534367,87.0100021362305
640.5690617,83.2799987792969
640.5846867,79.5
640.6003117,75.5100021362305
640.6159367,71.2099990844727
640.6315617,66.6600036621094
640.6471867,62.0200004577637
640.6628117,57.4099998474121
640.6784367,52.8499984741211
640.6940617,48.2599983215332
640.7096867,43.5999984741211
640.7253117,38.8699989318848
640.7409367,34.1599998474121
640.7565617,29.6700000762939
640.7721867,25.5799999237061
640.7878117,21.9400005340576
640.8034367,18.6599998474121
640.8190617,15.6099996566772
640.8346867,12.6899995803833
640.8503117,9.8100004196167
640.8659367,6.76000022888184
640.8815617,3.24000000953674
640.8971867,-0.980000019073486
640.9128117,-5.92000007629395
640.9284367,-11.3100004196167
640.9440617,-16.8700008392334
640.9596867,-22.3199996948242
640.9753117,-27.4200000762939
640.9909367,-32.0099983215332
641.0065617,-36.0699996948242
641.0221867,-39.7799987792969
641.0378117,-43.3400001525879
641.0534367,-46.8699989318848
641.0690617,-50.3199996948242
641.0846867,-53.5499992370605
641.1003117,-56.5999984741211
641.1159367,-59.6500015258789
641.1315617,-62.8699989318848
641.1471867,-66.3000030517578
641.1628117,-69.879997253418
641.1784367,-73.5199966430664
641.1940617,-77.25
641.2096867,-81.1100006103516
641.2253117,-85.120002746582
641.2409367,-89.2099990844727
641.2565617,-93.2900009155273
641.2721867,-97.2399978637695
641.2878117,-101.01000213623
641.3034367,-104.589996337891
641.3190617,-108.040000915527
641.3346867,-111.410003662109
641.3503117,-114.76000213623
641.3659367,-118.069999694824
641.3815617,-121.279998779297
641.3971867,-124.309997558594
641.4128117,-127.080001831055
641.4284367,-129.600006103516
641.4440617,-131.860000610352
641.4596867,-133.880004882813
641.4753117,-135.610000610352
641.4909367,-136.529998779297
641.5065617,-137.130004882813
641.5221867,-137.419998168945
641.5378117,-137.440002441406
641.5534367,-137.210006713867
641.5690617,-136.759994506836
641.5846867,-136.169998168945
641.6003117,-135.550003051758
641.6159367,-134.839996337891
641.6315617,-133.869995117188
641.6471867,-132.410003662109
641.6628117,-130.440002441406
641.6784367,-128.139999389648
641.6940617,-125.800003051758
641.7096867,-123.610000610352
641.7253117,-121.599998474121
641.7409367,-119.540000915527
641.7565617,-117.0
641.7721867,-113.580001831055
641.7878117,-109.180000305176
641.8034367,-103.959999084473
641.8190617,-98.0899963378906
641.8346867,-91.6999969482422
641.8503117,-85.0199966430664
641.8659367,-78.620002746582
641.8815617,-73.3000030517578
641.8971867,-69.6900024414063
641.9128117,-67.7200012207031
641.9284367,-66.8199996948242
641.9440617,-66.4700012207031
641.9596867,-66.4300003051758
641.9753117,-66.6500015258789
641.9909367,-67.0999984741211
642.0065617,-67.6999969482422
642.0221867,-68.3199996948242
642.0378117,-68.8099975585938
642.0534367,-69.0999984741211
642.0690617,-69.1699981689453
642.0846867,-69.0100021362305
642.1003117,-68.5500030517578
642.1159367,-67.7200012207031
642.1315617,-66.5699996948242
642.1471867,-65.3199996948242
642.1628117,-64.3600006103516
642.1784367,-64.0
642.1940617,-64.2399978637695
642.2096867,-64.8499984741211
642.2253117,-65.5999984741211
642.2409367,-66.379997253418
642.2565617,-67.1500015258789
642.2721867,-67.8899993896484
642.2878117,-68.5500030517578
642.3034367,-68.9400024414063
642.3190617,-68.7300033569336
642.3346867,-67.6399993896484
642.3503117,-65.6100006103516
642.3659367,-62.6699981689453
642.3815617,-58.7599983215332
642.3971867,-53.7799987792969
642.4128117,-47.9099998474121
642.4284367,-41.7299995422363
642.4440617,-36.060001373291
642.4596867,-31.4599990844727
642.4753117,-27.7900009155273
642.4909367,-24.3899993896484
642.5065617,-21.3099994659424
642.5221867,-18.7399997711182
642.5378117,-16.9400005340576
642.5534367,-15.9200000762939
642.5690617,-15.4399995803833
642.5846867,-15.1899995803833
642.6003117,-14.8599996566772
642.6159367,-14.3199996948242
642.6315617,-13.5799999237061
642.6471867,-12.6599998474121
642.6628117,-11.5299997329712
642.6784367,-10.1400003433228
642.6940617,-8.52999973297119
642.7096867,-6.98999977111816
642.7253117,-6.03999996185303
642.7409367,-6.13000011444092
642.7565617,-7.28999996185303
642.7721867,-9.1899995803833
642.7878117,-11.4200000762939
642.8034367,-13.6899995803833
642.8190617,-15.8599996566772
642.8346867,-17.8700008392334
642.8503117,-19.7299995422363
642.8659367,-21.5400009155273
642.8815617,-23.4599990844727
642.8971867,-25.6399993896484
642.9128117,-28.1000003814697
642.9284367,-30.7800006866455
642.9440617,-33.5800018310547
642.9596867,-36.439998626709
642.9753117,-39.2799987792969
642.9909367,-41.939998626709
643.0065617,-44.2200012207031
643.0221867,-45.9199981689453
643.0378117,-46.9599990844727
643.0534367,-47.3199996948242
643.0690617,-47.060001373291
643.0846867,-46.25
643.1003117,-45.0
643.1159367,-43.4900016784668
643.1315617,-41.8699989318848
643.1471867,-40.2099990844727
643.1628117,-38.5
643.1784367,-36.6500015258789
643.1940617,-34.6699981689453
643.2096867,-32.6699981689453
643.2253117,-30.9099998474121
643.2409367,-29.6299991607666
643.2565617,-28.9200000762939
643.2721867,-28.6599998474121
643.2878117,-28.7099990844727
643.3034367,-29.0499992370605
643.3190617,-29.7900009155273
643.3346867,-30.9300003051758
643.3503117,-32.25
643.3659367,-33.3300018310547
643.3815617,-33.8400001525879
643.3971867,-33.7000007629395
643.4128117,-33.0699996948242
643.4284367,-32.1500015258789
643.4440617,-31.1399993896484
643.4596867,-30.0799999237061
643.4753117,-28.9899997711182
643.4909367,-27.9300003051758
643.5065617,-26.9200000762939
643.5221867,-26.0599994659424
643.5378117,-25.3400001525879
643.5534367,-24.6000003814697
643.5690617,-23.4899997711182
643.5846867,-21.6599998474121
643.6003117,-18.9400005340576
643.6159367,-15.3699998855591
643.6315617,-11.1000003814697
643.6471867,-6.19000005722046
643.6628117,-0.469999998807907
643.6784367,6.23999977111816
643.6940617,13.8500003814697
643.7096867,21.9300003051758
643.7253117,29.9099998474121
643.7409367,37.5999984741211
643.7565617,45.3499984741211
643.7721867,53.5999984741211
643.7878117,62.25
643.8034367,70.5999984741211
643.8190617,77.9700012207031
643.8346867,84.0500030517578
643.8503117,89.0100021362305
643.8659367,93.25
643.8815617,97.2200012207031
643.8971867,101.150001525879
643.9128117,105.129997253418
643.9284367,109.180000305176
643.9440617,113.470001220703
643.9596867,118.160003662109
643.9753117,123.199996948242
643.9909367,128.009994506836
644.0065617,131.610000610352
644.0221867,133.220001220703
644.0378117,132.850006103516
644.0534367,131.130004882813
644.0690617,128.710006713867
644.0846867,125.930000305176
644.1003117,122.889999389648
644.1159367,119.599998474121
644.1315617,116.150001525879
644.1471867,112.650001525879
644.1628117,109.25
644.1784367,106.069999694824
644.1940617,103.139999389648
644.2096867,100.51000213623
644.2253117,98.2699966430664
644.2409367,96.5299987792969
644.2565617,95.2399978637695
644.2721867,94.0899963378906
644.2878117,92.5599975585938
644.3034367,90.3300018310547
644.3190617,87.5199966430664
644.3346867,84.5500030517578
644.3503117,81.6900024414063
644.3659367,78.9000015258789
644.3815617,76.0400009155273
644.3971867,72.9800033569336
644.4128117,69.7600021362305
644.4284367,66.6800003051758
644.4440617,64.2399978637695
644.4596867,62.8699989318848
644.4753117,62.6599998474121
644.4909367,64.1999969482422
644.5065617,66.620002746582
644.5221867,69.870002746582
644.5378117,73.6900024414063
644.5534367,77.4000015258789
644.5690617,79.9300003051758
644.5846867,80.4400024414063
644.6003117,79.0
644.6159367,76.2600021362305
644.6315617,72.8399963378906
644.6471867,68.9599990844727
644.6628117,64.5999984741211
644.6784367,59.7999992370605
644.6940617,54.7000007629395
644.7096867,49.560001373291
644.7253117,44.5900001525879
644.7409367,39.939998626709
644.7565617,35.6399993896484
644.7721867,31.6499996185303
644.7878117,27.9699993133545
644.8034367,24.6200008392334
644.8190617,21.5300006866455
644.8346867,18.4500007629395
644.8503117,14.8500003814697
644.8659367,10.3000001907349
644.8815617,4.73000001907349
644.8971867,-1.57000005245209
644.9128117,-8.1899995803833
644.9284367,-14.7600002288818
644.9440617,-21.0699996948242
644.9596867,-27.0499992370605
644.9753117,-32.6699981689453
644.9909367,-37.8600006103516
645.0065617,-42.4599990844727
645.0221867,-46.2900009155273
645.0378117,-49.3199996948242
645.0534367,-51.5499992370605
645.0690617,-52.939998626709
645.0846867,-53.439998626709
645.1003117,-53.1599998474121
645.1159367,-52.4700012207031
645.1315617,-51.8800010681152
645.1471867,-51.7599983215332
645.1628117,-52.060001373291
645.1784367,-52.5400009155273
645.1940617,-53.1300010681152
645.2096867,-53.9700012207031
645.2253117,-55.2099990844727
645.2409367,-56.8300018310547
645.2565617,-58.6599998474121
645.2721867,-60.439998626709
645.2878117,-61.9700012207031
645.3034367,-63.1599998474121
645.3190617,-64.0
645.3346867,-64.5100021362305
645.3503117,-64.620002746582
645.3659367,-64.25
645.3815617,-63.4199981689453
645.3971867,-62.4000015258789
645.4128117,-61.6199989318848
645.4284367,-61.4099998474121
645.4440617,-61.7599983215332
645.4596867,-62.3899993896484
645.4753117,-63.0999984741211
645.4909367,-64.1699981689453
645.5065617,-65.2799987792969
645.5221867,-66.4499969482422
645.5378117,-67.620002746582
645.5534367,-68.6699981689453
645.5690617,-69.4800033569336
645.5846867,-69.9400024414063
645.6003117,-70.0500030517578
645.6159367,-69.8899993896484
645.6315617,-69.5599975585938
645.6471867,-69.1500015258789
645.6628117,-68.6900024414063
645.6784367,-68.0599975585938
645.6940617,-67.0699996948242
645.7096867,-65.5
645.7253117,-63.2799987792969
645.7409367,-60.3300018310547
645.7565617,-56.4199981689453
645.7721867,-51.3400001525879
645.7878117,-45.2099990844727
645.8034367,-38.6500015258789
645.8190617,-32.6100006103516
645.8346867,-27.7299995422363
645.8503117,-23.8999996185303
645.8659367,-20.6100006103516
645.8815617,-17.6000003814697
645.8971867,-14.9200000762939
645.9128117,-12.5299997329712
645.9284367,-10.1899995803833
645.9440617,-7.65999984741211
645.9596867,-5.07999992370605
645.9753117,-2.97000002861023
645.9909367,-1.77999997138977
646.0065617,-1.50999999046326
646.0221867,-1.75999999046326
646.0378117,-2.25
646.0534367,-2.84999990463257
646.0690617,-3.41000008583069
646.0846867,-3.72000002861023
646.1003117,-3.6800000667572
646.1159367,-3.42000007629395
646.1315617,-3.35999989509583
646.1471867,-3.82999992370605
646.1628117,-4.80000019073486
646.1784367,-6.01999998092651
646.1940617,-7.32000017166138
646.2096867,-8.72000026702881
646.2253117,-10.2799997329712
646.2409367,-12.0200004577637
646.2565617,-13.8400001525879
646.2721867,-15.5600004196167
646.2878117,-16.9899997711182
646.3034367,-18.0
646.3190617,-18.5599994659424
646.3346867,-18.6299991607666
646.3503117,-18.0400009155273
646.3659367,-16.6200008392334
646.3815617,-14.4399995803833
646.3971867,-11.8900003433228
646.4128117,-9.57999992370605
646.4284367,-7.84000015258789
646.4440617,-6.42999982833862
646.4596867,-4.84000015258789
646.4753117,-2.89000010490417
646.4909367,-0.860000014305115
646.5065617,0.839999973773956
646.5221867,2.00999999046326
646.5378117,2.6800000667572
646.5534367,3.09999990463257
646.5690617,3.54999995231628
646.5846867,4.23000001907349
646.6003117,5.19000005722046
646.6159367,6.30999994277954
646.6315617,7.46000003814697
646.6471867,8.52000045776367
646.6628117,9.43000030517578
646.6784367,10.0900001525879
646.6940617,10.3199996948242
