Time(s),Value(%)
1535.0042358,-22.5699996948242
1535.0198608,-26.0200004577637
1535.0354858,-29.5100002288818
1535.0511108,-32.6699981689453
1535.0667358,-34.9500007629395
1535.0823608,-35.9799995422363
1535.0979858,-35.7700004577637
1535.1136108,-34.439998626709
1535.1292358,-32.1599998474121
1535.1448608,-29.2999992370605
1535.1604858,-26.4200000762939
1535.1761108,-24.0100002288818
1535.1917358,-22.1299991607666
1535.2073608,-20.1200008392334
1535.2229858,-16.6900005340576
1535.2386108,-10.6400003433228
1535.2542358,-1.67999994754791
1535.2698608,9.18000030517578
1535.2854858,20.0900001525879
1535.3011108,29.0799999237061
1535.3167358,34.9700012207031
1535.3323608,37.7200012207031
1535.3479858,38.0299987792969
1535.3636108,36.7400016784668
1535.3792358,34.4300003051758
1535.3948608,31.4300003051758
1535.4104858,27.7900009155273
1535.4261108,23.3999996185303
1535.4417358,18.1599998474121
1535.4573608,12.0500001907349
1535.4729858,5.23000001907349
1535.4886108,-1.9099999666214
1535.5042358,-8.72999954223633
1535.5198608,-14.539999961853
1535.5354858,-18.9799995422363
1535.5511108,-22.1599998474121
1535.5667358,-24.2800006866455
1535.5823608,-25.3600006103516
1535.5979858,-25.3600006103516
1535.6136108,-24.2700004577637
1535.6292358,-22.1299991607666
1535.6448608,-19.0400009155273
1535.6604858,-15.2700004577637
1535.6761108,-11.3199996948242
1535.6917358,-7.73000001907349
1535.7073608,-4.92000007629395
1535.7229858,-3.10999989509583
1535.7386108,-2.29999995231628
1535.7542358,-2.34999990463257
1535.7698608,-3.07999992370605
1535.7854858,-4.1100001335144
1535.8011108,-4.96000003814697
1535.8167358,-5.46000003814697
1535.8323608,-5.71000003814697
1535.8479858,-5.69000005722046
1535.8636108,-5.21000003814697
1535.8792358,-4.19000005722046
1535.8948608,-2.78999996185303
1535.9104858,-1.1599999666214
1535.9261108,0.930000007152557
1535.9417358,4.09000015258789
1535.9573608,8.86999988555908
1535.9729858,15.2299995422363
1535.9886108,22.2900009155273
1536.0042358,28.5599994659424
1536.0198608,32.6699981689453
1536.0354858,33.9199981689453
1536.0511108,32.4799995422363
1536.0667358,29.1499996185303
1536.0823608,25.0699996948242
1536.0979858,21.1599998474121
1536.1136108,17.7800006866455
1536.1292358,14.7799997329712
1536.1448608,11.8400001525879
1536.1604858,8.60999965667725
1536.1761108,4.84999990463257
1536.1917358,0.620000004768372
1536.2073608,-3.66000008583069
1536.2229858,-7.40000009536743
1536.2386108,-10.1599998474121
1536.2542358,-11.789999961853
1536.2698608,-12.4300003051758
1536.2854858,-12.3100004196167
1536.3011108,-11.7799997329712
1536.3167358,-11.2299995422363
1536.3323608,-10.960000038147
1536.3479858,-11.1300001144409
1536.3636108,-11.7200002670288
1536.3792358,-12.6800003051758
1536.3948608,-13.960000038147
1536.4104858,-15.4700002670288
1536.4261108,-17.0699996948242
1536.4417358,-18.5300006866455
1536.4573608,-19.5200004577637
1536.4729858,-19.75
1536.4886108,-19.2800006866455
1536.5042358,-18.3600006103516
1536.5198608,-17.2299995422363
1536.5354858,-15.9799995422363
1536.5511108,-14.5900001525879
1536.5667358,-13.0600004196167
1536.5823608,-11.3100004196167
1536.5979858,-8.84000015258789
1536.6136108,-4.78999996185303
1536.6292358,1.44000005722046
1536.6448608,9.57999992370605
1536.6604858,18.3600006103516
1536.6761108,26.1599998474121
1536.6917358,31.6399993896484
1536.7073608,34.0999984741211
1536.7229858,33.5800018310547
1536.7386108,30.7299995422363
1536.7542358,26.4599990844727
1536.7698608,21.5699996948242
1536.7854858,16.5900001525879
1536.8011108,11.7399997711182
1536.8167358,7.03999996185303
1536.8323608,2.50999999046326
1536.8479858,-1.6599999666214
1536.8636108,-5.17999982833862
1536.8792358,-7.73000001907349
1536.8948608,-9.10000038146973
1536.9104858,-9.31999969482422
1536.9261108,-8.67000007629395
1536.9417358,-7.59999990463257
1536.9573608,-6.63000011444092
1536.9729858,-6.1399998664856
1536.9886108,-6.34999990463257
1537.0042358,-7.19999980926514
1537.0198608,-8.4399995803833
1537.0354858,-9.73999977111816
1537.0511108,-10.8999996185303
1537.0667358,-11.9099998474121
1537.0823608,-12.7799997329712
1537.0979858,-13.3900003433228
1537.1136108,-13.5100002288818
1537.1292358,-12.9799995422363
1537.1448608,-11.8299999237061
1537.1604858,-10.3500003814697
1537.1761108,-8.97999954223633
1537.1917358,-8.09000015258789
1537.2073608,-7.73999977111816
1537.2229858,-7.71000003814697
1537.2386108,-7.69000005722046
1537.2542358,-7.42999982833862
1537.2698608,-6.71999979019165
1537.2854858,-5.19000005722046
1537.3011108,-2.07999992370605
1537.3167358,3.5699999332428
1537.3323608,12.289999961853
1537.3479858,23.2000007629395
1537.3636108,34.0499992370605
1537.3792358,42.25
1537.3948608,46.0699996948242
1537.4104858,45.3400001525879
1537.4261108,41.1599998474121
1537.4417358,35.1599998474121
1537.4573608,28.6599998474121
1537.4729858,22.4200000762939
1537.4886108,16.6299991607666
1537.5042358,11.1400003433228
1537.5198608,5.73000001907349
1537.5354858,0.310000002384186
1537.5511108,-4.90999984741211
1537.5667358,-9.5
1537.5823608,-12.9499998092651
1537.5979858,-14.8500003814697
1537.6136108,-15.1300001144409
1537.6292358,-14.1999998092651
1537.6448608,-12.6999998092651
1537.6604858,-11.3100004196167
1537.6761108,-10.5
1537.6917358,-10.3999996185303
1537.7073608,-10.8699998855591
1537.7229858,-11.4899997711182
1537.7386108,-11.8699998855591
1537.7542358,-11.8699998855591
1537.7698608,-11.6899995803833
1537.7854858,-11.8000001907349
1537.8011108,-12.4799995422363
1537.8167358,-13.6599998474121
1537.8323608,-14.9200000762939
1537.8479858,-15.8400001525879
1537.8636108,-16.2299995422363
1537.8792358,-16.1800003051758
1537.8948608,-15.9899997711182
1537.9104858,-16.0799999237061
1537.9261108,-16.7399997711182
1537.9417358,-17.8700008392334
1537.9573608,-18.7000007629395
1537.9729858,-17.5
1537.9886108,-12.1199998855591
1538.0042358,-1.37999999523163
1538.0198608,13.6800003051758
1538.0354858,29.8700008392334
1538.0511108,43.2200012207031
1538.0667358,50.9599990844727
1538.0823608,52.5200004577637
1538.0979858,49.2000007629395
1538.1136108,43.1199989318848
1538.1292358,36.1399993896484
1538.1448608,29.3700008392334
1538.1604858,23.1200008392334
1538.1761108,17.1100006103516
1538.1917358,10.8999996185303
1538.2073608,4.34000015258789
1538.2229858,-2.22000002861023
1538.2386108,-8.18000030517578
1538.2542358,-12.9899997711182
1538.2698608,-16.3700008392334
1538.2854858,-18.3500003814697
1538.3011108,-19.0699996948242
1538.3167358,-18.6399993896484
1538.3323608,-17.2600002288818
1538.3479858,-15.4200000762939
1538.3636108,-13.8500003814697
1538.3792358,-13.1999998092651
1538.3948608,-13.6800003051758
1538.4104858,-14.9700002670288
1538.4261108,-16.3700008392334
1538.4417358,-17.1900005340576
1538.4573608,-17.1900005340576
1538.4729858,-16.8199996948242
1538.4886108,-16.9099998474121
1538.5042358,-17.9099998474121
1538.5198608,-19.6900005340576
1538.5354858,-21.7000007629395
1538.5511108,-23.3899993896484
1538.5667358,-24.3099994659424
1538.5823608,-24.1399993896484
1538.5979858,-22.7399997711182
1538.6136108,-20.1599998474121
1538.6292358,-16.3999996185303
1538.6448608,-11.0500001907349
1538.6604858,-3.33999991416931
1538.6761108,7.1399998664856
1538.6917358,19.75
1538.7073608,32.310001373291
1538.7229858,41.9300003051758
1538.7386108,46.5400009155273
1538.7542358,45.8899993896484
1538.7698608,41.2299995422363
1538.7854858,34.4700012207031
1538.8011108,27.2700004577637
1538.8167358,20.3600006103516
1538.8323608,13.5200004577637
1538.8479858,6.30999994277954
1538.8636108,-1.10000002384186
1538.8792358,-7.82000017166138
1538.8948608,-12.6099996566772
1538.9104858,-14.6800003051758
1538.9261108,-14.1099996566772
1538.9417358,-11.6099996566772
1538.9573608,-7.98999977111816
1538.9729858,-4.01000022888184
1538.9886108,-0.319999992847443
1539.0042358,2.40000009536743
1539.0198608,3.65000009536743
1539.0354858,3.27999997138977
1539.0511108,1.66999995708466
1539.0667358,-0.490000009536743
1539.0823608,-2.60999989509583
1539.0979858,-4.28000020980835
1539.1136108,-5.44000005722046
1539.1292358,-6.19999980926514
1539.1448608,-6.69999980926514
1539.1604858,-7.3600001335144
1539.1761108,-8.77999973297119
1539.1917358,-11.3500003814697
1539.2073608,-14.9700002670288
1539.2229858,-18.9200000762939
1539.2386108,-22.2099990844727
1539.2542358,-24.0499992370605
1539.2698608,-24.2099990844727
1539.2854858,-22.9400005340576
1539.3011108,-20.5599994659424
1539.3167358,-17.1399993896484
1539.3323608,-12.2600002288818
1539.3479858,-5.34000015258789
1539.3636108,3.63000011444092
1539.3792358,13.6099996566772
1539.3948608,22.8099994659424
1539.4104858,29.6399993896484
1539.4261108,33.3600006103516
1539.4417358,34.0999984741211
1539.4573608,32.5699996948242
1539.4729858,29.7399997711182
1539.4886108,26.4599990844727
1539.5042358,23.1299991607666
1539.5198608,19.6599998474121
1539.5354858,15.7600002288818
1539.5511108,11.289999961853
1539.5667358,6.40999984741211
1539.5823608,1.53999996185303
1539.5979858,-2.76999998092651
1539.6136108,-6.09000015258789
1539.6292358,-8.23999977111816
1539.6448608,-9.43000030517578
1539.6604858,-10.0100002288818
1539.6761108,-10.2600002288818
1539.6917358,-10.289999961853
1539.7073608,-10.210000038147
1539.7229858,-10.1499996185303
1539.7386108,-10.1499996185303
1539.7542358,-10.1899995803833
1539.7698608,-10.289999961853
1539.7854858,-10.5600004196167
1539.8011108,-11.0
1539.8167358,-11.5600004196167
1539.8323608,-12.210000038147
1539.8479858,-12.9300003051758
1539.8636108,-13.5900001525879
1539.8792358,-14.0500001907349
1539.8948608,-14.2200002670288
1539.9104858,-14.1000003814697
1539.9261108,-13.7600002288818
1539.9417358,-13.0900001525879
1539.9573608,-11.6700000762939
1539.9729858,-8.78999996185303
1539.9886108,-3.72000002861023
1540.0042358,3.77999997138977
1540.0198608,13.1300001144409
1540.0354858,22.8600006103516
1540.0511108,31.2199993133545
1540.0667358,36.8199996948242
1540.0823608,39.1500015258789
1540.0979858,38.5999984741211
1540.1136108,36.0900001525879
1540.1292358,32.5499992370605
1540.1448608,28.5699996948242
1540.1604858,24.2800006866455
1540.1761108,19.5900001525879
1540.1917358,14.460000038147
1540.2073608,8.9399995803833
1540.2229858,3.28999996185303
1540.2386108,-1.96000003814697
1540.2542358,-6.25
1540.2698608,-9.1899995803833
1540.2854858,-10.75
1540.3011108,-11.2399997711182
1540.3167358,-11.1400003433228
1540.3323608,-10.9499998092651
1540.3479858,-11.1400003433228
1540.3636108,-11.9399995803833
1540.3792358,-13.1800003051758
1540.3948608,-14.4399995803833
1540.4104858,-15.3199996948242
1540.4261108,-15.6599998474121
1540.4417358,-15.5200004577637
1540.4573608,-15.0600004196167
1540.4729858,-14.4899997711182
1540.4886108,-14.0100002288818
1540.5042358,-13.7700004577637
1540.5198608,-13.75
1540.5354858,-13.8599996566772
1540.5511108,-13.9899997711182
1540.5667358,-13.9099998474121
1540.5823608,-13.3699998855591
1540.5979858,-12.0299997329712
1540.6136108,-9.34000015258789
1540.6292358,-4.44000005722046
1540.6448608,3.38000011444092
1540.6604858,13.8699998855591
1540.6761108,25.4599990844727
1540.6917358,35.7999992370605
1540.7073608,42.8600006103516
1540.7229858,45.7700004577637
1540.7386108,44.9000015258789
1540.7542358,41.3899993896484
1540.7698608,36.5200004577637
1540.7854858,31.1499996185303
1540.8011108,25.6299991607666
1540.8167358,19.8999996185303
1540.8323608,13.8299999237061
1540.8479858,7.44000005722046
1540.8636108,1.02999997138977
1540.8792358,-4.90999984741211
1540.8948608,-9.9399995803833
1540.9104858,-13.710000038147
1540.9261108,-16.1100006103516
1540.9417358,-17.2800006866455
1540.9573608,-17.5400009155273
1540.9729858,-17.3299999237061
1540.9886108,-17.1399993896484
1541.0042358,-17.3999996185303
1541.0198608,-18.2600002288818
1541.0354858,-19.3700008392334
1541.0511108,-20.2600002288818
1541.0667358,-20.7000007629395
1541.0823608,-20.8199996948242
1541.0979858,-20.9200000762939
1541.1136108,-21.2199993133545
1541.1292358,-21.75
1541.1448608,-22.3999996185303
1541.1604858,-23.0
1541.1761108,-23.4400005340576
1541.1917358,-23.5900001525879
1541.2073608,-23.2299995422363
1541.2229858,-22.1299991607666
1541.2386108,-20.1000003814697
1541.2542358,-16.7399997711182
1541.2698608,-11.4200000762939
1541.2854858,-3.53999996185303
1541.3011108,6.69000005722046
1541.3167358,17.9799995422363
1541.3323608,28.4400005340576
1541.3479858,36.560001373291
1541.3636108,41.5800018310547
1541.3792358,43.4300003051758
1541.3948608,42.6100006103516
1541.4104858,39.9500007629395
1541.4261108,36.25
1541.4417358,32.0299987792969
1541.4573608,27.4599990844727
1541.4729858,22.5499992370605
1541.4886108,17.2600002288818
1541.5042358,11.6099996566772
1541.5198608,5.90999984741211
1541.5354858,0.769999980926514
1541.5511108,-3.19000005722046
1541.5667358,-5.69999980926514
1541.5823608,-6.8899998664856
1541.5979858,-7.30000019073486
1541.6136108,-7.57000017166138
1541.6292358,-8.18000030517578
1541.6448608,-9.1899995803833
1541.6604858,-10.3900003433228
1541.6761108,-11.5900001525879
1541.6917358,-12.6999998092651
1541.7073608,-13.710000038147
1541.7229858,-14.6899995803833
1541.7386108,-15.789999961853
1541.7542358,-17.1800003051758
1541.7698608,-18.8500003814697
1541.7854858,-20.6499996185303
1541.8011108,-22.3700008392334
1541.8167358,-23.9699993133545
1541.8323608,-25.4400005340576
1541.8479858,-26.7099990844727
1541.8636108,-27.6499996185303
1541.8792358,-28.0799999237061
1541.8948608,-27.6900005340576
1541.9104858,-25.8500003814697
1541.9261108,-21.6399993896484
1541.9417358,-14.2700004577637
1541.9573608,-3.76999998092651
1541.9729858,8.80000019073486
1541.9886108,21.4799995422363
1542.0042358,32.060001373291
1542.0198608,39.0
1542.0354858,41.9900016784668
1542.0511108,41.8600006103516
1542.0667358,39.9300003051758
1542.0823608,37.2900009155273
1542.0979858,34.4700012207031
1542.1136108,31.4200000762939
1542.1292358,27.7399997711182
1542.1448608,23.0499992370605
1542.1604858,17.3500003814697
1542.1761108,11.1499996185303
1542.1917358,5.21999979019165
1542.2073608,0.239999994635582
1542.2229858,-3.41000008583069
1542.2386108,-5.8899998664856
1542.2542358,-7.65999984741211
1542.2698608,-9.27000045776367
1542.2854858,-11.1700000762939
1542.3011108,-13.5799999237061
1542.3167358,-16.4099998474121
1542.3323608,-19.3400001525879
1542.3479858,-21.9300003051758
1542.3636108,-23.8600006103516
1542.3792358,-25.2399997711182
1542.3948608,-26.4799995422363
1542.4104858,-27.9300003051758
1542.4261108,-29.6100006103516
1542.4417358,-31.3199996948242
1542.4573608,-32.8400001525879
1542.4729858,-34.0400009155273
1542.4886108,-34.9000015258789
1542.5042358,-35.3300018310547
1542.5198608,-35.1800003051758
1542.5354858,-34.2900009155273
1542.5511108,-32.5
1542.5667358,-29.4099998474121
1542.5823608,-24.2000007629395
1542.5979858,-15.9099998474121
1542.6136108,-4.26999998092651
1542.6292358,9.85000038146973
1542.6448608,24.5799999237061
1542.6604858,37.6100006103516
1542.6761108,47.1800003051758
1542.6917358,52.689998626709
1542.7073608,54.5299987792969
1542.7229858,53.6300010681152
1542.7386108,51.1300010681152
1542.7542358,47.7999992370605
1542.7698608,43.8699989318848
1542.7854858,39.1300010681152
1542.8011108,33.3899993896484
1542.8167358,26.6800003051758
1542.8323608,19.5200004577637
1542.8479858,12.789999961853
1542.8636108,7.34999990463257
1542.8792358,3.72000002861023
1542.8948608,1.88999998569489
1542.9104858,1.32000005245209
1542.9261108,1.24000000953674
1542.9417358,0.939999997615814
1542.9573608,-0.0299999993294477
1542.9729858,-1.9099999666214
1542.9886108,-4.84000015258789
1543.0042358,-8.86999988555908
1543.0198608,-13.8299999237061
1543.0354858,-19.1700000762939
1543.0511108,-24.0599994659424
1543.0667358,-27.8099994659424
1543.0823608,-30.1900005340576
1543.0979858,-31.5499992370605
1543.1136108,-32.3899993896484
1543.1292358,-33.1699981689453
1543.1448608,-34.0299987792969
1543.1604858,-34.7400016784668
1543.1761108,-34.8499984741211
1543.1917358,-33.9000015258789
1543.2073608,-31.4799995422363
1543.2229858,-26.8999996185303
1543.2386108,-19.1200008392334
1543.2542358,-7.46999979019165
1543.2698608,7.46000003814697
1543.2854858,23.8500003814697
1543.3011108,39.4300003051758
1543.3167358,52.3600006103516
1543.3323608,61.5999984741211
1543.3479858,66.9300003051758
1543.3636108,68.7099990844727
1543.3792358,67.5599975585938
1543.3948608,64.0299987792969
1543.4104858,58.2700004577637
1543.4261108,50.2200012207031
1543.4417358,40.0800018310547
1543.4573608,28.5499992370605
1543.4729858,16.7199993133545
1543.4886108,5.84000015258789
1543.5042358,-3.05999994277954
1543.5198608,-9.59000015258789
1543.5354858,-14.039999961853
1543.5511108,-17.2399997711182
1543.5667358,-20.0300006866455
1543.5823608,-22.9200000762939
1543.5979858,-26.0900001525879
1543.6136108,-29.3500003814697
1543.6292358,-32.4099998474121
1543.6448608,-35.0200004577637
1543.6604858,-37.1500015258789
1543.6761108,-38.8400001525879
1543.6917358,-40.1800003051758
1543.7073608,-41.2900009155273
1543.7229858,-42.2900009155273
1543.7386108,-43.3800010681152
1543.7542358,-44.6100006103516
1543.7698608,-45.6800003051758
1543.7854858,-46.0800018310547
1543.8011108,-45.5099983215332
1543.8167358,-43.9700012207031
1543.8323608,-41.5499992370605
1543.8479858,-38.1399993896484
1543.8636108,-32.9199981689453
1543.8792358,-24.4400005340576
1543.8948608,-11.539999961853
1543.9104858,5.48999977111816
1543.9261108,24.7199993133545
1543.9417358,43.4700012207031
1543.9573608,59.3899993896484
1543.9729858,71.1100006103516
1543.9886108,78.370002746582
1544.0042358,81.5999984741211
1544.0198608,81.3000030517578
1544.0354858,77.9499969482422
1544.0511108,72.0
1544.0667358,63.8300018310547
1544.0823608,53.6800003051758
1544.0979858,41.9700012207031
1544.1136108,29.3700008392334
1544.1292358,16.4400005340576
1544.1448608,3.32999992370605
1544.1604858,-9.97999954223633
1544.1761108,-23.0599994659424
1544.1917358,-34.8499984741211
1544.2073608,-44.2999992370605
1544.2229858,-51.060001373291
1544.2386108,-55.5099983215332
1544.2542358,-58.2900009155273
1544.2698608,-59.939998626709
1544.2854858,-60.7999992370605
1544.3011108,-61.1100006103516
1544.3167358,-60.9700012207031
1544.3323608,-60.1599998474121
1544.3479858,-58.2700004577637
1544.3636108,-55.1399993896484
1544.3792358,-51.0999984741211
1544.3948608,-46.4500007629395
1544.4104858,-41.1100006103516
1544.4261108,-34.8499984741211
1544.4417358,-27.7700004577637
1544.4573608,-20.3899993896484
1544.4729858,-13.3699998855591
1544.4886108,-7.01999998092651
1544.5042358,-0.810000002384186
1544.5198608,6.6399998664856
1544.5354858,17.0100002288818
1544.5511108,31.3500003814697
1544.5667358,49.3899993896484
1544.5823608,69.3099975585938
1544.5979858,88.1399993896484
1544.6136108,102.76000213623
1544.6292358,111.300003051758
1544.6448608,113.75
1544.6604858,111.400001525879
1544.6761108,105.75
1544.6917358,97.8499984741211
1544.7073608,88.129997253418
1544.7229858,76.8300018310547
1544.7386108,64.3199996948242
1544.7542358,51.0499992370605
1544.7698608,37.4900016784668
1544.7854858,24.0300006866455
1544.8011108,11.0799999237061
1544.8167358,-0.899999976158142
1544.8323608,-11.5699996948242
1544.8479858,-20.6800003051758
1544.8636108,-28.1200008392334
1544.8792358,-33.9900016784668
1544.8948608,-38.6599998474121
1544.9104858,-42.6100006103516
1544.9261108,-46.3300018310547
1544.9417358,-49.9900016784668
1544.9573608,-53.3899993896484
1544.9729858,-56.1300010681152
1544.9886108,-57.9500007629395
1545.0042358,-58.8199996948242
1545.0198608,-59.0
1545.0354858,-58.7700004577637
1545.0511108,-58.2700004577637
1545.0667358,-57.4799995422363
1545.0823608,-56.439998626709
1545.0979858,-55.2599983215332
1545.1136108,-53.939998626709
1545.1292358,-52.3300018310547
1545.1448608,-49.9000015258789
1545.1604858,-45.560001373291
1545.1761108,-37.8899993896484
1545.1917358,-25.7800006866455
1545.2073608,-9.07999992370605
1545.2229858,11.039999961853
1545.2386108,32.5800018310547
1545.2542358,53.1699981689453
1545.2698608,70.4400024414063
1545.2854858,82.6600036621094
1545.3011108,89.2099990844727
