Time(s),Value(%)
1161.0087215,-48.9700012207031
1161.0243465,-45.2099990844727
1161.0399715,-41.2999992370605
1161.0555965,-37.25
1161.0712215,-33.1300010681152
1161.0868465,-29.0200004577637
1161.1024715,-24.8999996185303
1161.1180965,-20.7000007629395
1161.1337215,-16.4400005340576
1161.1493465,-12.3500003814697
1161.1649715,-8.6899995803833
1161.1805965,-5.51000022888184
1161.1962215,-2.3199999332428
1161.2118465,2.23000001907349
1161.2274715,10.1800003051758
1161.2430965,23.2399997711182
1161.2587215,41.7000007629395
1161.2743465,64.0500030517578
1161.2899715,87.4899978637695
1161.3055965,108.809997558594
1161.3212215,125.400001525879
1161.3368465,135.800003051758
1161.3524715,139.830001831055
1161.3680965,138.429992675781
1161.3837215,133.059997558594
1161.3993465,124.98999786377
1161.4149715,115.069999694824
1161.4305965,103.800003051758
1161.4462215,91.5299987792969
1161.4618465,78.4100036621094
1161.4774715,64.4499969482422
1161.4930965,49.7400016784668
1161.5087215,34.7400016784668
1161.5243465,20.2999992370605
1161.5399715,7.28999996185303
1161.5555965,-3.75
1161.5712215,-12.8199996948242
1161.5868465,-20.25
1161.6024715,-26.4300003051758
1161.6180965,-31.7000007629395
1161.6337215,-36.5099983215332
1161.6493465,-41.3400001525879
1161.6649715,-46.3699989318848
1161.6805965,-51.3400001525879
1161.6962215,-55.9199981689453
1161.7118465,-59.9199981689453
1161.7274715,-63.3600006103516
1161.7430965,-66.4100036621094
1161.7587215,-69.1699981689453
1161.7743465,-71.5
1161.7899715,-73.0599975585938
1161.8055965,-73.629997253418
1161.8212215,-73.2300033569336
1161.8368465,-72.0699996948242
1161.8524715,-70.3499984741211
1161.8680965,-68.2699966430664
1161.8837215,-65.9599990844727
1161.8993465,-63.4900016784668
1161.9149715,-60.7900009155273
1161.9305965,-57.7099990844727
1161.9462215,-54.2400016784668
1161.9618465,-50.439998626709
1161.9774715,-46.4599990844727
1161.9930965,-42.4900016784668
1162.0087215,-38.6599998474121
1162.0243465,-35.0
1162.0399715,-31.4099998474121
1162.0555965,-27.8199996948242
1162.0712215,-24.2000007629395
1162.0868465,-20.5200004577637
1162.1024715,-16.7600002288818
1162.1180965,-12.9700002670288
1162.1337215,-9.19999980926514
1162.1493465,-5.1100001335144
1162.1649715,0.379999995231628
1162.1805965,8.96000003814697
1162.1962215,22.1100006103516
1162.2118465,40.2900009155273
1162.2274715,62.4799995422363
1162.2430965,86.5100021362305
1162.2587215,109.459999084473
1162.2743465,128.149993896484
1162.2899715,140.139999389648
1162.3055965,144.570007324219
1162.3212215,142.190002441406
1162.3368465,134.880004882813
1162.3524715,124.830001831055
1162.3680965,113.699996948242
1162.3837215,102.300003051758
1162.3993465,90.6500015258789
1162.4149715,78.2799987792969
1162.4305965,64.8600006103516
1162.4462215,50.5699996948242
1162.4618465,36.0999984741211
1162.4774715,22.3199996948242
1162.4930965,9.84000015258789
1162.5087215,-1.03999996185303
1162.5243465,-10.3400001525879
1162.5399715,-18.2099990844727
1162.5555965,-24.8899993896484
1162.5712215,-30.6800003051758
1162.5868465,-35.9300003051758
1162.6024715,-40.9900016784668
1162.6180965,-46.0499992370605
1162.6337215,-51.1500015258789
1162.6493465,-56.2200012207031
1162.6649715,-60.9700012207031
1162.6805965,-65.0199966430664
1162.6962215,-68.0899963378906
1162.7118465,-70.0899963378906
1162.7274715,-71.2099990844727
1162.7430965,-71.8000030517578
1162.7587215,-72.0199966430664
1162.7743465,-71.7600021362305
1162.7899715,-70.870002746582
1162.8055965,-69.2900009155273
1162.8212215,-67.0199966430664
1162.8368465,-64.1500015258789
1162.8524715,-60.7900009155273
1162.8680965,-57.1699981689453
1162.8837215,-53.5800018310547
1162.8993465,-50.2599983215332
1162.9149715,-47.2400016784668
1162.9305965,-44.4000015258789
1162.9462215,-41.5099983215332
1162.9618465,-38.3600006103516
1162.9774715,-34.8400001525879
1162.9930965,-31.0300006866455
1163.0087215,-27.1299991607666
1163.0243465,-23.3400001525879
1163.0399715,-19.7099990844727
1163.0555965,-16.1800003051758
1163.0712215,-12.6199998855591
1163.0868465,-8.85999965667725
1163.1024715,-4.51999998092651
1163.1180965,1.44000005722046
1163.1337215,10.6800003051758
1163.1493465,24.6299991607666
1163.1649715,43.3800010681152
1163.1805965,65.3000030517578
1163.1962215,87.629997253418
1163.2118465,107.410003662109
1163.2274715,122.389999389648
1163.2430965,131.580001831055
1163.2587215,135.080001831055
1163.2743465,133.550003051758
1163.2899715,127.930000305176
1163.3055965,119.319999694824
1163.3212215,108.879997253418
1163.3368465,97.3899993896484
1163.3524715,85.2699966430664
1163.3680965,72.5999984741211
1163.3837215,59.4300003051758
1163.3993465,46.0099983215332
1163.4149715,32.8199996948242
1163.4305965,20.4500007629395
1163.4462215,9.39999961853027
1163.4618465,-0.0399999991059303
1163.4774715,-7.96000003814697
1163.4930965,-14.6599998474121
1163.5087215,-20.6299991607666
1163.5243465,-26.2900009155273
1163.5399715,-31.8899993896484
1163.5555965,-37.4099998474121
1163.5712215,-42.7000007629395
1163.5868465,-47.6399993896484
1163.6024715,-52.1699981689453
1163.6180965,-56.2400016784668
1163.6337215,-59.8800010681152
1163.6493465,-63.0800018310547
1163.6649715,-65.6800003051758
1163.6805965,-67.379997253418
1163.6962215,-68.0100021362305
1163.7118465,-67.620002746582
1163.7274715,-66.4300003051758
1163.7430965,-64.75
1163.7587215,-62.9000015258789
1163.7743465,-60.9799995422363
1163.7899715,-58.9199981689453
1163.8055965,-56.5499992370605
1163.8212215,-53.6699981689453
1163.8368465,-50.2000007629395
1163.8524715,-46.2999992370605
1163.8680965,-42.3800010681152
1163.8837215,-38.8600006103516
1163.8993465,-35.8499984741211
1163.9149715,-33.1399993896484
1163.9305965,-30.3500003814697
1163.9462215,-27.2199993133545
1163.9618465,-23.6900005340576
1163.9774715,-19.9799995422363
1163.9930965,-16.5
1164.0087215,-13.539999961853
1164.0243465,-10.8199996948242
1164.0399715,-7.46999979019165
1164.0555965,-2.19000005722046
1164.0712215,6.48000001907349
1164.0868465,19.6299991607666
1164.1024715,37.3699989318848
1164.1180965,58.439998626709
1164.1337215,80.120002746582
1164.1493465,99.129997253418
1164.1649715,113.400001525879
1164.1805965,122.680000305176
1164.1962215,127.779998779297
1164.2118465,129.479995727539
1164.2274715,128.160003662109
1164.2430965,123.98999786377
1164.2587215,117.26000213623
1164.2743465,108.569999694824
1164.2899715,98.4700012207031
1164.3055965,87.2200012207031
1164.3212215,74.879997253418
1164.3368465,61.5400009155273
1164.3524715,47.5299987792969
1164.3680965,33.4099998474121
1164.3837215,19.7900009155273
1164.3993465,7.13000011444092
1164.4149715,-4.21999979019165
1164.4305965,-14.0900001525879
1164.4462215,-22.4699993133545
1164.4618465,-29.6200008392334
1164.4774715,-35.9900016784668
1164.4930965,-42.0200004577637
1164.5087215,-47.939998626709
1164.5243465,-53.7200012207031
1164.5399715,-59.0999984741211
1164.5555965,-63.8400001525879
1164.5712215,-67.9000015258789
1164.5868465,-71.3099975585938
1164.6024715,-74.0400009155273
1164.6180965,-76.0299987792969
1164.6337215,-77.3099975585938
1164.6493465,-78.0699996948242
1164.6649715,-78.3600006103516
1164.6805965,-78.0199966430664
1164.6962215,-76.8600006103516
1164.7118465,-74.9100036621094
1164.7274715,-72.3499984741211
1164.7430965,-69.3899993896484
1164.7587215,-66.2699966430664
1164.7743465,-63.2200012207031
1164.7899715,-60.2299995422363
1164.8055965,-57.0699996948242
1164.8212215,-53.5099983215332
1164.8368465,-49.5
1164.8524715,-45.1500015258789
1164.8680965,-40.5800018310547
1164.8837215,-35.7700004577637
1164.8993465,-30.7099990844727
1164.9149715,-25.6900005340576
1164.9305965,-21.1900005340576
1164.9462215,-17.4599990844727
1164.9618465,-14.4300003051758
1164.9774715,-11.6999998092651
1164.9930965,-8.72999954223633
1165.0087215,-4.90000009536743
1165.0243465,0.709999978542328
1165.0399715,9.32999992370605
1165.0555965,22.1100006103516
1165.0712215,39.4199981689453
1165.0868465,60.3899993896484
1165.1024715,82.8600006103516
1165.1180965,104.040000915527
1165.1337215,121.379997253418
1165.1493465,133.220001220703
1165.1649715,139.119995117188
1165.1805965,139.690002441406
1165.1962215,135.979995727539
1165.2118465,129.149993896484
1165.2274715,120.230003356934
1165.2430965,109.949996948242
1165.2587215,98.6900024414063
1165.2743465,86.4599990844727
1165.2899715,73.1699981689453
1165.3055965,59.0
1165.3212215,44.5400009155273
1165.3368465,30.5400009155273
1165.3524715,17.7000007629395
1165.3680965,6.42999982833862
1165.3837215,-3.19000005722046
1165.3993465,-11.4200000762939
1165.4149715,-18.7099990844727
1165.4305965,-25.4799995422363
1165.4462215,-31.9500007629395
1165.4618465,-38.0900001525879
1165.4774715,-43.7299995422363
1165.4930965,-48.7299995422363
1165.5087215,-53.2099990844727
1165.5243465,-57.4300003051758
1165.5399715,-61.5
1165.5555965,-65.1699981689453
1165.5712215,-68.0800018310547
1165.5868465,-70.0199966430664
1165.6024715,-70.9800033569336
1165.6180965,-71.0599975585938
1165.6337215,-70.4199981689453
1165.6493465,-69.2699966430664
1165.6649715,-67.8000030517578
1165.6805965,-66.129997253418
1165.6962215,-64.1600036621094
1165.7118465,-61.7700004577637
1165.7274715,-58.8899993896484
1165.7430965,-55.6199989318848
1165.7587215,-52.1699981689453
1165.7743465,-48.75
1165.7899715,-45.4500007629395
1165.8055965,-42.2099990844727
1165.8212215,-38.8300018310547
1165.8368465,-35.25
1165.8524715,-31.5300006866455
1165.8680965,-27.7800006866455
1165.8837215,-24.0599994659424
1165.8993465,-20.3600006103516
1165.9149715,-16.7700004577637
1165.9305965,-13.4200000762939
1165.9462215,-10.1499996185303
1165.9618465,-6.30999994277954
1165.9774715,-0.740000009536743
1165.9930965,7.90999984741211
1166.0087215,21.0200004577637
1166.0243465,39.3199996948242
1166.0399715,62.0
1166.0555965,86.25
1166.0712215,108.389999389648
1166.0868465,125.330001831055
1166.1024715,135.520004272461
1166.1180965,139.039993286133
1166.1337215,137.130004882813
1166.1493465,131.449996948242
1166.1649715,123.599998474121
1166.1805965,114.690002441406
1166.1962215,105.120002746582
1166.2118465,94.6699981689453
1166.2274715,82.9800033569336
1166.2430965,69.9300003051758
1166.2587215,55.7999992370605
1166.2743465,41.2000007629395
1166.2899715,26.9099998474121
1166.3055965,13.7600002288818
1166.3212215,2.38000011444092
1166.3368465,-7.09000015258789
1166.3524715,-15.039999961853
1166.3680965,-22.0
1166.3837215,-28.3899993896484
1166.3993465,-34.5400009155273
1166.4149715,-40.75
1166.4305965,-47.0900001525879
1166.4462215,-53.2799987792969
1166.4618465,-58.8400001525879
1166.4774715,-63.4500007629395
1166.4930965,-66.9700012207031
1166.5087215,-69.5400009155273
1166.5243465,-71.4499969482422
1166.5399715,-72.8600006103516
1166.5555965,-73.7600021362305
1166.5712215,-74.0599975585938
1166.5868465,-73.6900024414063
1166.6024715,-72.5400009155273
1166.6180965,-70.6100006103516
1166.6337215,-68.0400009155273
1166.6493465,-65.1500015258789
1166.6649715,-62.2400016784668
1166.6805965,-59.4199981689453
1166.6962215,-56.5699996948242
1166.7118465,-53.5999984741211
1166.7274715,-50.4799995422363
1166.7430965,-47.25
1166.7587215,-43.9199981689453
1166.7743465,-40.5999984741211
1166.7899715,-37.3699989318848
1166.8055965,-34.2000007629395
1166.8212215,-30.9400005340576
1166.8368465,-27.4699993133545
1166.8524715,-23.7999992370605
1166.8680965,-20.0100002288818
1166.8837215,-16.1800003051758
1166.8993465,-12.2299995422363
1166.9149715,-7.76999998092651
1166.9305965,-1.92999994754791
1166.9462215,6.69999980926514
1166.9618465,19.4599990844727
1166.9774715,36.7099990844727
1166.9930965,57.3400001525879
1167.0087215,79.120002746582
1167.0243465,99.6100006103516
1167.0399715,116.620002746582
1167.0555965,128.320007324219
1167.0712215,133.699996948242
1167.0868465,133.070007324219
1167.1024715,127.73999786377
1167.1180965,119.430000305176
1167.1337215,109.639999389648
1167.1493465,99.2699966430664
1167.1649715,88.5800018310547
1167.1805965,77.3899993896484
1167.1962215,65.4499969482422
1167.2118465,52.7900009155273
1167.2274715,39.8499984741211
1167.2430965,27.3700008392334
1167.2587215,15.9899997711182
1167.2743465,6.05000019073486
1167.2899715,-2.45000004768372
1167.3055965,-9.77999973297119
1167.3212215,-16.3799991607666
1167.3368465,-22.6299991607666
1167.3524715,-28.6499996185303
1167.3680965,-34.3400001525879
1167.3837215,-39.6199989318848
1167.3993465,-44.5200004577637
1167.4149715,-49.189998626709
1167.4305965,-53.6800003051758
1167.4462215,-57.8199996948242
1167.4618465,-61.3199996948242
1167.4774715,-63.9500007629395
1167.4930965,-65.5400009155273
1167.5087215,-66.1500015258789
1167.5243465,-66.0299987792969
1167.5399715,-65.4700012207031
1167.5555965,-64.5800018310547
1167.5712215,-63.3300018310547
1167.5868465,-61.5900001525879
1167.6024715,-59.310001373291
1167.6180965,-56.5699996948242
1167.6337215,-53.5900001525879
1167.6493465,-50.4900016784668
1167.6649715,-47.2000007629395
1167.6805965,-43.560001373291
1167.6962215,-39.5900001525879
1167.7118465,-35.5099983215332
1167.7274715,-31.6599998474121
1167.7430965,-28.2700004577637
1167.7587215,-25.3700008392334
1167.7743465,-22.8299999237061
1167.7899715,-20.4899997711182
1167.8055965,-18.1299991607666
1167.8212215,-15.5100002288818
1167.8368465,-12.1499996185303
1167.8524715,-7.21000003814697
1167.8680965,0.430000007152557
1167.8837215,11.7600002288818
1167.8993465,27.0599994659424
1167.9149715,45.6500015258789
1167.9305965,66.0500030517578
1167.9462215,86.0400009155273
1167.9618465,102.849998474121
1167.9774715,114.180000305176
1167.9930965,119.230003356934
1168.0087215,118.730003356934
1168.0243465,114.319999694824
1168.0399715,107.73999786377
1168.0555965,100.279998779297
1168.0712215,92.4300003051758
1168.0868465,83.9899978637695
1168.1024715,74.4800033569336
1168.1180965,63.6300010681152
1168.1337215,51.5499992370605
1168.1493465,38.8699989318848
1168.1649715,26.5900001525879
1168.1805965,15.6499996185303
1168.1962215,6.40000009536743
1168.2118465,-1.37000000476837
1168.2274715,-8.07999992370605
1168.2430965,-14.0200004577637
1168.2587215,-19.4099998474121
1168.2743465,-24.3199996948242
1168.2899715,-28.7000007629395
1168.3055965,-32.4900016784668
1168.3212215,-35.7400016784668
1168.3368465,-38.4799995422363
1168.3524715,-40.7000007629395
1168.3680965,-42.4199981689453
1168.3837215,-43.8199996948242
1168.3993465,-45.1100006103516
1168.4149715,-46.3899993896484
1168.4305965,-47.5999984741211
1168.4462215,-48.75
1168.4618465,-49.9300003051758
1168.4774715,-51.1800003051758
1168.4930965,-52.4199981689453
1168.5087215,-53.4799995422363
1168.5243465,-54.1100006103516
1168.5399715,-54.1699981689453
1168.5555965,-53.8400001525879
1168.5712215,-53.4700012207031
1168.5868465,-53.189998626709
1168.6024715,-52.7900009155273
1168.6180965,-51.9500007629395
1168.6337215,-50.4799995422363
1168.6493465,-48.4000015258789
1168.6649715,-45.7700004577637
1168.6805965,-42.7599983215332
1168.6962215,-39.6100006103516
1168.7118465,-36.5200004577637
1168.7274715,-33.4199981689453
1168.7430965,-29.7900009155273
1168.7587215,-24.6900005340576
1168.7743465,-17.0400009155273
1168.7899715,-5.84000015258789
1168.8055965,9.47000026702881
1168.8212215,28.3099994659424
1168.8368465,48.5999984741211
1168.8524715,67.5500030517578
1168.8680965,82.7600021362305
1168.8837215,92.9199981689453
1168.8993465,98.0699996948242
1168.9149715,99.0999984741211
1168.9305965,97.2099990844727
1168.9462215,93.4899978637695
1168.9618465,88.5999984741211
1168.9774715,82.7200012207031
1168.9930965,75.7600021362305
1169.0087215,67.5400009155273
1169.0243465,58.0699996948242
1169.0399715,47.5999984741211
1169.0555965,36.6199989318848
1169.0712215,25.6900005340576
1169.0868465,15.3999996185303
1169.1024715,6.26999998092651
1169.1180965,-1.36000001430511
1169.1337215,-7.40999984741211
1169.1493465,-12.0900001525879
1169.1649715,-15.9799995422363
1169.1805965,-19.6399993896484
1169.1962215,-23.4899997711182
1169.2118465,-27.6200008392334
1169.2274715,-31.8099994659424
1169.2430965,-35.6500015258789
1169.2587215,-38.7900009155273
1169.2743465,-41.1100006103516
1169.2899715,-42.7599983215332
1169.3055965,-44.1399993896484
1169.3212215,-45.4900016784668
1169.3368465,-46.7599983215332
1169.3524715,-47.6399993896484
1169.3680965,-47.7999992370605
1169.3837215,-47.1599998474121
1169.3993465,-45.8400001525879
1169.4149715,-44.0999984741211
1169.4305965,-42.1100006103516
1169.4462215,-40.0
1169.4618465,-37.8199996948242
1169.4774715,-35.5499992370605
1169.4930965,-33.189998626709
1169.5087215,-30.8500003814697
1169.5243465,-28.5799999237061
1169.5399715,-26.3600006103516
1169.5555965,-24.1900005340576
1169.5712215,-22.1100006103516
1169.5868465,-20.1900005340576
1169.6024715,-18.3400001525879
1169.6180965,-16.3700008392334
1169.6337215,-14.0200004577637
1169.6493465,-10.8800001144409
1169.6649715,-6.34999990463257
1169.6805965,0.569999992847443
1169.6962215,11.0600004196167
1169.7118465,25.5200004577637
1169.7274715,42.8899993896484
1169.7430965,60.9099998474121
1169.7587215,77.0800018310547
1169.7743465,89.5699996948242
1169.7899715,97.620002746582
1169.8055965,101.5
1169.8212215,102.029998779297
1169.8368465,100.019996643066
1169.8524715,95.9499969482422
1169.8680965,90.1600036621094
1169.8837215,83.0699996948242
1169.8993465,75.0100021362305
1169.9149715,66.120002746582
1169.9305965,56.3600006103516
1169.9462215,45.7200012207031
1169.9618465,34.439998626709
1169.9774715,23.1200008392334
1169.9930965,12.5500001907349
1170.0087215,3.40000009536743
1170.0243465,-4.17999982833862
1170.0399715,-10.5500001907349
1170.0555965,-16.2199993133545
1170.0712215,-21.4899997711182
1170.0868465,-26.4500007629395
1170.1024715,-31.1399993896484
1170.1180965,-35.5900001525879
1170.1337215,-39.7700004577637
1170.1493465,-43.6100006103516
1170.1649715,-47.0900001525879
1170.1805965,-50.2000007629395
1170.1962215,-52.9799995422363
1170.2118465,-55.4300003051758
1170.2274715,-57.3699989318848
1170.2430965,-58.5999984741211
1170.2587215,-59.0099983215332
1170.2743465,-58.6800003051758
1170.2899715,-57.75
1170.3055965,-56.4799995422363
1170.3212215,-55.1500015258789
1170.3368465,-53.8199996948242
1170.3524715,-52.3199996948242
1170.3680965,-50.3400001525879
1170.3837215,-47.689998626709
1170.3993465,-44.4000015258789
1170.4149715,-40.7299995422363
1170.4305965,-36.9799995422363
1170.4462215,-33.3699989318848
1170.4618465,-29.9599990844727
1170.4774715,-26.7700004577637
1170.4930965,-23.8099994659424
1170.5087215,-21.0900001525879
1170.5243465,-18.5200004577637
1170.5399715,-15.8000001907349
1170.5555965,-12.210000038147
1170.5712215,-6.71000003814697
1170.5868465,1.85000002384186
1170.6024715,14.1599998474121
1170.6180965,29.7600002288818
1170.6337215,47.1399993896484
1170.6493465,64.1699981689453
1170.6649715,78.7900009155273
1170.6805965,89.6900024414063
1170.6962215,96.4499969482422
1170.7118465,99.3300018310547
1170.7274715,98.9000015258789
1170.7430965,95.879997253418
1170.7587215,90.9599990844727
1170.7743465,84.75
1170.7899715,77.5199966430664
1170.8055965,69.1999969482422
1170.8212215,59.689998626709
1170.8368465,49.0900001525879
1170.8524715,37.8499984741211
1170.8680965,26.5699996948242
1170.8837215,15.8400001525879
1170.8993465,6.1100001335144
1170.9149715,-2.29999995231628
1170.9305965,-9.30000019073486
1170.9462215,-14.9200000762939
1170.9618465,-19.3899993896484
1170.9774715,-23.1499996185303
1170.9930965,-26.6700000762939
1171.0087215,-30.2999992370605
1171.0243465,-34.0900001525879
1171.0399715,-37.8800010681152
1171.0555965,-41.4099998474121
1171.0712215,-44.5499992370605
1171.0868465,-47.310001373291
1171.1024715,-49.6500015258789
1171.1180965,-51.4900016784668
1171.1337215,-52.7299995422363
1171.1493465,-53.2900009155273
1171.1649715,-53.1399993896484
1171.1805965,-52.2799987792969
1171.1962215,-50.7400016784668
1171.2118465,-48.560001373291
1171.2274715,-46.0099983215332
1171.2430965,-43.5299987792969
1171.2587215,-41.3699989318848
1171.2743465,-39.4099998474121
1171.2899715,-37.4000015258789
1171.3055965,-35.1699981689453
1171.3212215,-32.689998626709
