Time(s),Value(%)
1161.0087215,14.4899997711182
1161.0243465,12.3599996566772
1161.0399715,9.94999980926514
1161.0555965,6.98999977111816
1161.0712215,3.41000008583069
1161.0868465,-0.709999978542328
1161.1024715,-5.3899998664856
1161.1180965,-10.6700000762939
1161.1337215,-16.3899993896484
1161.1493465,-22.0699996948242
1161.1649715,-26.9599990844727
1161.1805965,-30.5599994659424
1161.1962215,-33.0200004577637
1161.2118465,-34.8899993896484
1161.2274715,-36.5099983215332
1161.2430965,-37.8400001525879
1161.2587215,-38.689998626709
1161.2743465,-38.9500007629395
1161.2899715,-38.6399993896484
1161.3055965,-37.5499992370605
1161.3212215,-35.060001373291
1161.3368465,-30.5300006866455
1161.3524715,-23.9099998474121
1161.3680965,-15.8599996566772
1161.3837215,-7.36999988555908
1161.3993465,0.660000026226044
1161.4149715,7.82000017166138
1161.4305965,14.1000003814697
1161.4462215,19.7800006866455
1161.4618465,25.1599998474121
1161.4774715,30.4300003051758
1161.4930965,35.6699981689453
1161.5087215,40.8699989318848
1161.5243465,46.0400009155273
1161.5399715,51.0800018310547
1161.5555965,55.6300010681152
1161.5712215,59.0999984741211
1161.5868465,60.939998626709
1161.6024715,61.0499992370605
1161.6180965,59.8199996948242
1161.6337215,57.7999992370605
1161.6493465,55.4799995422363
1161.6649715,53.1500015258789
1161.6805965,50.9000015258789
1161.6962215,48.7200012207031
1161.7118465,46.560001373291
1161.7274715,44.3699989318848
1161.7430965,42.0
1161.7587215,39.2000007629395
1161.7743465,35.7099990844727
1161.7899715,31.5100002288818
1161.8055965,26.7299995422363
1161.8212215,21.4300003051758
1161.8368465,15.6700000762939
1161.8524715,9.63000011444092
1161.8680965,3.64000010490417
1161.8837215,-1.75999999046326
1161.8993465,-6.34999990463257
1161.9149715,-10.3000001907349
1161.9305965,-14.0299997329712
1161.9462215,-17.7399997711182
1161.9618465,-21.25
1161.9774715,-24.2900009155273
1161.9930965,-26.7399997711182
1162.0087215,-28.6700000762939
1162.0243465,-30.3700008392334
1162.0399715,-32.2099990844727
1162.0555965,-34.4799995422363
1162.0712215,-37.25
1162.0868465,-40.5200004577637
1162.1024715,-44.3600006103516
1162.1180965,-48.8600006103516
1162.1337215,-53.9000015258789
1162.1493465,-58.9000015258789
1162.1649715,-62.9300003051758
1162.1805965,-65.1900024414063
1162.1962215,-65.4700012207031
1162.2118465,-64.0599975585938
1162.2274715,-61.3800010681152
1162.2430965,-57.7799987792969
1162.2587215,-53.560001373291
1162.2743465,-49.0400009155273
1162.2899715,-44.4500007629395
1162.3055965,-39.7599983215332
1162.3212215,-34.5200004577637
1162.3368465,-28.2700004577637
1162.3524715,-20.8799991607666
1162.3680965,-12.7399997711182
1162.3837215,-4.48999977111816
1162.3993465,3.30999994277954
1162.4149715,10.3599996566772
1162.4305965,16.5200004577637
1162.4462215,21.7299995422363
1162.4618465,25.9699993133545
1162.4774715,29.3600006103516
1162.4930965,32.1100006103516
1162.5087215,34.5
1162.5243465,36.7299995422363
1162.5399715,38.8800010681152
1162.5555965,40.7799987792969
1162.5712215,42.0900001525879
1162.5868465,42.4799995422363
1162.6024715,41.8199996948242
1162.6180965,40.310001373291
1162.6337215,38.2999992370605
1162.6493465,36.0900001525879
1162.6649715,33.7900009155273
1162.6805965,31.3600006103516
1162.6962215,28.7700004577637
1162.7118465,26.0599994659424
1162.7274715,23.3500003814697
1162.7430965,20.7000007629395
1162.7587215,17.9200000762939
1162.7743465,14.8500003814697
1162.7899715,11.5
1162.8055965,8.10999965667725
1162.8212215,4.96999979019165
1162.8368465,2.24000000953674
1162.8524715,-0.109999999403954
1162.8680965,-2.30999994277954
1162.8837215,-4.69999980926514
1162.8993465,-7.55000019073486
1162.9149715,-10.9200000762939
1162.9305965,-14.7700004577637
1162.9462215,-19.0599994659424
1162.9618465,-23.7999992370605
1162.9774715,-28.8400001525879
1162.9930965,-33.7200012207031
1163.0087215,-37.7299995422363
1163.0243465,-40.3800010681152
1163.0399715,-41.7700004577637
1163.0555965,-42.439998626709
1163.0712215,-42.810001373291
1163.0868465,-42.9700012207031
1163.1024715,-42.8199996948242
1163.1180965,-42.310001373291
1163.1337215,-41.4599990844727
1163.1493465,-40.3400001525879
1163.1649715,-38.939998626709
1163.1805965,-37.2299995422363
1163.1962215,-35.1500015258789
1163.2118465,-32.5999984741211
1163.2274715,-29.2800006866455
1163.2430965,-24.9099998474121
1163.2587215,-19.5200004577637
1163.2743465,-13.4099998474121
1163.2899715,-6.94000005722046
1163.3055965,-0.25
1163.3212215,6.71999979019165
1163.3368465,13.9300003051758
1163.3524715,20.9099998474121
1163.3680965,26.9699993133545
1163.3837215,31.6499996185303
1163.3993465,35.0
1163.4149715,37.4199981689453
1163.4305965,39.3600006103516
1163.4462215,41.060001373291
1163.4618465,42.560001373291
1163.4774715,43.7999992370605
1163.4930965,44.7799987792969
1163.5087215,45.6199989318848
1163.5243465,46.4700012207031
1163.5399715,47.3800010681152
1163.5555965,48.2299995422363
1163.5712215,48.6800003051758
1163.5868465,48.4199981689453
1163.6024715,47.2599983215332
1163.6180965,45.2999992370605
1163.6337215,42.7299995422363
1163.6493465,39.7400016784668
1163.6649715,36.4199981689453
1163.6805965,32.7900009155273
1163.6962215,28.9400005340576
1163.7118465,25.0400009155273
1163.7274715,21.2800006866455
1163.7430965,17.7399997711182
1163.7587215,14.3199996948242
1163.7743465,10.8400001525879
1163.7899715,7.32000017166138
1163.8055965,3.92000007629395
1163.8212215,0.839999973773956
1163.8368465,-1.8400000333786
1163.8524715,-4.19000005722046
1163.8680965,-6.42999982833862
1163.8837215,-8.90999984741211
1163.8993465,-11.8699998855591
1163.9149715,-15.3900003433228
1163.9305965,-19.3899993896484
1163.9462215,-23.8600006103516
1163.9618465,-28.8099994659424
1163.9774715,-34.1100006103516
1163.9930965,-39.310001373291
1164.0087215,-43.7400016784668
1164.0243465,-46.939998626709
1164.0399715,-49.0400009155273
1164.0555965,-50.5200004577637
1164.0712215,-51.7099990844727
1164.0868465,-52.6199989318848
1164.1024715,-53.1100006103516
1164.1180965,-53.1100006103516
1164.1337215,-52.6199989318848
1164.1493465,-51.4500007629395
1164.1649715,-48.9700012207031
1164.1805965,-44.5800018310547
1164.1962215,-38.189998626709
1164.2118465,-30.2299995422363
1164.2274715,-21.2299995422363
1164.2430965,-11.6499996185303
1164.2587215,-1.92999994754791
1164.2743465,7.34000015258789
1164.2899715,15.4399995803833
1164.3055965,21.9200000762939
1164.3212215,26.9300003051758
1164.3368465,31.0
1164.3524715,34.4199981689453
1164.3680965,37.1599998474121
1164.3837215,39.0999984741211
1164.3993465,40.2599983215332
1164.4149715,40.8400001525879
1164.4305965,41.060001373291
1164.4462215,41.0499992370605
1164.4618465,40.810001373291
1164.4774715,40.3300018310547
1164.4930965,39.6500015258789
1164.5087215,38.8699989318848
1164.5243465,38.0900001525879
1164.5399715,37.3499984741211
1164.5555965,36.5400009155273
1164.5712215,35.4000015258789
1164.5868465,33.6199989318848
1164.6024715,31.0499992370605
1164.6180965,27.7199993133545
1164.6337215,23.8700008392334
1164.6493465,19.8199996948242
1164.6649715,15.8500003814697
1164.6805965,12.1099996566772
1164.6962215,8.61999988555908
1164.7118465,5.26999998092651
1164.7274715,1.78999996185303
1164.7430965,-2.03999996185303
1164.7587215,-6.28999996185303
1164.7743465,-10.9200000762939
1164.7899715,-15.8999996185303
1164.8055965,-21.2299995422363
1164.8212215,-26.7999992370605
1164.8368465,-32.2400016784668
1164.8524715,-37.0200004577637
1164.8680965,-40.8400001525879
1164.8837215,-43.8600006103516
1164.8993465,-46.5200004577637
1164.9149715,-49.0699996948242
1164.9305965,-51.4300003051758
1164.9462215,-53.3800010681152
1164.9618465,-54.810001373291
1164.9774715,-55.7799987792969
1164.9930965,-56.5200004577637
1165.0087215,-57.3199996948242
1165.0243465,-58.4099998474121
1165.0399715,-59.810001373291
1165.0555965,-61.2099990844727
1165.0712215,-62.0999984741211
1165.0868465,-62.0099983215332
1165.1024715,-60.7900009155273
1165.1180965,-58.4700012207031
1165.1337215,-55.0200004577637
1165.1493465,-50.2299995422363
1165.1649715,-43.9300003051758
1165.1805965,-36.3300018310547
1165.1962215,-28.1800003051758
1165.2118465,-20.4500007629395
1165.2274715,-13.8199996948242
1165.2430965,-8.4399995803833
1165.2587215,-4.0
1165.2743465,-0.0700000002980232
1165.2899715,3.72000002861023
1165.3055965,7.53000020980835
1165.3212215,11.3400001525879
1165.3368465,15.0699996948242
1165.3524715,18.75
1165.3680965,22.3999996185303
1165.3837215,26.0200004577637
1165.3993465,29.3500003814697
1165.4149715,31.9200000762939
1165.4305965,33.310001373291
1165.4462215,33.4599990844727
1165.4618465,32.6399993896484
1165.4774715,31.2700004577637
1165.4930965,29.6700000762939
1165.5087215,28.0200004577637
1165.5243465,26.4099998474121
1165.5399715,24.8400001525879
1165.5555965,23.2000007629395
1165.5712215,21.3199996948242
1165.5868465,19.0200004577637
1165.6024715,16.2800006866455
1165.6180965,13.1300001144409
1165.6337215,9.61999988555908
1165.6493465,5.76000022888184
1165.6649715,1.64999997615814
1165.6805965,-2.47000002861023
1165.6962215,-6.26999998092651
1165.7118465,-9.5600004196167
1165.7274715,-12.4300003051758
1165.7430965,-15.1099996566772
1165.7587215,-17.6900005340576
1165.7743465,-20.1700000762939
1165.7899715,-22.6299991607666
1165.8055965,-25.2800006866455
1165.8212215,-28.2299995422363
1165.8368465,-31.2999992370605
1165.8524715,-34.0999984741211
1165.8680965,-36.3699989318848
1165.8837215,-38.2200012207031
1165.8993465,-39.939998626709
1165.9149715,-41.5800018310547
1165.9305965,-42.9599990844727
1165.9462215,-43.8300018310547
1165.9618465,-44.1100006103516
1165.9774715,-43.9000015258789
1165.9930965,-43.3699989318848
1166.0087215,-42.5800018310547
1166.0243465,-41.5299987792969
1166.0399715,-40.1599998474121
1166.0555965,-38.3400001525879
1166.0712215,-35.7999992370605
1166.0868465,-32.2799987792969
1166.1024715,-27.7900009155273
1166.1180965,-22.5900001525879
1166.1337215,-16.9200000762939
1166.1493465,-10.8699998855591
1166.1649715,-4.34999990463257
1166.1805965,2.54999995231628
1166.1962215,9.36999988555908
1166.2118465,15.4099998474121
1166.2274715,20.25
1166.2430965,23.8899993896484
1166.2587215,26.6900005340576
1166.2743465,29.0900001525879
1166.2899715,31.3500003814697
1166.3055965,33.560001373291
1166.3212215,35.6699981689453
1166.3368465,37.6599998474121
1166.3524715,39.5999984741211
1166.3680965,41.5800018310547
1166.3837215,43.6399993896484
1166.3993465,45.5900001525879
1166.4149715,47.060001373291
1166.4305965,47.7099990844727
1166.4462215,47.4199981689453
1166.4618465,46.3300018310547
1166.4774715,44.6699981689453
1166.4930965,42.689998626709
1166.5087215,40.5699996948242
1166.5243465,38.4300003051758
1166.5399715,36.3400001525879
1166.5555965,34.2000007629395
1166.5712215,31.8099994659424
1166.5868465,28.9500007629395
1166.6024715,25.5599994659424
1166.6180965,21.7099990844727
1166.6337215,17.4599990844727
1166.6493465,12.8599996566772
1166.6649715,8.02999973297119
1166.6805965,3.27999997138977
1166.6962215,-0.959999978542328
1166.7118465,-4.48000001907349
1166.7274715,-7.40999984741211
1166.7430965,-10.1099996566772
1166.7587215,-12.7299995422363
1166.7743465,-15.1700000762939
1166.7899715,-17.2299995422363
1166.8055965,-18.8299999237061
1166.8212215,-20.0400009155273
1166.8368465,-21.1200008392334
1166.8524715,-22.4500007629395
1166.8680965,-24.3299999237061
1166.8837215,-26.8199996948242
1166.8993465,-29.8799991607666
1166.9149715,-33.4799995422363
1166.9305965,-37.6399993896484
1166.9462215,-42.2099990844727
1166.9618465,-46.6800003051758
1166.9774715,-50.1800003051758
1166.9930965,-51.939998626709
1167.0087215,-51.5999984741211
1167.0243465,-49.2900009155273
1167.0399715,-45.4000015258789
1167.0555965,-40.4000015258789
1167.0712215,-34.7900009155273
1167.0868465,-29.0400009155273
1167.1024715,-23.4799995422363
1167.1180965,-18.1499996185303
1167.1337215,-12.8199996948242
1167.1493465,-7.15999984741211
1167.1649715,-1.05999994277954
1167.1805965,5.42000007629395
1167.1962215,12.1800003051758
1167.2118465,19.0699996948242
1167.2274715,25.9200000762939
1167.2430965,32.3300018310547
1167.2587215,37.7400016784668
1167.2743465,41.7200012207031
1167.2899715,44.2700004577637
1167.3055965,45.7700004577637
1167.3212215,46.6300010681152
1167.3368465,47.0800018310547
1167.3524715,47.2400016784668
1167.3680965,47.1500015258789
1167.3837215,46.9000015258789
1167.3993465,46.5499992370605
1167.4149715,46.1599998474121
1167.4305965,45.7900009155273
1167.4462215,45.4199981689453
1167.4618465,45.0200004577637
1167.4774715,44.5200004577637
1167.4930965,43.8800010681152
1167.5087215,43.0699996948242
1167.5243465,42.060001373291
1167.5399715,40.7799987792969
1167.5555965,39.0999984741211
1167.5712215,36.9199981689453
1167.5868465,34.2400016784668
1167.6024715,31.2199993133545
1167.6180965,28.1200008392334
1167.6337215,25.1800003051758
1167.6493465,22.5
1167.6649715,20.0599994659424
1167.6805965,17.7000007629395
1167.6962215,15.1700000762939
1167.7118465,12.2700004577637
1167.7274715,8.93000030517578
1167.7430965,5.17000007629395
1167.7587215,0.930000007152557
1167.7743465,-3.84999990463257
1167.7899715,-9.10000038146973
1167.8055965,-14.3800001144409
1167.8212215,-19.1100006103516
1167.8368465,-22.8400001525879
1167.8524715,-25.5799999237061
1167.8680965,-27.6200008392334
1167.8837215,-29.1000003814697
1167.8993465,-29.7299995422363
1167.9149715,-28.9500007629395
1167.9305965,-26.3600006103516
1167.9462215,-22.0599994659424
1167.9618465,-16.6100006103516
1167.9774715,-10.539999961853
1167.9930965,-3.84999990463257
1168.0087215,4.07000017166138
1168.0243465,13.6899995803833
1168.0399715,24.5200004577637
1168.0555965,35.2900009155273
1168.0712215,44.7999992370605
1168.0868465,52.4700012207031
1168.1024715,58.5800018310547
1168.1180965,64.0899963378906
1168.1337215,70.3399963378906
1168.1493465,78.4000015258789
1168.1649715,88.4000015258789
1168.1805965,99.7300033569336
1168.1962215,111.51000213623
1168.2118465,123.069999694824
1168.2274715,133.820007324219
1168.2430965,142.690002441406
1168.2587215,147.899993896484
1168.2743465,147.839996337891
1168.2899715,142.25
1168.3055965,132.339996337891
1168.3212215,120.029998779297
1168.3368465,107.059997558594
1168.3524715,94.5
1168.3680965,82.8000030517578
1168.3837215,71.9499969482422
1168.3993465,61.8400001525879
1168.4149715,52.4900016784668
1168.4305965,44.0099983215332
1168.4462215,36.4599990844727
1168.4618465,29.7800006866455
1168.4774715,23.9200000762939
1168.4930965,18.8099994659424
1168.5087215,14.3100004196167
1168.5243465,10.1599998474121
1168.5399715,6.07000017166138
1168.5555965,1.75
1168.5712215,-2.89000010490417
1168.5868465,-7.88000011444092
1168.6024715,-13.210000038147
1168.6180965,-18.8500003814697
1168.6337215,-24.7099990844727
1168.6493465,-30.5900001525879
1168.6649715,-36.3199996948242
1168.6805965,-41.8600006103516
1168.6962215,-47.4000015258789
1168.7118465,-53.1699981689453
1168.7274715,-59.2599983215332
1168.7430965,-65.5899963378906
1168.7587215,-72.0299987792969
1168.7743465,-78.4599990844727
1168.7899715,-84.7300033569336
1168.8055965,-90.5400009155273
1168.8212215,-95.5
1168.8368465,-99.1900024414063
1168.8524715,-101.290000915527
1168.8680965,-101.76000213623
1168.8837215,-100.800003051758
1168.8993465,-98.8300018310547
1168.9149715,-96.3300018310547
1168.9305965,-93.7300033569336
1168.9462215,-91.2399978637695
1168.9618465,-88.8300018310547
1168.9774715,-86.2200012207031
1168.9930965,-83.120002746582
1169.0087215,-79.4100036621094
1169.0243465,-75.1500015258789
1169.0399715,-70.4400024414063
1169.0555965,-65.3499984741211
1169.0712215,-60.0699996948242
1169.0868465,-55.0200004577637
1169.1024715,-50.8699989318848
1169.1180965,-48.0900001525879
1169.1337215,-46.5900001525879
1169.1493465,-45.8800010681152
1169.1649715,-45.4700012207031
1169.1805965,-45.1500015258789
1169.1962215,-44.9099998474121
1169.2118465,-44.7900009155273
1169.2274715,-44.7700004577637
1169.2430965,-44.7700004577637
1169.2587215,-44.6399993896484
1169.2743465,-44.2799987792969
1169.2899715,-43.6800003051758
1169.3055965,-42.9599990844727
1169.3212215,-42.3699989318848
1169.3368465,-42.1199989318848
1169.3524715,-42.2999992370605
1169.3680965,-42.9199981689453
1169.3837215,-44.0800018310547
1169.3993465,-45.9599990844727
1169.4149715,-48.6699981689453
1169.4305965,-52.1100006103516
1169.4462215,-55.8600006103516
1169.4618465,-59.3699989318848
1169.4774715,-62.25
1169.4930965,-64.4100036621094
1169.5087215,-66.0
1169.5243465,-67.3099975585938
1169.5399715,-68.6999969482422
1169.5555965,-70.370002746582
1169.5712215,-72.3899993896484
1169.5868465,-74.75
1169.6024715,-77.5500030517578
1169.6180965,-80.9499969482422
1169.6337215,-84.8600006103516
1169.6493465,-88.8099975585938
1169.6649715,-92.0599975585938
1169.6805965,-94.0699996948242
1169.6962215,-94.7699966430664
1169.7118465,-94.4400024414063
1169.7274715,-93.3099975585938
1169.7430965,-91.4100036621094
1169.7587215,-88.7699966430664
1169.7743465,-85.5299987792969
1169.7899715,-81.8899993896484
1169.8055965,-77.8099975585938
1169.8212215,-72.9000015258789
1169.8368465,-66.6999969482422
1169.8524715,-59.0800018310547
1169.8680965,-50.3300018310547
1169.8837215,-40.8899993896484
1169.8993465,-31.1200008392334
1169.9149715,-21.3600006103516
1169.9305965,-12.0699996948242
1169.9462215,-3.80999994277954
1169.9618465,2.96000003814697
1169.9774715,8.25
1169.9930965,12.3599996566772
1170.0087215,15.5900001525879
1170.0243465,18.1200008392334
1170.0399715,20.0900001525879
1170.0555965,21.6700000762939
1170.0712215,23.0300006866455
1170.0868465,24.3400001525879
1170.1024715,25.6700000762939
1170.1180965,27.0400009155273
1170.1337215,28.3999996185303
1170.1493465,29.5499992370605
1170.1649715,30.1200008392334
1170.1805965,29.8199996948242
1170.1962215,28.6100006103516
1170.2118465,26.75
1170.2274715,24.5599994659424
1170.2430965,22.1700000762939
1170.2587215,19.4799995422363
1170.2743465,16.4400005340576
1170.2899715,13.3199996948242
1170.3055965,10.6400003433228
1170.3212215,8.78999996185303
1170.3368465,7.82000017166138
1170.3524715,7.44000005722046
1170.3680965,7.1100001335144
1170.3837215,6.1399998664856
1170.3993465,4.07000017166138
1170.4149715,0.829999983310699
1170.4305965,-3.38000011444092
1170.4462215,-8.4399995803833
1170.4618465,-14.3100004196167
1170.4774715,-20.7299995422363
1170.4930965,-26.9599990844727
1170.5087215,-31.9300003051758
1170.5243465,-35.0099983215332
1170.5399715,-36.7000007629395
1170.5555965,-38.0999984741211
1170.5712215,-39.8699989318848
1170.5868465,-42.0699996948242
1170.6024715,-44.5699996948242
1170.6180965,-47.3600006103516
1170.6337215,-50.3800010681152
1170.6493465,-53.0999984741211
1170.6649715,-54.5
1170.6805965,-53.75
1170.6962215,-50.810001373291
1170.7118465,-46.2999992370605
1170.7274715,-40.8600006103516
1170.7430965,-34.7999992370605
1170.7587215,-28.2700004577637
1170.7743465,-21.4400005340576
1170.7899715,-14.539999961853
1170.8055965,-7.80999994277954
1170.8212215,-1.4099999666214
1170.8368465,4.55000019073486
1170.8524715,10.1000003814697
1170.8680965,15.1400003433228
1170.8837215,19.4500007629395
1170.8993465,22.7900009155273
1170.9149715,25.1800003051758
1170.9305965,27.0100002288818
1170.9462215,28.8999996185303
1170.9618465,31.2900009155273
1170.9774715,34.0699996948242
1170.9930965,36.8699989318848
1171.0087215,39.560001373291
1171.0243465,42.2999992370605
1171.0399715,45.3199996948242
1171.0555965,48.7000007629395
1171.0712215,52.2900009155273
1171.0868465,55.7000007629395
1171.1024715,58.4599990844727
1171.1180965,60.189998626709
1171.1337215,60.8499984741211
1171.1493465,60.5400009155273
1171.1649715,59.3300018310547
1171.1805965,57.2400016784668
1171.1962215,54.4700012207031
1171.2118465,51.6500015258789
1171.2274715,49.7200012207031
1171.2430965,49.3499984741211
1171.2587215,50.3699989318848
1171.2743465,52.060001373291
1171.2899715,53.8800010681152
1171.3055965,55.7299995422363
1171.3212215,57.7700004577637
1171.3368465,60.1100006103516
1171.3524715,62.6599998474121
1171.3680965,65.1600036621094
