Time(s),Value(%)
1456.0066116,12.8999996185303
1456.0222366,24.0900001525879
1456.0378616,32.6399993896484
1456.0534866,37.7200012207031
1456.0691116,40.189998626709
1456.0847366,41.5200004577637
1456.1003616,42.3800010681152
1456.1159866,42.4199981689453
1456.1316116,41.1800003051758
1456.1472366,38.7400016784668
1456.1628616,35.2700004577637
1456.1784866,30.5200004577637
1456.1941116,24.0499992370605
1456.2097366,15.9899997711182
1456.2253616,7.51000022888184
1456.2409866,0.449999988079071
1456.2566116,-3.75
1456.2722366,-5.09999990463257
1456.2878616,-5.05999994277954
1456.3034866,-5.55999994277954
1456.3191116,-7.6100001335144
1456.3347366,-10.9099998474121
1456.3503616,-14.6199998855591
1456.3659866,-18.1800003051758
1456.3816116,-21.3600006103516
1456.3972366,-23.9899997711182
1456.4128616,-25.9599990844727
1456.4284866,-27.4200000762939
1456.4441116,-28.8299999237061
1456.4597366,-30.5200004577637
1456.4753616,-32.1599998474121
1456.4909866,-32.7900009155273
1456.5066116,-31.7199993133545
1456.5222366,-29.4300003051758
1456.5378616,-27.3400001525879
1456.5534866,-26.6100006103516
1456.5691116,-27.2600002288818
1456.5847366,-28.2299995422363
1456.6003616,-28.4099998474121
1456.6159866,-27.4300003051758
1456.6316116,-25.5799999237061
1456.6472366,-23.1000003814697
1456.6628616,-19.3700008392334
1456.6784866,-12.9799995422363
1456.6941116,-2.85999989509583
1456.7097366,10.4899997711182
1456.7253616,24.9300003051758
1456.7409866,37.4700012207031
1456.7566116,45.6800003051758
1456.7722366,48.8699989318848
1456.7878616,48.5
1456.8034866,47.189998626709
1456.8191116,47.0900001525879
1456.8347366,48.7999992370605
1456.8503616,51.3300018310547
1456.8659866,52.7999992370605
1456.8816116,51.2700004577637
1456.8972366,45.439998626709
1456.9128616,35.5499992370605
1456.9284866,23.6700000762939
1456.9441116,12.6499996185303
1456.9597366,4.44999980926514
1456.9753616,-0.699999988079071
1456.9909866,-3.83999991416931
1457.0066116,-6.28000020980835
1457.0222366,-8.90999984741211
1457.0378616,-11.960000038147
1457.0534866,-15.2799997329712
1457.0691116,-18.7299995422363
1457.0847366,-22.3299999237061
1457.1003616,-25.9699993133545
1457.1159866,-29.2999992370605
1457.1316116,-32.0099983215332
1457.1472366,-33.8800010681152
1457.1628616,-34.7799987792969
1457.1784866,-34.7900009155273
1457.1941116,-34.2299995422363
1457.2097366,-33.3800010681152
1457.2253616,-32.4099998474121
1457.2409866,-31.3999996185303
1457.2566116,-30.3600006103516
1457.2722366,-29.2800006866455
1457.2878616,-28.2299995422363
1457.3034866,-27.1299991607666
1457.3191116,-25.6399993896484
1457.3347366,-23.4599990844727
1457.3503616,-20.6100006103516
1457.3659866,-17.0900001525879
1457.3816116,-12.210000038147
1457.3972366,-4.84999990463257
1457.4128616,5.76999998092651
1457.4284866,19.1399993896484
1457.4441116,33.4799995422363
1457.4597366,46.4000015258789
1457.4753616,55.7700004577637
1457.4909866,60.2599983215332
1457.5066116,59.8400001525879
1457.5222366,55.75
1457.5378616,49.8600006103516
1457.5534866,43.8899993896484
1457.5691116,38.8400001525879
1457.5847366,34.7299995422363
1457.6003616,30.7000007629395
1457.6159866,25.4799995422363
1457.6316116,18.6000003814697
1457.6472366,10.9700002670288
1457.6628616,4.25
1457.6784866,-0.529999971389771
1457.6941116,-3.48000001907349
1457.7097366,-5.40999984741211
1457.7253616,-7.28999996185303
1457.7409866,-9.8100004196167
1457.7566116,-13.0799999237061
1457.7722366,-16.5400009155273
1457.7878616,-19.3299999237061
1457.8034866,-20.8899993896484
1457.8191116,-21.5200004577637
1457.8347366,-22.0699996948242
1457.8503616,-23.2999992370605
1457.8659866,-25.4599990844727
1457.8816116,-28.2299995422363
1457.8972366,-30.9300003051758
1457.9128616,-32.9799995422363
1457.9284866,-34.1399993896484
1457.9441116,-34.5099983215332
1457.9597366,-34.2599983215332
1457.9753616,-33.4700012207031
1457.9909866,-32.1399993896484
1458.0066116,-30.3400001525879
1458.0222366,-28.3099994659424
1458.0378616,-26.2800006866455
1458.0534866,-24.3600006103516
1458.0691116,-22.4300003051758
1458.0847366,-20.2399997711182
1458.1003616,-17.4899997711182
1458.1159866,-13.7600002288818
1458.1316116,-8.17000007629395
1458.1472366,0.360000014305115
1458.1628616,12.3100004196167
1458.1784866,26.5699996948242
1458.1941116,40.560001373291
1458.2097366,51.5
1458.2253616,57.8800010681152
1458.2409866,59.9900016784668
1458.2566116,59.2999992370605
1458.2722366,57.5200004577637
1458.2878616,55.8300018310547
1458.3034866,54.4599990844727
1458.3191116,52.6300010681152
1458.3347366,49.0400009155273
1458.3503616,42.7000007629395
1458.3659866,33.6500015258789
1458.3816116,23.0
1458.3972366,12.460000038147
1458.4128616,3.77999997138977
1458.4284866,-1.86000001430511
1458.4441116,-4.40999984741211
1458.4597366,-5.07999992370605
1458.4753616,-5.71999979019165
1458.4909866,-7.80999994277954
1458.5066116,-11.710000038147
1458.5222366,-16.5499992370605
1458.5378616,-20.8199996948242
1458.5534866,-23.3400001525879
1458.5691116,-23.8600006103516
1458.5847366,-23.0799999237061
1458.6003616,-22.0900001525879
1458.6159866,-21.6700000762939
1458.6316116,-21.9099998474121
1458.6472366,-22.4599990844727
1458.6628616,-23.1299991607666
1458.6784866,-24.1000003814697
1458.6941116,-25.4899997711182
1458.7097366,-27.25
1458.7253616,-29.2700004577637
1458.7409866,-31.5799999237061
1458.7566116,-33.9700012207031
1458.7722366,-35.6399993896484
1458.7878616,-35.5800018310547
1458.8034866,-33.2599983215332
1458.8191116,-28.8999996185303
1458.8347366,-23.3299999237061
1458.8503616,-17.8299999237061
1458.8659866,-13.3599996566772
1458.8816116,-9.27999973297119
1458.8972366,-3.26999998092651
1458.9128616,6.80000019073486
1458.9284866,20.8400001525879
1458.9441116,36.2400016784668
1458.9597366,49.2999992370605
1458.9753616,57.2000007629395
1458.9909866,59.3800010681152
1459.0066116,57.560001373291
1459.0222366,54.3300018310547
1459.0378616,51.6199989318848
1459.0534866,50.1500015258789
1459.0691116,49.4799995422363
1459.0847366,48.1699981689453
1459.1003616,44.25
1459.1159866,36.5400009155273
1459.1316116,25.7900009155273
1459.1472366,14.5299997329712
1459.1628616,5.55999994277954
1459.1784866,0.400000005960464
1459.1941116,-1.47000002861023
1459.2097366,-2.02999997138977
1459.2253616,-3.45000004768372
1459.2409866,-6.80000019073486
1459.2566116,-11.7399997711182
1459.2722366,-17.0799999237061
1459.2878616,-21.7800006866455
1459.3034866,-25.3500003814697
1459.3191116,-27.8400001525879
1459.3347366,-29.4699993133545
1459.3503616,-30.2399997711182
1459.3659866,-29.7800006866455
1459.3816116,-27.8199996948242
1459.3972366,-24.8500003814697
1459.4128616,-22.0400009155273
1459.4284866,-20.4599990844727
1459.4441116,-20.1399993896484
1459.4597366,-20.2299995422363
1459.4753616,-19.8899993896484
1459.4909866,-19.2399997711182
1459.5066116,-19.0499992370605
1459.5222366,-19.7800006866455
1459.5378616,-21.0599994659424
1459.5534866,-21.9899997711182
1459.5691116,-21.9599990844727
1459.5847366,-20.9899997711182
1459.6003616,-19.5300006866455
1459.6159866,-17.6599998474121
1459.6316116,-14.6499996185303
1459.6472366,-9.28999996185303
1459.6628616,-0.740000009536743
1459.6784866,10.5799999237061
1459.6941116,22.9200000762939
1459.7097366,33.9500007629395
1459.7253616,41.7900009155273
1459.7409866,45.5699996948242
1459.7566116,45.3699989318848
1459.7722366,42.060001373291
1459.7878616,37.2200012207031
1459.8034866,32.5800018310547
1459.8191116,29.1499996185303
1459.8347366,26.5300006866455
1459.8503616,23.1599998474121
1459.8659866,17.6599998474121
1459.8816116,10.0200004577637
1459.8972366,1.79999995231628
1459.9128616,-4.92000007629395
1459.9284866,-8.96000003814697
1459.9441116,-10.7200002670288
1459.9597366,-11.6800003051758
1459.9753616,-13.2200002670288
1459.9909866,-15.5600004196167
1460.0066116,-17.7900009155273
1460.0222366,-18.9799995422363
1460.0378616,-18.9200000762939
1460.0534866,-17.9599990844727
1460.0691116,-16.6000003814697
1460.0847366,-15.3500003814697
1460.1003616,-14.710000038147
1460.1159866,-15.0
1460.1316116,-15.9700002670288
1460.1472366,-16.8500003814697
1460.1628616,-16.9099998474121
1460.1784866,-16.0699996948242
1460.1941116,-14.6599998474121
1460.2097366,-13.1300001144409
1460.2253616,-11.9399995803833
1460.2409866,-11.460000038147
1460.2566116,-11.7299995422363
1460.2722366,-12.4799995422363
1460.2878616,-13.460000038147
1460.3034866,-14.6599998474121
1460.3191116,-15.7399997711182
1460.3347366,-15.6099996566772
1460.3503616,-12.8000001907349
1460.3659866,-6.3899998664856
1460.3816116,3.41000008583069
1460.3972366,15.4300003051758
1460.4128616,27.8899993896484
1460.4284866,38.7999992370605
1460.4441116,46.4300003051758
1460.4597366,49.8199996948242
1460.4753616,49.1300010681152
1460.4909866,45.4799995422363
1460.5066116,40.439998626709
1460.5222366,35.560001373291
1460.5378616,31.8199996948242
1460.5534866,29.1900005340576
1460.5691116,26.6299991607666
1460.5847366,22.8999996185303
1460.6003616,17.25
1460.6159866,9.86999988555908
1460.6316116,1.95000004768372
1460.6472366,-4.57000017166138
1460.6628616,-8.15999984741211
1460.6784866,-8.63000011444092
1460.6941116,-7.07000017166138
1460.7097366,-5.07999992370605
1460.7253616,-4.17000007629395
1460.7409866,-5.30000019073486
1460.7566116,-8.5
1460.7722366,-12.8999996185303
1460.7878616,-17.1900005340576
1460.8034866,-20.3899993896484
1460.8191116,-22.3799991607666
1460.8347366,-23.75
1460.8503616,-25.1499996185303
1460.8659866,-26.7099990844727
1460.8816116,-27.8999996185303
1460.8972366,-27.9500007629395
1460.9128616,-26.7399997711182
1460.9284866,-25.1499996185303
1460.9441116,-24.3700008392334
1460.9597366,-25.0
1460.9753616,-26.7600002288818
1460.9909866,-28.5599994659424
1461.0066116,-28.9599990844727
1461.0222366,-26.6700000762939
1461.0378616,-21.0
1461.0534866,-11.9799995422363
1461.0691116,-0.360000014305115
1461.0847366,12.460000038147
1461.1003616,24.7999992370605
1461.1159866,35.0699996948242
1461.1316116,42.3699989318848
1461.1472366,46.6300010681152
1461.1628616,48.4300003051758
1461.1784866,48.5400009155273
1461.1941116,47.810001373291
1461.2097366,47.0200004577637
1461.2253616,46.4700012207031
1461.2409866,45.5299987792969
1461.2566116,42.6199989318848
1461.2722366,36.310001373291
1461.2878616,26.6299991607666
1461.3034866,15.5699996948242
1461.3191116,6.13000011444092
1461.3347366,0.509999990463257
1461.3503616,-1.20000004768372
1461.3659866,-0.860000014305115
1461.3816116,-0.850000023841858
1461.3972366,-2.8199999332428
1461.4128616,-7.09000015258789
1461.4284866,-12.8299999237061
1461.4441116,-18.9500007629395
1461.4597366,-24.7999992370605
1461.4753616,-30.2099990844727
1461.4909866,-34.8800010681152
1461.5066116,-38.1699981689453
1461.5222366,-39.5499992370605
1461.5378616,-39.0499992370605
1461.5534866,-37.2599983215332
1461.5691116,-34.8800010681152
1461.5847366,-32.2400016784668
1461.6003616,-29.3500003814697
1461.6159866,-26.3700008392334
1461.6316116,-24.0599994659424
1461.6472366,-23.3099994659424
1461.6628616,-24.4699993133545
1461.6784866,-26.8600006103516
1461.6941116,-28.8999996185303
1461.7097366,-28.6599998474121
1461.7253616,-24.5799999237061
1461.7409866,-15.8699998855591
1461.7566116,-3.02999997138977
1461.7722366,11.9399995803833
1461.7878616,26.2700004577637
1461.8034866,37.5299987792969
1461.8191116,44.5200004577637
1461.8347366,47.1399993896484
1461.8503616,45.8300018310547
1461.8659866,41.5999984741211
1461.8816116,36.310001373291
1461.8972366,32.2299995422363
1461.9128616,30.6399993896484
1461.9284866,30.9099998474121
1461.9441116,30.8500003814697
1461.9597366,28.1299991607666
1461.9753616,21.9699993133545
1461.9909866,13.7299995422363
1462.0066116,5.82999992370605
1462.0222366,0.219999998807907
1462.0378616,-2.53999996185303
1462.0534866,-3.41000008583069
1462.0691116,-4.13000011444092
1462.0847366,-6.15000009536743
1462.1003616,-9.78999996185303
1462.1159866,-14.1700000762939
1462.1316116,-17.9300003051758
1462.1472366,-20.1399993896484
1462.1628616,-20.8400001525879
1462.1784866,-20.9200000762939
1462.1941116,-21.5499992370605
1462.2097366,-23.5599994659424
1462.2253616,-26.9899997711182
1462.2409866,-30.9300003051758
1462.2566116,-33.9900016784668
1462.2722366,-35.1100006103516
1462.2878616,-34.1699981689453
1462.3034866,-31.9899997711182
1462.3191116,-29.8199996948242
1462.3347366,-28.7000007629395
1462.3503616,-28.9699993133545
1462.3659866,-30.0499992370605
1462.3816116,-30.6900005340576
1462.3972366,-29.4200000762939
1462.4128616,-24.8099994659424
1462.4284866,-16.0100002288818
1462.4441116,-3.45000004768372
1462.4597366,10.8400001525879
1462.4753616,24.0
1462.4909866,33.4500007629395
1462.5066116,38.189998626709
1462.5222366,39.1800003051758
1462.5378616,38.6100006103516
1462.5534866,38.5099983215332
1462.5691116,39.6300010681152
1462.5847366,41.5900001525879
1462.6003616,43.4799995422363
1462.6159866,44.1800003051758
1462.6316116,42.4199981689453
1462.6472366,37.0499992370605
1462.6628616,27.7600002288818
1462.6784866,15.7700004577637
1462.6941116,3.78999996185303
1462.7097366,-5.42000007629395
1462.7253616,-10.8299999237061
1462.7409866,-13.4399995803833
1462.7566116,-14.9499998092651
1462.7722366,-16.2299995422363
1462.7878616,-17.0200004577637
1462.8034866,-16.8299999237061
1462.8191116,-16.0699996948242
1462.8347366,-16.0100002288818
1462.8503616,-17.6900005340576
1462.8659866,-21.0499992370605
1462.8816116,-25.2600002288818
1462.8972366,-29.3099994659424
1462.9128616,-32.2099990844727
1462.9284866,-33.1300010681152
1462.9441116,-31.8199996948242
1462.9597366,-28.7999992370605
1462.9753616,-25.3099994659424
1462.9909866,-22.6200008392334
1463.0066116,-21.3500003814697
1463.0222366,-21.3500003814697
1463.0378616,-22.0699996948242
1463.0534866,-23.0900001525879
1463.0691116,-24.0599994659424
1463.0847366,-24.1599998474121
1463.1003616,-21.8999996185303
1463.1159866,-15.6199998855591
1463.1316116,-4.46999979019165
1463.1472366,10.8000001907349
1463.1628616,27.8799991607666
1463.1784866,43.6300010681152
1463.1941116,55.3899993896484
1463.2097366,62.1199989318848
1463.2253616,64.6800003051758
1463.2409866,64.8600006103516
1463.2566116,63.8600006103516
1463.2722366,62.0200004577637
1463.2878616,59.4900016784668
1463.3034866,56.8499984741211
1463.3191116,54.6100006103516
1463.3347366,52.5099983215332
1463.3503616,49.25
1463.3659866,43.4300003051758
1463.3816116,35.0
1463.3972366,25.3500003814697
1463.4128616,16.0400009155273
1463.4284866,7.59000015258789
1463.4441116,-0.270000010728836
1463.4597366,-7.82999992370605
1463.4753616,-14.9499998092651
1463.4909866,-21.2000007629395
1463.5066116,-26.3500003814697
1463.5222366,-30.6299991607666
1463.5378616,-34.310001373291
1463.5534866,-37.3300018310547
1463.5691116,-39.4500007629395
1463.5847366,-40.439998626709
1463.6003616,-40.439998626709
1463.6159866,-39.9700012207031
1463.6316116,-39.5200004577637
1463.6472366,-38.9300003051758
1463.6628616,-37.3600006103516
1463.6784866,-33.9700012207031
1463.6941116,-28.7999992370605
1463.7097366,-23.2000007629395
1463.7253616,-19.1800003051758
1463.7409866,-18.0499992370605
1463.7566116,-19.6900005340576
1463.7722366,-23.0200004577637
1463.7878616,-26.7600002288818
1463.8034866,-29.8500003814697
1463.8191116,-31.3999996185303
1463.8347366,-30.1900005340576
1463.8503616,-24.6599998474121
1463.8659866,-13.9799995422363
1463.8816116,0.660000026226044
1463.8972366,16.2000007629395
1463.9128616,29.3099994659424
1463.9284866,38.2900009155273
1463.9441116,43.3899993896484
1463.9597366,45.7700004577637
1463.9753616,46.5
1463.9909866,46.2700004577637
1464.0066116,45.7099990844727
1464.0222366,45.3300018310547
1464.0378616,45.1199989318848
1464.0534866,44.3499984741211
1464.0691116,41.7799987792969
1464.0847366,36.2099990844727
1464.1003616,27.5200004577637
1464.1159866,17.2199993133545
1464.1316116,7.73000001907349
1464.1472366,1.11000001430511
1464.1628616,-1.94000005722046
1464.1784866,-2.5
1464.1941116,-2.86999988555908
1464.2097366,-5.25
1464.2253616,-10.3100004196167
1464.2409866,-16.9699993133545
1464.2566116,-23.4899997711182
1464.2722366,-28.7800006866455
1464.2878616,-32.8300018310547
1464.3034866,-36.0999984741211
1464.3191116,-38.5999984741211
1464.3347366,-39.7599983215332
1464.3503616,-39.1199989318848
1464.3659866,-36.9099998474121
1464.3816116,-34.0400009155273
1464.3972366,-31.7199993133545
1464.4128616,-30.75
1464.4284866,-30.8899993896484
1464.4441116,-30.8999996185303
1464.4597366,-29.4699993133545
1464.4753616,-26.0699996948242
1464.4909866,-21.2700004577637
1464.5066116,-16.2800006866455
1464.5222366,-12.3000001907349
1464.5378616,-9.85999965667725
1464.5534866,-8.46000003814697
1464.5691116,-6.57999992370605
1464.5847366,-2.29999995231628
1464.6003616,5.67000007629395
1464.6159866,17.1800003051758
1464.6316116,30.4300003051758
1464.6472366,42.689998626709
1464.6628616,51.6800003051758
1464.6784866,56.6599998474121
1464.6941116,58.3800010681152
1464.7097366,58.1100006103516
1464.7253616,56.8300018310547
1464.7409866,54.9300003051758
1464.7566116,52.2599983215332
1464.7722366,48.1500015258789
1464.7878616,41.8400001525879
1464.8034866,33.2400016784668
1464.8191116,23.5
1464.8347366,14.3100004196167
1464.8503616,6.65000009536743
1464.8659866,0.680000007152557
1464.8816116,-3.76999998092651
1464.8972366,-7.13000011444092
1464.9128616,-9.97000026702881
1464.9284866,-12.6599998474121
1464.9441116,-15.2600002288818
1464.9597366,-17.6599998474121
1464.9753616,-19.6700000762939
1464.9909866,-21.2000007629395
1465.0066116,-22.4699993133545
1465.0222366,-23.9699993133545
1465.0378616,-26.1100006103516
1465.0534866,-28.8099994659424
1465.0691116,-31.5100002288818
1465.0847366,-33.3400001525879
1465.1003616,-33.6300010681152
1465.1159866,-32.4000015258789
1465.1316116,-30.4599990844727
1465.1472366,-28.9099998474121
1465.1628616,-28.4300003051758
1465.1784866,-29.0
1465.1941116,-29.9500007629395
1465.2097366,-30.4400005340576
1465.2253616,-29.7700004577637
1465.2409866,-27.3899993896484
1465.2566116,-22.6299991607666
1465.2722366,-14.3900003433228
1465.2878616,-1.92999994754791
1465.3034866,14.1499996185303
1465.3191116,31.7099990844727
1465.3347366,47.6100006103516
1465.3503616,58.810001373291
1465.3659866,63.7700004577637
1465.3816116,63.3800010681152
1465.3972366,60.4500007629395
1465.4128616,57.7900009155273
1465.4284866,56.3800010681152
1465.4441116,55.0
1465.4597366,51.2599983215332
1465.4753616,43.3600006103516
1465.4909866,31.4500007629395
1465.5066116,17.8400001525879
1465.5222366,5.80000019073486
1465.5378616,-2.26999998092651
1465.5534866,-6.07999992370605
1465.5691116,-7.19999980926514
1465.5847366,-7.65999984741211
1465.6003616,-8.64999961853027
1465.6159866,-10.6099996566772
1465.6316116,-13.7600002288818
1465.6472366,-18.1200008392334
1465.6628616,-23.2600002288818
1465.6784866,-28.4200000762939
1465.6941116,-32.8600006103516
1465.7097366,-36.2099990844727
1465.7253616,-38.4000015258789
1465.7409866,-39.3499984741211
1465.7566116,-39.0099983215332
1465.7722366,-37.6100006103516
1465.7878616,-35.8800010681152
1465.8034866,-34.7599983215332
1465.8191116,-34.7599983215332
1465.8347366,-35.3199996948242
1465.8503616,-35.310001373291
1465.8659866,-34.0800018310547
1465.8816116,-31.8500003814697
1465.8972366,-29.1800003051758
1465.9128616,-26.1700000762939
1465.9284866,-22.1900005340576
1465.9441116,-16.1200008392334
1465.9597366,-6.96000003814697
1465.9753616,5.42999982833862
1465.9909866,20.2399997711182
1466.0066116,35.810001373291
1466.0222366,49.8699989318848
1466.0378616,60.1599998474121
1466.0534866,65.5100021362305
1466.0691116,66.2200012207031
1466.0847366,63.5900001525879
1466.1003616,59.1300010681152
1466.1159866,54.1199989318848
1466.1316116,49.4000015258789
1466.1472366,45.1699981689453
1466.1628616,40.7900009155273
1466.1784866,35.1500015258789
1466.1941116,27.5599994659424
1466.2097366,18.3700008392334
1466.2253616,8.88000011444092
1466.2409866,0.879999995231628
1466.2566116,-4.17999982833862
1466.2722366,-6.05999994277954
1466.2878616,-5.92999982833862
1466.3034866,-5.73999977111816
1466.3191116,-7.1399998664856
1466.3347366,-10.7299995422363
