Time(s),Value(%)
1094.0039886,-28.4200000762939
1094.0196136,-24.6599998474121
1094.0352386,-18.8500003814697
1094.0508636,-10.9399995803833
1094.0664886,-0.589999973773956
1094.0821136,12.5299997329712
1094.0977386,28.0499992370605
1094.1133636,44.560001373291
1094.1289886,60.1300010681152
1094.1446136,73.6800003051758
1094.1602386,85.629997253418
1094.1758636,96.9899978637695
1094.1914886,107.709999084473
1094.2071136,116.699996948242
1094.2227386,122.910003662109
1094.2383636,126.199996948242
1094.2539886,127.26000213623
1094.2696136,126.849998474121
1094.2852386,125.169998168945
1094.3008636,122.019996643066
1094.3164886,117.269996643066
1094.3321136,111.199996948242
1094.3477386,104.309997558594
1094.3633636,97.120002746582
1094.3789886,89.9700012207031
1094.3946136,82.7799987792969
1094.4102386,75.0599975585938
1094.4258636,66.1600036621094
1094.4414886,55.6800003051758
1094.4571136,43.7999992370605
1094.4727386,31.2199993133545
1094.4883636,18.8400001525879
1094.5039886,7.32000017166138
1094.5196136,-3.07999992370605
1094.5352386,-12.539999961853
1094.5508636,-21.5200004577637
1094.5664886,-30.6299991607666
1094.5821136,-40.3600006103516
1094.5977386,-50.7900009155273
1094.6133636,-61.7900009155273
1094.6289886,-73.2900009155273
1094.6446136,-85.3199996948242
1094.6602386,-97.629997253418
1094.6758636,-109.529998779297
1094.6914886,-119.940002441406
1094.7071136,-128.130004882813
1094.7227386,-134.320007324219
1094.7383636,-139.270004272461
1094.7539886,-143.529998779297
1094.7696136,-147.089996337891
1094.7852386,-149.740005493164
1094.8008636,-151.380004882813
1094.8164886,-152.119995117188
1094.8321136,-151.880004882813
1094.8477386,-150.009994506836
1094.8633636,-146.350006103516
1094.8789886,-140.830001831055
1094.8946136,-133.830001831055
1094.9102386,-125.860000610352
1094.9258636,-117.319999694824
1094.9414886,-108.589996337891
1094.9571136,-100.029998779297
1094.9727386,-92.0500030517578
1094.9883636,-84.870002746582
1095.0039886,-78.4800033569336
1095.0196136,-72.7399978637695
1095.0352386,-67.6500015258789
1095.0508636,-63.3199996948242
1095.0664886,-59.7799987792969
1095.0821136,-56.8800010681152
1095.0977386,-54.3600006103516
1095.1133636,-51.9900016784668
1095.1289886,-49.7099990844727
1095.1446136,-47.5400009155273
1095.1602386,-45.5499992370605
1095.1758636,-43.8300018310547
1095.1914886,-42.4300003051758
1095.2071136,-41.4099998474121
1095.2227386,-40.7200012207031
1095.2383636,-40.2400016784668
1095.2539886,-39.8600006103516
1095.2696136,-39.6100006103516
1095.2852386,-39.7299995422363
1095.3008636,-40.4199981689453
1095.3164886,-41.5800018310547
1095.3321136,-42.8699989318848
1095.3477386,-43.8899993896484
1095.3633636,-44.439998626709
1095.3789886,-44.5400009155273
1095.3946136,-44.3899993896484
1095.4102386,-44.2799987792969
1095.4258636,-44.4300003051758
1095.4414886,-44.9099998474121
1095.4571136,-45.7299995422363
1095.4727386,-46.9799995422363
1095.4883636,-48.75
1095.5039886,-50.939998626709
1095.5196136,-53.0999984741211
1095.5352386,-54.5
1095.5508636,-54.4000015258789
1095.5664886,-52.4599990844727
1095.5821136,-48.7200012207031
1095.5977386,-43.5400009155273
1095.6133636,-37.3300018310547
1095.6289886,-30.6000003814697
1095.6446136,-23.7999992370605
1095.6602386,-17.2099990844727
1095.6758636,-10.6899995803833
1095.6914886,-3.70000004768372
1095.7071136,4.34000015258789
1095.7227386,13.6000003814697
1095.7383636,23.7399997711182
1095.7539886,34.2700004577637
1095.7696136,44.7200012207031
1095.7852386,54.7200012207031
1095.8008636,63.7299995422363
1095.8164886,70.9300003051758
1095.8321136,75.6999969482422
1095.8477386,77.5400009155273
1095.8633636,77.5999984741211
1095.8789886,76.6800003051758
1095.8946136,75.3899993896484
1095.9102386,74.0199966430664
1095.9258636,72.6900024414063
1095.9414886,71.379997253418
1095.9571136,70.0
1095.9727386,68.3600006103516
1095.9883636,66.3399963378906
1096.0039886,63.9099998474121
1096.0196136,61.1500015258789
1096.0352386,58.0800018310547
1096.0508636,54.7099990844727
1096.0664886,51.1199989318848
1096.0821136,47.5
1096.0977386,44.060001373291
1096.1133636,40.8899993896484
1096.1289886,37.8300018310547
1096.1446136,34.6300010681152
1096.1602386,31.2600002288818
1096.1758636,27.7999992370605
1096.1914886,24.2399997711182
1096.2071136,20.4500007629395
1096.2227386,16.3899993896484
1096.2383636,12.2799997329712
1096.2539886,8.57999992370605
1096.2696136,5.71999979019165
1096.2852386,3.78999996185303
1096.3008636,2.71000003814697
1096.3164886,2.35999989509583
1096.3321136,2.70000004768372
1096.3477386,3.64000010490417
1096.3633636,4.98000001907349
1096.3789886,6.55999994277954
1096.3946136,8.48999977111816
1096.4102386,11.3100004196167
1096.4258636,15.6000003814697
1096.4414886,21.5100002288818
1096.4571136,28.7199993133545
1096.4727386,36.7700004577637
1096.4883636,45.2799987792969
1096.5039886,53.8600006103516
1096.5196136,61.8699989318848
1096.5352386,68.4700012207031
1096.5508636,72.9800033569336
1096.5664886,75.3099975585938
1096.5821136,75.870002746582
1096.5977386,75.1399993896484
1096.6133636,73.4700012207031
1096.6289886,71.1399993896484
1096.6446136,68.4199981689453
1096.6602386,65.5299987792969
1096.6758636,62.439998626709
1096.6914886,58.7900009155273
1096.7071136,54.2200012207031
1096.7227386,48.5499992370605
1096.7383636,41.6699981689453
1096.7539886,33.2900009155273
1096.7696136,23.1299991607666
1096.7852386,11.3800001144409
1096.8008636,-1.0
1096.8164886,-12.8199996948242
1096.8321136,-23.3700008392334
1096.8477386,-32.7700004577637
1096.8633636,-41.8600006103516
1096.8789886,-50.6599998474121
1096.8946136,-58.3699989318848
1096.9102386,-64.25
1096.9258636,-68.1600036621094
1096.9414886,-70.5899963378906
1096.9571136,-72.4499969482422
1096.9727386,-74.7200012207031
1096.9883636,-78.0199966430664
1097.0039886,-82.4199981689453
1097.0196136,-87.6900024414063
1097.0352386,-93.7200012207031
1097.0508636,-100.480003356934
1097.0664886,-107.680000305176
1097.0821136,-114.339996337891
1097.0977386,-118.790000915527
1097.1133636,-119.639999389648
1097.1289886,-116.669998168945
1097.1446136,-110.720001220703
1097.1602386,-102.910003662109
1097.1758636,-94.1100006103516
1097.1914886,-84.879997253418
1097.2071136,-75.6100006103516
1097.2227386,-66.5400009155273
1097.2383636,-57.75
1097.2539886,-49.0800018310547
1097.2696136,-40.3400001525879
1097.2852386,-31.4699993133545
1097.3008636,-22.6000003814697
1097.3164886,-13.9899997711182
1097.3321136,-5.8899998664856
1097.3477386,1.58000004291534
1097.3633636,8.39999961853027
1097.3789886,14.5799999237061
1097.3946136,20.1599998474121
1097.4102386,25.2900009155273
1097.4258636,30.1599998474121
1097.4414886,34.939998626709
1097.4571136,39.689998626709
1097.4727386,44.3600006103516
1097.4883636,48.8600006103516
1097.5039886,53.0900001525879
1097.5196136,57.0
1097.5352386,60.5999984741211
1097.5508636,63.9300003051758
1097.5664886,67.0400009155273
1097.5821136,69.8399963378906
1097.5977386,72.1800003051758
1097.6133636,73.8899993896484
1097.6289886,74.9499969482422
1097.6446136,75.4300003051758
1097.6602386,75.4599990844727
1097.6758636,75.0400009155273
1097.6914886,74.1100006103516
1097.7071136,72.6600036621094
1097.7227386,70.9199981689453
1097.7383636,69.2200012207031
1097.7539886,67.8300018310547
1097.7696136,66.8099975585938
1097.7852386,66.0699996948242
1097.8008636,65.5999984741211
1097.8164886,65.5500030517578
1097.8321136,66.1600036621094
1097.8477386,67.120002746582
1097.8633636,68.8600006103516
1097.8789886,71.5
1097.8946136,75.1800003051758
1097.9102386,79.7399978637695
1097.9258636,84.6699981689453
1097.9414886,89.3399963378906
1097.9571136,93.4300003051758
1097.9727386,97.0999984741211
1097.9883636,100.639999389648
1098.0039886,103.919998168945
1098.0196136,106.419998168945
1098.0352386,107.73999786377
1098.0508636,107.839996337891
1098.0664886,107.069999694824
1098.0821136,105.910003662109
1098.0977386,104.769996643066
1098.1133636,103.849998474121
1098.1289886,103.150001525879
1098.1446136,102.599998474121
1098.1602386,102.169998168945
1098.1758636,101.910003662109
1098.1914886,101.75
1098.2071136,101.339996337891
1098.2227386,100.080001831055
1098.2383636,97.4100036621094
1098.2539886,93.2600021362305
1098.2696136,87.9899978637695
1098.2852386,82.0899963378906
1098.3008636,75.9400024414063
1098.3164886,69.7900009155273
1098.3321136,63.7400016784668
1098.3477386,57.8400001525879
1098.3633636,52.0
1098.3789886,46.060001373291
1098.3946136,39.8499984741211
1098.4102386,33.3499984741211
1098.4258636,26.6000003814697
1098.4414886,19.6499996185303
1098.4571136,12.5200004577637
1098.4727386,5.28000020980835
1098.4883636,-1.82000005245209
1098.5039886,-8.48999977111816
1098.5196136,-14.3500003814697
1098.5352386,-19.1000003814697
1098.5508636,-22.5699996948242
1098.5664886,-24.7800006866455
1098.5821136,-25.9500007629395
1098.5977386,-26.4500007629395
1098.6133636,-26.6800003051758
1098.6289886,-26.8999996185303
1098.6446136,-26.9300003051758
1098.6602386,-26.1900005340576
1098.6758636,-24.0499992370605
1098.6914886,-20.3400001525879
1098.7071136,-15.3500003814697
1098.7227386,-9.52999973297119
1098.7383636,-3.25999999046326
1098.7539886,3.02999997138977
1098.7696136,8.65999984741211
1098.7852386,12.5799999237061
1098.8008636,13.9700002670288
1098.8164886,12.8000001907349
1098.8321136,9.78999996185303
1098.8477386,5.73999977111816
1098.8633636,1.20000004768372
1098.8789886,-3.51999998092651
1098.8946136,-8.28999996185303
1098.9102386,-13.0
1098.9258636,-17.6200008392334
1098.9414886,-22.2199993133545
1098.9571136,-26.8299999237061
1098.9727386,-31.5200004577637
1098.9883636,-36.3400001525879
1099.0039886,-41.4500007629395
1099.0196136,-46.9900016784668
1099.0352386,-52.9500007629395
1099.0508636,-59.1300010681152
1099.0664886,-65.2600021362305
1099.0821136,-71.2200012207031
1099.0977386,-77.0500030517578
1099.1133636,-82.7600021362305
1099.1289886,-88.1600036621094
1099.1446136,-93.0199966430664
1099.1602386,-97.3499984741211
1099.1758636,-101.419998168945
1099.1914886,-105.459999084473
1099.2071136,-109.459999084473
1099.2227386,-113.129997253418
1099.2383636,-116.160003662109
1099.2539886,-118.389999389648
1099.2696136,-119.860000610352
1099.2852386,-120.580001831055
1099.3008636,-120.540000915527
1099.3164886,-119.819999694824
1099.3321136,-118.589996337891
1099.3477386,-117.01000213623
1099.3633636,-114.959999084473
1099.3789886,-111.900001525879
1099.3946136,-107.25
1099.4102386,-100.889999389648
1099.4258636,-93.1999969482422
1099.4414886,-84.7200012207031
1099.4571136,-75.9300003051758
1099.4727386,-67.2600021362305
1099.4883636,-59.2200012207031
1099.5039886,-52.5299987792969
1099.5196136,-47.7700004577637
1099.5352386,-44.9900016784668
1099.5508636,-43.7599983215332
1099.5664886,-43.5299987792969
1099.5821136,-43.8800010681152
1099.5977386,-44.5200004577637
1099.6133636,-45.2400016784668
1099.6289886,-45.9300003051758
1099.6446136,-46.5699996948242
1099.6602386,-47.25
1099.6758636,-48.1100006103516
1099.6914886,-49.1800003051758
1099.7071136,-50.4799995422363
1099.7227386,-52.0200004577637
1099.7383636,-53.8199996948242
1099.7539886,-55.7999992370605
1099.7696136,-57.7900009155273
1099.7852386,-59.5299987792969
1099.8008636,-60.9000015258789
1099.8164886,-62.0800018310547
1099.8321136,-63.2799987792969
1099.8477386,-64.5999984741211
1099.8633636,-65.7799987792969
1099.8789886,-66.6100006103516
1099.8946136,-66.9599990844727
1099.9102386,-66.9100036621094
1099.9258636,-66.7399978637695
1099.9414886,-66.870002746582
1099.9571136,-67.629997253418
1099.9727386,-69.0899963378906
1099.9883636,-71.0199966430664
1100.0039886,-73.1100006103516
1100.0196136,-75.0999984741211
1100.0352386,-76.7900009155273
1100.0508636,-77.8600006103516
1100.0664886,-77.75
1100.0821136,-75.9000015258789
1100.0977386,-72.0599975585938
1100.1133636,-66.4400024414063
1100.1289886,-59.6399993896484
1100.1446136,-52.3499984741211
1100.1602386,-45.1199989318848
1100.1758636,-38.2999992370605
1100.1914886,-31.9500007629395
1100.2071136,-25.9599990844727
1100.2227386,-20.1399993896484
1100.2383636,-14.3299999237061
1100.2539886,-8.5
1100.2696136,-2.75
1100.2852386,2.73000001907349
1100.3008636,7.80000019073486
1100.3164886,12.3800001144409
1100.3321136,16.3700008392334
1100.3477386,19.5900001525879
1100.3633636,21.8400001525879
1100.3789886,23.1100006103516
1100.3946136,23.5900001525879
1100.4102386,23.7099990844727
1100.4258636,23.8700008392334
1100.4414886,24.3099994659424
1100.4571136,25.0499992370605
1100.4727386,25.9599990844727
1100.4883636,26.75
1100.5039886,27.0499992370605
1100.5196136,26.5900001525879
1100.5352386,25.3400001525879
1100.5508636,23.4699993133545
1100.5664886,21.1499996185303
1100.5821136,18.4799995422363
1100.5977386,15.6300001144409
1100.6133636,12.9300003051758
1100.6289886,10.8699998855591
1100.6446136,9.75
1100.6602386,9.47000026702881
1100.6758636,9.60999965667725
1100.6914886,9.89000034332275
1100.7071136,10.2700004577637
1100.7227386,10.8699998855591
1100.7383636,11.7399997711182
1100.7539886,12.9099998474121
1100.7696136,14.5500001907349
1100.7852386,17.1399993896484
1100.8008636,21.1100006103516
1100.8164886,26.5599994659424
1100.8321136,33.2400016784668
1100.8477386,40.9799995422363
1100.8633636,49.5099983215332
1100.8789886,58.5200004577637
1100.8946136,67.4300003051758
1100.9102386,75.5299987792969
1100.9258636,82.3300018310547
1100.9414886,87.9199981689453
1100.9571136,92.6600036621094
1100.9727386,96.6900024414063
1100.9883636,99.8199996948242
1101.0039886,101.889999389648
1101.0196136,102.959999084473
1101.0352386,103.309997558594
1101.0508636,103.089996337891
1101.0664886,102.220001220703
1101.0821136,100.430000305176
1101.0977386,97.6500015258789
1101.1133636,94.0
1101.1289886,89.6800003051758
1101.1446136,84.9000015258789
1101.1602386,79.8499984741211
1101.1758636,74.7799987792969
1101.1914886,69.9199981689453
1101.2071136,65.3199996948242
1101.2227386,60.7700004577637
1101.2383636,56.0699996948242
1101.2539886,51.25
1101.2696136,46.5999984741211
1101.2852386,42.4300003051758
1101.3008636,38.8499984741211
1101.3164886,35.7700004577637
1101.3321136,32.9700012207031
1101.3477386,30.2700004577637
1101.3633636,27.5300006866455
1101.3789886,24.7399997711182
1101.3946136,21.9799995422363
1101.4102386,19.3199996948242
1101.4258636,16.8400001525879
1101.4414886,14.5500001907349
1101.4571136,12.5100002288818
1101.4727386,10.8299999237061
1101.4883636,9.59000015258789
1101.5039886,8.85000038146973
1101.5196136,8.67000007629395
1101.5352386,9.27999973297119
1101.5508636,11.0100002288818
1101.5664886,14.0500001907349
1101.5821136,18.3799991607666
1101.5977386,23.7199993133545
1101.6133636,29.6399993896484
1101.6289886,35.6599998474121
1101.6446136,41.3699989318848
1101.6602386,46.4599990844727
1101.6758636,50.689998626709
1101.6914886,53.8899993896484
1101.7071136,55.9900016784668
1101.7227386,57.1300010681152
1101.7383636,57.6100006103516
1101.7539886,57.7200012207031
1101.7696136,57.5800018310547
1101.7852386,56.9599990844727
1101.8008636,55.5900001525879
1101.8164886,53.3600006103516
1101.8321136,50.4199981689453
1101.8477386,47.2700004577637
1101.8633636,43.939998626709
1101.8789886,40.6399993896484
1101.8946136,37.439998626709
1101.9102386,34.2999992370605
1101.9258636,31.0900001525879
1101.9414886,27.5400009155273
1101.9571136,23.5
1101.9727386,19.0200004577637
1101.9883636,14.3999996185303
1102.0039886,9.9399995803833
1102.0196136,5.84999990463257
1102.0352386,2.13000011444092
1102.0508636,-1.37999999523163
1102.0664886,-5.01999998092651
1102.0821136,-9.05000019073486
1102.0977386,-13.5500001907349
1102.1133636,-18.5100002288818
1102.1289886,-23.9500007629395
1102.1446136,-29.9500007629395
1102.1602386,-36.3499984741211
1102.1758636,-42.6800003051758
1102.1914886,-48.1500015258789
1102.2071136,-52.1300010681152
1102.2227386,-54.5
1102.2383636,-55.5400009155273
1102.2539886,-55.5699996948242
1102.2696136,-54.7999992370605
1102.2852386,-53.3800010681152
1102.3008636,-51.5400009155273
1102.3164886,-49.4700012207031
1102.3321136,-47.0699996948242
1102.3477386,-43.9000015258789
1102.3633636,-39.4500007629395
1102.3789886,-33.6100006103516
1102.3946136,-26.8299999237061
1102.4102386,-19.7999992370605
1102.4258636,-13.1400003433228
1102.4414886,-7.21000003814697
1102.4571136,-2.16000008583069
1102.4727386,1.87000000476837
1102.4883636,4.82000017166138
1102.5039886,6.76999998092651
1102.5196136,7.98000001907349
1102.5352386,8.69999980926514
1102.5508636,9.11999988555908
1102.5664886,9.34000015258789
1102.5821136,9.34000015258789
1102.5977386,8.9399995803833
1102.6133636,7.92999982833862
1102.6289886,6.21000003814697
1102.6446136,3.89000010490417
1102.6602386,1.27999997138977
1102.6758636,-1.33000004291534
1102.6914886,-3.90000009536743
1102.7071136,-6.57999992370605
1102.7227386,-9.47000026702881
1102.7383636,-12.5200004577637
1102.7539886,-15.4899997711182
1102.7696136,-18.2299995422363
1102.7852386,-20.8700008392334
1102.8008636,-23.5699996948242
1102.8164886,-26.3299999237061
1102.8321136,-28.8899993896484
1102.8477386,-31.25
1102.8633636,-33.0699996948242
1102.8789886,-34.4700012207031
1102.8946136,-35.7299995422363
1102.9102386,-37.2400016784668
1102.9258636,-39.2999992370605
1102.9414886,-41.9199981689453
1102.9571136,-44.8199996948242
1102.9727386,-47.5
1102.9883636,-49.560001373291
1103.0039886,-50.7999992370605
1103.0196136,-51.0800018310547
1103.0352386,-50.1100006103516
1103.0508636,-47.4300003051758
1103.0664886,-42.689998626709
1103.0821136,-36.0099983215332
1103.0977386,-28.0799999237061
1103.1133636,-19.9200000762939
1103.1289886,-12.3900003433228
1103.1446136,-5.8600001335144
1103.1602386,-0.239999994635582
1103.1758636,4.82000017166138
1103.1914886,9.78999996185303
1103.2071136,14.960000038147
1103.2227386,20.3700008392334
1103.2383636,25.8400001525879
1103.2539886,31.1499996185303
1103.2696136,36.1100006103516
1103.2852386,40.5900001525879
1103.3008636,44.2999992370605
1103.3164886,46.6800003051758
1103.3321136,47.2299995422363
1103.3477386,45.8899993896484
1103.3633636,43.1599998474121
1103.3789886,39.7799987792969
1103.3946136,36.3699989318848
1103.4102386,33.310001373291
1103.4258636,30.6399993896484
1103.4414886,28.2299995422363
1103.4571136,25.7600002288818
1103.4727386,22.8600006103516
1103.4883636,19.25
1103.5039886,14.9200000762939
1103.5196136,10.0299997329712
1103.5352386,4.71999979019165
1103.5508636,-0.910000026226044
1103.5664886,-6.71999979019165
1103.5821136,-12.3699998855591
1103.5977386,-17.3799991607666
1103.6133636,-21.4200000762939
1103.6289886,-24.5699996948242
1103.6446136,-27.1399993896484
1103.6602386,-29.3400001525879
1103.6758636,-31.0900001525879
1103.6914886,-32.2099990844727
1103.7071136,-32.6100006103516
1103.7227386,-32.3600006103516
1103.7383636,-31.6000003814697
1103.7539886,-30.3700008392334
1103.7696136,-28.4200000762939
1103.7852386,-25.3799991607666
1103.8008636,-21.0200004577637
1103.8164886,-15.6000003814697
1103.8321136,-9.76000022888184
1103.8477386,-4.19000005722046
1103.8633636,0.75
1103.8789886,5.0
1103.8946136,8.72999954223633
1103.9102386,12.1999998092651
1103.9258636,15.5900001525879
1103.9414886,18.9799995422363
1103.9571136,22.2900009155273
1103.9727386,25.3799991607666
1103.9883636,28.1599998474121
1104.0039886,30.5100002288818
1104.0196136,32.2400016784668
1104.0352386,32.9000015258789
1104.0508636,32.060001373291
1104.0664886,29.6499996185303
1104.0821136,26.0499992370605
1104.0977386,21.9200000762939
1104.1133636,17.8899993896484
1104.1289886,14.3000001907349
1104.1446136,11.2299995422363
1104.1602386,8.52000045776367
1104.1758636,5.84999990463257
1104.1914886,2.89000010490417
1104.2071136,-0.579999983310699
1104.2227386,-4.63000011444092
1104.2383636,-9.17000007629395
1104.2539886,-14.2600002288818
1104.2696136,-19.9699993133545
1104.2852386,-26.1900005340576
1104.3008636,-32.5099983215332
1104.3164886,-38.2900009155273
1104.3321136,-43.1100006103516
1104.3477386,-47.0499992370605
1104.3633636,-50.439998626709
1104.3789886,-53.3899993896484
1104.3946136,-55.7400016784668
1104.4102386,-57.2999992370605
