Time(s),Value(%)
638.0066418,12.3000001907349
638.0222668,4.90999984741211
638.0378918,-1.96000003814697
638.0535168,-7.44000005722046
638.0691418,-11.3800001144409
638.0847668,-14.5299997329712
638.1003918,-17.8999996185303
638.1160168,-21.9500007629395
638.1316418,-26.4200000762939
638.1472668,-30.8199996948242
638.1628918,-34.7799987792969
638.1785168,-37.8499984741211
638.1941418,-39.3800010681152
638.2097668,-39.0900001525879
638.2253918,-37.310001373291
638.2410168,-34.8199996948242
638.2566418,-32.189998626709
638.2722668,-29.3099994659424
638.2878918,-25.3500003814697
638.3035168,-19.0100002288818
638.3191418,-9.23999977111816
638.3347668,3.67000007629395
638.3503918,17.9200000762939
638.3660168,30.8799991607666
638.3816418,40.5200004577637
638.3972668,46.1500015258789
638.4128918,48.1300010681152
638.4285168,47.0200004577637
638.4441418,43.4300003051758
638.4597668,38.0900001525879
638.4753918,31.5900001525879
638.4910168,24.1700000762939
638.5066418,16.0100002288818
638.5222668,7.73000001907349
638.5378918,0.25
638.5535168,-5.75
638.5691418,-10.2299995422363
638.5847668,-13.4300003051758
638.6003918,-15.5200004577637
638.6160168,-16.6299991607666
638.6316418,-17.1900005340576
638.6472668,-17.9200000762939
638.6628918,-19.3400001525879
638.6785168,-21.5599994659424
638.6941418,-24.4599990844727
638.7097668,-27.7399997711182
638.7253918,-30.9899997711182
638.7410168,-33.7799987792969
638.7566418,-35.8800010681152
638.7722668,-37.560001373291
638.7878918,-39.4700012207031
638.8035168,-41.7200012207031
638.8191418,-43.0
638.8347668,-40.8300018310547
638.8503918,-33.1399993896484
638.8660168,-19.7399997711182
638.8816418,-2.6800000667572
638.8972668,14.789999961853
638.9128918,29.7199993133545
638.9285168,40.3199996948242
638.9441418,46.3300018310547
638.9597668,48.5099983215332
638.9753918,47.9799995422363
638.9910168,45.689998626709
639.0066418,42.3600006103516
639.0222668,38.2799987792969
639.0378918,33.2599983215332
639.0535168,27.0100002288818
639.0691418,19.4599990844727
639.0847668,10.8999996185303
639.1003918,2.05999994277954
639.1160168,-5.96000003814697
639.1316418,-12.0
639.1472668,-15.4200000762939
639.1628918,-16.4599990844727
639.1785168,-16.2299995422363
639.1941418,-16.1800003051758
639.2097668,-17.3500003814697
639.2253918,-19.9699993133545
639.2410168,-23.4799995422363
639.2566418,-27.0599994659424
639.2722668,-30.1499996185303
639.2878918,-32.7299995422363
639.3035168,-35.2200012207031
639.3191418,-37.9000015258789
639.3347668,-40.4700012207031
639.3503918,-42.2099990844727
639.3660168,-42.310001373291
639.3816418,-39.7599983215332
639.3972668,-33.25
639.4128918,-21.7999992370605
639.4285168,-5.86999988555908
639.4441418,12.2799997329712
639.4597668,29.6000003814697
639.4753918,43.5800018310547
639.4910168,52.939998626709
639.5066418,57.4300003051758
639.5222668,57.3400001525879
639.5378918,53.3400001525879
639.5535168,46.2999992370605
639.5691418,37.2299995422363
639.5847668,27.2099990844727
639.6003918,17.2299995422363
639.6160168,7.78000020980835
639.6316418,-1.13999998569489
639.6472668,-9.64999961853027
639.6628918,-17.5400009155273
639.6785168,-24.4200000762939
639.6941418,-30.0699996948242
639.7097668,-34.4599990844727
639.7253918,-37.4099998474121
639.7410168,-38.6300010681152
639.7566418,-38.2200012207031
639.7722668,-37.0099983215332
639.7878918,-36.2799987792969
639.8035168,-37.0900001525879
639.8191418,-39.7700004577637
639.8347668,-43.810001373291
639.8503918,-48.2999992370605
639.8660168,-52.439998626709
639.8816418,-55.4300003051758
639.8972668,-56.1500015258789
639.9128918,-52.8800010681152
639.9285168,-43.7999992370605
639.9441418,-28.2199993133545
639.9597668,-7.92000007629395
639.9753918,13.1899995803833
639.9910168,31.0599994659424
640.0066418,43.4900016784668
640.0222668,50.560001373291
640.0378918,53.7400016784668
640.0535168,54.6100006103516
640.0691418,54.1300010681152
640.0847668,52.2000007629395
640.1003918,47.8499984741211
640.1160168,40.2099990844727
640.1316418,29.5599994659424
640.1472668,17.6000003814697
640.1628918,6.6100001335144
640.1785168,-1.78999996185303
640.1941418,-7.40999984741211
640.2097668,-11.2600002288818
640.2253918,-14.8000001907349
640.2410168,-19.1200008392334
640.2566418,-24.5400009155273
640.2722668,-30.7800006866455
640.2878918,-37.5200004577637
640.3035168,-44.5900001525879
640.3191418,-51.6599998474121
640.3347668,-58.0800018310547
640.3503918,-63.1199989318848
640.3660168,-66.4300003051758
640.3816418,-68.2699966430664
640.3972668,-69.0100021362305
640.4128918,-68.2600021362305
640.4285168,-64.25
640.4441418,-54.5499992370605
640.4597668,-38.0099983215332
640.4753918,-15.9700002670288
640.4910168,8.32999992370605
640.5066418,31.5799999237061
640.5222668,51.5200004577637
640.5378918,67.0199966430664
640.5535168,77.5299987792969
640.5691418,82.9499969482422
640.5847668,83.6900024414063
640.6003918,80.1999969482422
640.6160168,72.6699981689453
640.6316418,61.3899993896484
640.6472668,47.4300003051758
640.6628918,32.6199989318848
640.6785168,18.7000007629395
640.6941418,6.42999982833862
640.7097668,-4.26999998092651
640.7253918,-13.5699996948242
640.7410168,-21.1700000762939
640.7566418,-26.7600002288818
640.7722668,-30.6000003814697
640.7878918,-33.8600006103516
640.8035168,-37.9300003051758
640.8191418,-43.4000015258789
640.8347668,-49.810001373291
640.8503918,-56.2900009155273
640.8660168,-62.0900001525879
640.8816418,-66.7300033569336
640.8972668,-70.0699996948242
640.9128918,-72.0699996948242
640.9285168,-72.0199966430664
640.9441418,-67.7200012207031
640.9597668,-56.1800003051758
640.9753918,-35.560001373291
640.9910168,-6.94000005722046
641.0066418,25.6499996185303
641.0222668,57.0099983215332
641.0378918,82.6500015258789
641.0535168,99.9800033569336
641.0691418,108.470001220703
641.0847668,109.25
641.1003918,104.5
641.1160168,96.6100006103516
641.1316418,87.0299987792969
641.1472668,75.620002746582
641.1628918,61.5900001525879
641.1785168,44.939998626709
641.1941418,27.0599994659424
641.2097668,9.97999954223633
641.2253918,-4.67999982833862
641.2410168,-16.2999992370605
641.2566418,-25.0699996948242
641.2722668,-31.5599994659424
641.2878918,-36.4000015258789
641.3035168,-40.2099990844727
641.3191418,-43.7999992370605
641.3347668,-48.0499992370605
641.3503918,-53.5299987792969
641.3660168,-60.2999992370605
641.3816418,-68.0199966430664
641.3972668,-76.0500030517578
641.4128918,-83.5699996948242
641.4285168,-89.6500015258789
641.4441418,-92.9700012207031
641.4597668,-91.3000030517578
641.4753918,-81.75
641.4910168,-62.3699989318848
641.5066418,-33.8600006103516
641.5222668,0.0299999993294477
641.5378918,34.0900001525879
641.5535168,63.6599998474121
641.5691418,85.879997253418
641.5847668,99.9300003051758
641.6003918,106.819999694824
641.6160168,108.459999084473
641.6316418,106.379997253418
641.6472668,101.150001525879
641.6628918,92.3000030517578
641.6785168,78.8399963378906
641.6941418,60.3800010681152
641.7097668,38.2599983215332
641.7253918,15.3599996566772
641.7410168,-5.46000003814697
641.7566418,-22.5599994659424
641.7722668,-35.5299987792969
641.7878918,-44.810001373291
641.8035168,-51.2700004577637
641.8191418,-55.7999992370605
641.8347668,-59.1699981689453
641.8503918,-62.1300010681152
641.8660168,-65.2799987792969
641.8816418,-69.0199966430664
641.8972668,-73.5500030517578
641.9128918,-78.8199996948242
641.9285168,-84.2399978637695
641.9441418,-88.6900024414063
641.9597668,-90.8600006103516
641.9753918,-89.2600021362305
641.9910168,-81.8600006103516
642.0066418,-66.5500030517578
642.0222668,-42.5099983215332
642.0378918,-11.6000003814697
642.0535168,21.7700004577637
642.0691418,52.3800010681152
642.0847668,76.3300018310547
642.1003918,92.4199981689453
642.1160168,101.809997558594
642.1316418,106.589996337891
642.1472668,108.120002746582
642.1628918,106.529998779297
642.1785168,101.180000305176
642.1941418,91.4100036621094
642.2097668,77.0100021362305
642.2253918,58.7999992370605
642.2410168,38.6500015258789
642.2566418,18.8700008392334
642.2722668,1.52999997138977
642.2878918,-12.1899995803833
642.3035168,-22.2999992370605
642.3191418,-29.6900005340576
642.3347668,-35.6100006103516
642.3503918,-41.0499992370605
642.3660168,-46.4099998474121
642.3816418,-51.6199989318848
642.3972668,-56.6800003051758
642.4128918,-61.7400016784668
642.4285168,-66.870002746582
642.4441418,-71.7399978637695
642.4597668,-75.5800018310547
642.4753918,-77.5699996948242
642.4910168,-77.2200012207031
642.5066418,-74.0199966430664
642.5222668,-66.3600006103516
642.5378918,-51.310001373291
642.5535168,-26.7000007629395
642.5691418,6.32999992370605
642.5847668,42.939998626709
642.6003918,76.7900009155273
642.6160168,102.790000915527
642.6316418,118.839996337891
642.6472668,125.970001220703
642.6628918,127.019996643066
642.6785168,124.73999786377
642.6941418,120.389999389648
642.7097668,113.589996337891
642.7253918,103.230003356934
642.7410168,88.6500015258789
642.7566418,70.3199996948242
642.7722668,49.9900016784668
642.7878918,30.2199993133545
642.8035168,13.4899997711182
642.8191418,1.13999998569489
642.8347668,-7.19999980926514
642.8503918,-13.4799995422363
642.8660168,-20.2299995422363
642.8816418,-29.2199993133545
642.8972668,-40.4300003051758
642.9128918,-51.9700012207031
642.9285168,-61.1300010681152
642.9441418,-65.8099975585938
642.9597668,-65.4100036621094
642.9753918,-61.1300010681152
642.9910168,-55.4799995422363
643.0066418,-51.0499992370605
643.0222668,-49.0499992370605
643.0378918,-48.3600006103516
643.0535168,-45.5699996948242
643.0691418,-36.5200004577637
643.0847668,-18.4300003051758
643.1003918,8.30000019073486
643.1160168,40.0099983215332
643.1316418,71.2300033569336
643.1472668,97.1600036621094
643.1628918,115.230003356934
643.1785168,125.25
643.1941418,128.600006103516
643.2097668,127.050003051758
643.2253918,121.930000305176
643.2410168,113.699996948242
643.2566418,102.0
643.2722668,86.2399978637695
643.2878918,66.4899978637695
643.3035168,44.3499984741211
643.3191418,22.6700000762939
643.3347668,4.25
643.3503918,-9.39000034332275
643.3660168,-18.4500007629395
643.3816418,-24.1299991607666
643.3972668,-28.1000003814697
643.4128918,-32.0400009155273
643.4285168,-37.1300010681152
643.4441418,-43.560001373291
643.4597668,-50.560001373291
643.4753918,-57.060001373291
643.4910168,-62.4000015258789
643.5066418,-66.5
643.5222668,-69.5899963378906
643.5378918,-71.9100036621094
643.5535168,-73.3300018310547
643.5691418,-72.9000015258789
643.5847668,-68.6100006103516
643.6003918,-57.8600006103516
643.6160168,-38.9199981689453
643.6316418,-12.5600004196167
643.6472668,17.4200000762939
643.6628918,45.810001373291
643.6785168,68.3499984741211
643.6941418,83.5999984741211
643.7097668,92.6999969482422
643.7253918,97.9499969482422
643.7410168,101.449996948242
643.7566418,104.26000213623
643.7722668,105.900001525879
643.7878918,104.5
643.8035168,98.0100021362305
643.8191418,85.4800033569336
643.8347668,67.6999969482422
643.8503918,47.0499992370605
643.8660168,26.5
643.8816418,8.5
643.8972668,-5.76000022888184
643.9128918,-16.3600006103516
643.9285168,-24.2700004577637
643.9441418,-30.7299995422363
643.9597668,-36.6399993896484
643.9753918,-42.4199981689453
643.9910168,-48.1399993896484
644.0066418,-53.810001373291
644.0222668,-59.4700012207031
644.0378918,-64.9400024414063
644.0535168,-69.629997253418
644.0691418,-72.8000030517578
644.0847668,-74.2099990844727
644.1003918,-74.1999969482422
644.1160168,-72.9300003051758
644.1316418,-69.4300003051758
644.1472668,-61.5499992370605
644.1628918,-47.25
644.1785168,-26.5
644.1941418,-1.87000000476837
644.2097668,22.7999992370605
644.2253918,44.060001373291
644.2410168,59.7900009155273
644.2566418,69.4700012207031
644.2722668,74.0
644.2878918,74.8600006103516
644.3035168,73.1900024414063
644.3191418,69.3199996948242
644.3347668,62.9000015258789
644.3503918,53.4199981689453
644.3660168,40.9700012207031
644.3816418,26.4599990844727
644.3972668,11.3599996566772
644.4128918,-2.75
644.4285168,-14.4399995803833
644.4441418,-22.8700008392334
644.4597668,-28.4300003051758
644.4753918,-32.5699996948242
644.4910168,-36.8400001525879
644.5066418,-41.9300003051758
644.5222668,-47.3300018310547
644.5378918,-51.9900016784668
644.5535168,-55.2599983215332
644.5691418,-57.2599983215332
644.5847668,-58.5
644.6003918,-59.5200004577637
644.6160168,-60.6100006103516
644.6316418,-61.5
644.6472668,-61.1199989318848
644.6628918,-57.8400001525879
644.6785168,-49.8300018310547
644.6941418,-35.9599990844727
644.7097668,-16.7600002288818
644.7253918,5.03999996185303
644.7410168,25.6299991607666
644.7566418,41.8800010681152
644.7722668,52.7099990844727
644.7878918,58.9700012207031
644.8035168,62.3899993896484
644.8191418,64.0400009155273
644.8347668,63.9300003051758
644.8503918,61.439998626709
644.8660168,56.0200004577637
644.8816418,47.310001373291
644.8972668,35.4799995422363
644.9128918,21.5799999237061
644.9285168,7.44000005722046
644.9441418,-5.15999984741211
644.9597668,-15.2399997711182
644.9753918,-22.8400001525879
644.9910168,-28.5100002288818
645.0066418,-32.6199989318848
645.0222668,-35.1199989318848
645.0378918,-36.2099990844727
645.0535168,-36.7000007629395
645.0691418,-37.5999984741211
645.0847668,-39.3600006103516
645.1003918,-41.6199989318848
645.1160168,-43.7599983215332
645.1316418,-45.3899993896484
645.1472668,-46.4500007629395
645.1628918,-46.8600006103516
645.1785168,-46.2000007629395
645.1941418,-43.2400016784668
645.2097668,-36.0900001525879
645.2253918,-23.5900001525879
645.2410168,-6.67000007629395
645.2566418,11.7399997711182
645.2722668,28.3299999237061
645.2878918,40.9599990844727
645.3035168,49.3400001525879
645.3191418,54.6800003051758
645.3347668,58.439998626709
645.3503918,61.1500015258789
645.3660168,62.060001373291
645.3816418,59.7400016784668
645.3972668,53.0900001525879
645.4128918,42.2000007629395
645.4285168,28.4300003051758
645.4441418,13.7299995422363
645.4597668,0.0399999991059303
645.4753918,-11.1300001144409
645.4910168,-18.8600006103516
645.5066418,-22.9400005340576
645.5222668,-24.0400009155273
645.5378918,-23.7299995422363
645.5535168,-24.0200004577637
645.5691418,-26.3799991607666
645.5847668,-30.9300003051758
645.6003918,-36.4599990844727
645.6160168,-41.1699981689453
645.6316418,-43.689998626709
645.6472668,-43.8600006103516
645.6628918,-42.6399993896484
645.6785168,-41.2400016784668
645.6941418,-40.1500015258789
645.7097668,-39.0699996948242
645.7253918,-37.0800018310547
645.7410168,-32.6800003051758
645.7566418,-24.3700008392334
645.7722668,-11.710000038147
645.7878918,4.13000011444092
645.8035168,20.8500003814697
645.8191418,35.5800018310547
645.8347668,45.8400001525879
645.8503918,50.75
645.8660168,51.4900016784668
645.8816418,50.2900009155273
645.8972668,48.9199981689453
645.9128918,47.9000015258789
645.9285168,46.5400009155273
645.9441418,43.1599998474121
645.9597668,36.0200004577637
645.9753918,24.8199996948242
645.9910168,11.3100004196167
646.0066418,-1.74000000953674
646.0222668,-12.1899995803833
646.0378918,-19.2299995422363
646.0535168,-23.2099990844727
646.0691418,-25.0599994659424
646.0847668,-25.8199996948242
646.1003918,-26.4799995422363
646.1160168,-27.9300003051758
646.1316418,-30.6299991607666
646.1472668,-34.4799995422363
646.1628918,-39.1399993896484
646.1785168,-44.2700004577637
646.1941418,-49.3400001525879
646.2097668,-53.4000015258789
646.2253918,-55.4599990844727
646.2410168,-54.7999992370605
646.2566418,-50.9599990844727
646.2722668,-43.3800010681152
646.2878918,-31.4300003051758
646.3035168,-15.1199998855591
646.3191418,4.07000017166138
646.3347668,23.3700008392334
646.3503918,39.6800003051758
646.3660168,50.9300003051758
646.3816418,56.5800018310547
646.3972668,57.25
646.4128918,54.3300018310547
646.4285168,49.6699981689453
646.4441418,44.9300003051758
646.4597668,40.8600006103516
646.4753918,36.9900016784668
646.4910168,31.9799995422363
646.5066418,24.5699996948242
646.5222668,14.7299995422363
646.5378918,3.92000007629395
646.5535168,-5.86999988555908
646.5691418,-13.3800001144409
646.5847668,-18.3400001525879
646.6003918,-21.2999992370605
646.6160168,-23.3799991607666
646.6316418,-25.7999992370605
646.6472668,-29.2199993133545
646.6628918,-33.4599990844727
646.6785168,-37.8800010681152
646.6941418,-42.0299987792969
646.7097668,-45.8199996948242
646.7253918,-49.1500015258789
646.7410168,-51.6300010681152
646.7566418,-53.0400009155273
646.7722668,-53.7200012207031
646.7878918,-53.7900009155273
646.8035168,-51.9300003051758
646.8191418,-45.4500007629395
646.8347668,-32.2999992370605
646.8503918,-13.0699996948242
646.8660168,8.77000045776367
646.8816418,28.7800006866455
646.8972668,43.7700004577637
646.9128918,53.0800018310547
646.9285168,57.8699989318848
646.9441418,59.7099990844727
646.9597668,59.7700004577637
646.9753918,58.689998626709
646.9910168,56.4700012207031
647.0066418,52.4700012207031
647.0222668,45.7000007629395
647.0378918,35.5
647.0535168,22.4099998474121
647.0691418,8.15999984741211
647.0847668,-5.07999992370605
647.1003918,-15.6999998092651
647.1160168,-23.0799999237061
647.1316418,-27.3799991607666
647.1472668,-29.1599998474121
647.1628918,-29.4200000762939
647.1785168,-29.6800003051758
647.1941418,-31.5499992370605
647.2097668,-35.8400001525879
647.2253918,-42.25
647.2410168,-49.6800003051758
647.2566418,-56.5900001525879
647.2722668,-61.4700012207031
647.2878918,-63.4300003051758
647.3035168,-62.2700004577637
647.3191418,-57.9599990844727
647.3347668,-50.0
647.3503918,-37.4000015258789
647.3660168,-19.6299991607666
647.3816418,2.0699999332428
647.3972668,24.6299991607666
647.4128918,44.2400016784668
647.4285168,58.0900001525879
647.4441418,65.3399963378906
647.4597668,67.0100021362305
647.4753918,64.9300003051758
647.4910168,61.0
647.5066418,56.7999992370605
647.5222668,53.1199989318848
647.5378918,49.2400016784668
647.5535168,43.3199996948242
647.5691418,33.7700004577637
647.5847668,20.7199993133545
647.6003918,6.19000005722046
647.6160168,-7.13000011444092
647.6316418,-17.5300006866455
647.6472668,-24.7800006866455
647.6628918,-29.6000003814697
647.6785168,-32.8400001525879
647.6941418,-35.0699996948242
647.7097668,-36.7900009155273
647.7253918,-38.6599998474121
647.7410168,-41.3300018310547
647.7566418,-44.9700012207031
647.7722668,-49.1399993896484
647.7878918,-53.2000007629395
647.8035168,-56.7200012207031
647.8191418,-59.6800003051758
647.8347668,-62.0499992370605
647.8503918,-62.939998626709
647.8660168,-59.9199981689453
647.8816418,-49.8899993896484
647.8972668,-31.4599990844727
647.9128918,-6.42999982833862
647.9285168,20.7199993133545
647.9441418,45.0200004577637
647.9597668,63.0299987792969
647.9753918,73.7900009155273
647.9910168,78.370002746582
648.0066418,78.6600036621094
648.0222668,76.3300018310547
648.0378918,71.9599990844727
648.0535168,65.2099990844727
648.0691418,55.6100006103516
648.0847668,43.2099990844727
648.1003918,28.7700004577637
648.1160168,13.710000038147
648.1316418,-0.0399999991059303
648.1472668,-10.8100004196167
648.1628918,-17.9099998474121
648.1785168,-22.0699996948242
648.1941418,-25.0400009155273
648.2097668,-28.75
648.2253918,-34.2299995422363
648.2410168,-40.9599990844727
648.2566418,-47.5699996948242
648.2722668,-53.0999984741211
648.2878918,-57.5499992370605
648.3035168,-61.439998626709
648.3191418,-65.129997253418
648.3347668,-68.5
648.3503918,-70.5500030517578
648.3660168,-69.1100006103516
648.3816418,-61.25
648.3972668,-44.5699996948242
648.4128918,-19.0100002288818
648.4285168,12.2299995422363
648.4441418,43.6100006103516
648.4597668,69.4300003051758
648.4753918,86.0599975585938
648.4910168,93.0699996948242
648.5066418,92.8000030517578
648.5222668,88.7699966430664
648.5378918,83.75
648.5535168,78.6900024414063
648.5691418,72.5899963378906
648.5847668,63.6100006103516
648.6003918,50.689998626709
648.6160168,34.5200004577637
648.6316418,17.3099994659424
648.6472668,1.63999998569489
648.6628918,-10.6199998855591
648.6785168,-19.1900005340576
648.6941418,-25.1100006103516
648.7097668,-29.7800006866455
648.7253918,-34.0999984741211
648.7410168,-38.3499984741211
648.7566418,-42.7700004577637
