Time(s),Value(%)
638.0066418,-57.8699989318848
638.0222668,-56.8800010681152
638.0378918,-55.7700004577637
638.0535168,-54.5
638.0691418,-53.1199989318848
638.0847668,-51.7000007629395
638.1003918,-50.3400001525879
638.1160168,-49.0900001525879
638.1316418,-48.0
638.1472668,-47.060001373291
638.1628918,-46.2299995422363
638.1785168,-45.4300003051758
638.1941418,-44.5900001525879
638.2097668,-43.7000007629395
638.2253918,-42.8199996948242
638.2410168,-42.0299987792969
638.2566418,-41.3400001525879
638.2722668,-40.689998626709
638.2878918,-40.0099983215332
638.3035168,-39.2299995422363
638.3191418,-38.0999984741211
638.3347668,-36.9300003051758
638.3503918,-35.7700004577637
638.3660168,-34.6300010681152
638.3816418,-33.5299987792969
638.3972668,-32.4700012207031
638.4128918,-31.4599990844727
638.4285168,-30.5100002288818
638.4441418,-29.6100006103516
638.4597668,-28.7099990844727
638.4753918,-27.6900005340576
638.4910168,-26.4599990844727
638.5066418,-24.9500007629395
638.5222668,-23.1900005340576
638.5378918,-21.2399997711182
638.5535168,-19.2000007629395
638.5691418,-17.1700000762939
638.5847668,-15.210000038147
638.6003918,-13.3699998855591
638.6160168,-11.6800003051758
638.6316418,-10.2200002670288
638.6472668,-9.06999969482422
638.6628918,-8.23999977111816
638.6785168,-7.67999982833862
638.6941418,-7.38000011444092
638.7097668,-7.34000015258789
638.7253918,-7.5
638.7410168,-7.76000022888184
638.7566418,-7.94000005722046
638.7722668,-7.94999980926514
638.7878918,-7.78000020980835
638.8035168,-7.48999977111816
638.8191418,-7.07999992370605
638.8347668,-6.5
638.8503918,-5.69000005722046
638.8660168,-4.71000003814697
638.8816418,-3.64000010490417
638.8972668,-2.5699999332428
638.9128918,-1.5900000333786
638.9285168,-0.75
638.9441418,-0.0399999991059303
638.9597668,0.579999983310699
638.9753918,1.16999995708466
638.9910168,1.75
639.0066418,2.34999990463257
639.0222668,3.0
639.0378918,3.78999996185303
639.0535168,4.76999998092651
639.0691418,5.92000007629395
639.0847668,7.15000009536743
639.1003918,8.36999988555908
639.1160168,9.5
639.1316418,10.539999961853
639.1472668,11.5100002288818
639.1628918,12.4300003051758
639.1785168,13.3199996948242
639.1941418,14.1899995803833
639.2097668,15.0100002288818
639.2253918,15.789999961853
639.2410168,16.5
639.2566418,17.1000003814697
639.2722668,17.5699996948242
639.2878918,17.9200000762939
639.3035168,18.2000007629395
639.3191418,18.6100006103516
639.3347668,19.0599994659424
639.3503918,19.5200004577637
639.3660168,19.9300003051758
639.3816418,20.2700004577637
639.3972668,20.5699996948242
639.4128918,20.8999996185303
639.4285168,21.2600002288818
639.4441418,21.6599998474121
639.4597668,22.0699996948242
639.4753918,22.4500007629395
639.4910168,22.7700004577637
639.5066418,23.0499992370605
639.5222668,23.2900009155273
639.5378918,23.5200004577637
639.5535168,23.7800006866455
639.5691418,24.0599994659424
639.5847668,24.3999996185303
639.6003918,24.8299999237061
639.6160168,25.4099998474121
639.6316418,26.1599998474121
639.6472668,27.0400009155273
639.6628918,27.9699993133545
639.6785168,28.8500003814697
639.6941418,29.6000003814697
639.7097668,30.2199993133545
639.7253918,30.7199993133545
639.7410168,31.1100006103516
639.7566418,31.3400001525879
639.7722668,31.3700008392334
639.7878918,31.2000007629395
639.8035168,30.8199996948242
639.8191418,30.2600002288818
639.8347668,29.5100002288818
639.8503918,28.6100006103516
639.8660168,27.6399993896484
639.8816418,26.7000007629395
639.8972668,25.8600006103516
639.9128918,25.0799999237061
639.9285168,24.3099994659424
639.9441418,23.5499992370605
639.9597668,22.8500003814697
639.9753918,22.2700004577637
639.9910168,21.8199996948242
640.0066418,21.4500007629395
640.0222668,21.1200008392334
640.0378918,20.7600002288818
640.0535168,20.3500003814697
640.0691418,19.8799991607666
640.0847668,19.4200000762939
640.1003918,19.0300006866455
640.1160168,18.7800006866455
640.1316418,18.6800003051758
640.1472668,18.7199993133545
640.1628918,18.9099998474121
640.1785168,19.25
640.1941418,19.7000007629395
640.2097668,20.1599998474121
640.2253918,20.5100002288818
640.2410168,20.6299991607666
640.2566418,20.4699993133545
640.2722668,20.0400009155273
640.2878918,19.4300003051758
640.3035168,18.7399997711182
640.3191418,18.2700004577637
640.3347668,17.8700008392334
640.3503918,17.5799999237061
640.3660168,17.4300003051758
640.3816418,17.4300003051758
640.3972668,17.5599994659424
640.4128918,17.7800006866455
640.4285168,18.0200004577637
640.4441418,18.2399997711182
640.4597668,18.3899993896484
640.4753918,18.5100002288818
640.4910168,18.6200008392334
640.5066418,18.7600002288818
640.5222668,19.0
640.5378918,19.5100002288818
640.5535168,20.4099998474121
640.5691418,21.7000007629395
640.5847668,23.2000007629395
640.6003918,24.6900005340576
640.6160168,26.2199993133545
640.6316418,28.2099990844727
640.6472668,31.1599998474121
640.6628918,35.0699996948242
640.6785168,39.4300003051758
640.6941418,43.5900001525879
640.7097668,47.0800018310547
640.7253918,49.9500007629395
640.7410168,53.1599998474121
640.7566418,58.5400009155273
640.7722668,67.7399978637695
640.7878918,81.0500030517578
640.8035168,97.3899993896484
640.8191418,115.190002441406
640.8347668,133.149993896484
640.8503918,150.179992675781
640.8660168,164.729995727539
640.8816418,174.410003662109
640.8972668,177.169998168945
640.9128918,172.690002441406
640.9285168,162.529998779297
640.9441418,149.020004272461
640.9597668,134.169998168945
640.9753918,119.339996337891
640.9910168,105.150001525879
641.0066418,91.620002746582
641.0222668,77.9800033569336
641.0378918,62.7599983215332
641.0535168,44.6800003051758
641.0691418,23.4699993133545
641.0847668,-0.219999998807907
641.1003918,-25.7399997711182
641.1160168,-52.560001373291
641.1316418,-79.9100036621094
641.1472668,-106.199996948242
641.1628918,-129.139999389648
641.1785168,-146.960006713867
641.1941418,-159.559997558594
641.2097668,-168.050003051758
641.2253918,-173.5
641.2410168,-176.429992675781
641.2566418,-177.199996948242
641.2722668,-176.309997558594
641.2878918,-174.440002441406
641.3035168,-172.050003051758
641.3191418,-169.729995727539
641.3347668,-166.770004272461
641.3503918,-163.080001831055
641.3660168,-158.889999389648
641.3816418,-154.759994506836
641.3972668,-151.25
641.4128918,-148.580001831055
641.4285168,-146.529998779297
641.4441418,-144.610000610352
641.4597668,-142.360000610352
641.4753918,-139.550003051758
641.4910168,-136.139999389648
641.5066418,-132.059997558594
641.5222668,-127.269996643066
641.5378918,-121.839996337891
641.5535168,-115.98999786377
641.5691418,-110.019996643066
641.5847668,-104.199996948242
641.6003918,-98.6800003051758
641.6160168,-93.5100021362305
641.6316418,-88.6100006103516
641.6472668,-83.870002746582
641.6628918,-79.1600036621094
641.6785168,-74.370002746582
641.6941418,-69.5100021362305
641.7097668,-64.5999984741211
641.7253918,-59.6500015258789
641.7410168,-54.6599998474121
641.7566418,-49.6800003051758
641.7722668,-44.7999992370605
641.7878918,-40.1300010681152
641.8035168,-35.75
641.8191418,-31.6800003051758
641.8347668,-27.8799991607666
641.8503918,-24.2600002288818
641.8660168,-20.8299999237061
641.8816418,-17.7000007629395
641.8972668,-14.9799995422363
641.9128918,-12.710000038147
641.9285168,-10.8500003814697
641.9441418,-9.31999969482422
641.9597668,-8.07999992370605
641.9753918,-7.01999998092651
641.9910168,-5.98000001907349
642.0066418,-4.73999977111816
642.0222668,-3.15000009536743
642.0378918,-1.26999998092651
642.0535168,0.730000019073486
642.0691418,2.73000001907349
642.0847668,4.73000001907349
642.1003918,6.75
642.1160168,8.82999992370605
642.1316418,10.9399995803833
642.1472668,13.0799999237061
642.1628918,15.2399997711182
642.1785168,17.4599990844727
642.1941418,19.7299995422363
642.2097668,21.9799995422363
642.2253918,24.0900001525879
642.2410168,25.9599990844727
642.2566418,27.5599994659424
642.2722668,28.9500007629395
642.2878918,30.2600002288818
642.3035168,31.5799999237061
642.3191418,32.6800003051758
642.3347668,33.7400016784668
642.3503918,34.75
642.3660168,35.7000007629395
642.3816418,36.560001373291
642.3972668,37.2799987792969
642.4128918,37.8400001525879
642.4285168,38.2700004577637
642.4441418,38.6599998474121
642.4597668,39.0699996948242
642.4753918,39.4900016784668
642.4910168,39.8499984741211
642.5066418,40.1399993896484
642.5222668,40.4000015258789
642.5378918,40.7099990844727
642.5535168,41.0699996948242
642.5691418,41.4500007629395
642.5847668,41.7700004577637
642.6003918,41.8899993896484
642.6160168,41.7299995422363
642.6316418,41.2799987792969
642.6472668,40.6100006103516
642.6628918,39.8300018310547
642.6785168,39.0299987792969
642.6941418,38.2799987792969
642.7097668,37.6500015258789
642.7253918,37.310001373291
642.7410168,37.3499984741211
642.7566418,37.7799987792969
642.7722668,38.4700012207031
642.7878918,39.2400016784668
642.8035168,39.9500007629395
642.8191418,40.5400009155273
642.8347668,41.0
642.8503918,41.3499984741211
642.8660168,41.5699996948242
642.8816418,41.5900001525879
642.8972668,41.3199996948242
642.9128918,40.75
642.9285168,39.9199981689453
642.9441418,38.8899993896484
642.9597668,37.7000007629395
642.9753918,36.4199981689453
642.9910168,35.1599998474121
643.0066418,34.0699996948242
643.0222668,33.2799987792969
643.0378918,32.7999992370605
643.0535168,32.5499992370605
643.0691418,32.439998626709
643.0847668,32.4199981689453
643.1003918,32.4500007629395
643.1160168,32.4900016784668
643.1316418,32.5
643.1472668,32.4000015258789
643.1628918,32.060001373291
643.1785168,31.3999996185303
643.1941418,30.4099998474121
643.2097668,29.2199993133545
643.2253918,27.9899997711182
643.2410168,26.8899993896484
643.2566418,25.9799995422363
643.2722668,25.2999992370605
643.2878918,24.8999996185303
643.3035168,24.8400001525879
643.3191418,24.9699993133545
643.3347668,25.4300003051758
643.3503918,26.0599994659424
643.3660168,26.6399993896484
643.3816418,27.0499992370605
643.3972668,27.2399997711182
643.4128918,27.25
643.4285168,27.2199993133545
643.4441418,27.3099994659424
643.4597668,27.6599998474121
643.4753918,28.3500003814697
643.4910168,29.7399997711182
643.5066418,32.5499992370605
643.5222668,37.439998626709
643.5378918,44.4000015258789
643.5535168,52.5699996948242
643.5691418,60.9300003051758
643.5847668,69.6999969482422
643.6003918,80.8199996948242
643.6160168,96.2799987792969
643.6316418,115.910003662109
643.6472668,137.229995727539
643.6628918,157.199996948242
643.6785168,173.860000610352
643.6941418,186.889999389648
643.7097668,197.089996337891
643.7253918,205.600006103516
643.7410168,213.259994506836
643.7566418,220.410003662109
643.7722668,227.059997558594
643.7878918,233.149993896484
643.8035168,238.630004882813
643.8191418,243.220001220703
643.8347668,245.610000610352
643.8503918,243.229995727539
643.8660168,233.289993286133
643.8816418,214.529998779297
643.8972668,188.039993286133
643.9128918,156.75
643.9285168,124.129997253418
643.9441418,92.879997253418
643.9597668,64.3399963378906
643.9753918,38.5999984741211
643.9910168,15.1899995803833
644.0066418,-6.23999977111816
644.0222668,-25.8299999237061
644.0378918,-43.6500015258789
644.0535168,-59.9500007629395
644.0691418,-75.0800018310547
644.0847668,-89.4100036621094
644.1003918,-103.069999694824
644.1160168,-115.76000213623
644.1316418,-126.709999084473
644.1472668,-135.149993896484
644.1628918,-140.809997558594
644.1785168,-144.100006103516
644.1941418,-145.860000610352
644.2097668,-146.919998168945
644.2253918,-147.850006103516
644.2410168,-148.899993896484
644.2566418,-149.990005493164
644.2722668,-150.699996948242
644.2878918,-150.410003662109
644.3035168,-148.610000610352
644.3191418,-143.850006103516
644.3347668,-137.660003662109
644.3503918,-129.899993896484
644.3660168,-120.400001525879
644.3816418,-109.430000305176
644.3972668,-98.0299987792969
644.4128918,-87.5599975585938
644.4285168,-78.7200012207031
644.4441418,-70.879997253418
644.4597668,-62.9300003051758
644.4753918,-54.4900016784668
644.4910168,-45.7900009155273
644.5066418,-36.7200012207031
644.5222668,-26.7399997711182
644.5378918,-15.6300001144409
644.5535168,-4.23000001907349
644.5691418,5.76000022888184
644.5847668,13.1800003051758
644.6003918,18.4400005340576
644.6160168,22.7900009155273
644.6316418,26.7900009155273
644.6472668,29.9099998474121
644.6628918,31.3999996185303
644.6785168,31.0499992370605
644.6941418,29.3199996948242
644.7097668,27.1599998474121
644.7253918,25.5799999237061
644.7410168,25.2700004577637
644.7566418,26.3600006103516
644.7722668,28.7700004577637
644.7878918,32.7200012207031
644.8035168,38.4700012207031
644.8191418,45.7200012207031
644.8347668,53.0200004577637
644.8503918,58.1100006103516
644.8660168,59.5
644.8816418,57.810001373291
644.8972668,54.9700012207031
644.9128918,52.3499984741211
644.9285168,49.9799995422363
644.9441418,47.1800003051758
644.9597668,43.4099998474121
644.9753918,38.7599983215332
644.9910168,34.0499992370605
645.0066418,30.7000007629395
645.0222668,29.8999996185303
645.0378918,31.9599990844727
645.0535168,36.6100006103516
645.0691418,43.6800003051758
645.0847668,53.0900001525879
645.1003918,64.1800003051758
645.1160168,74.9100036621094
645.1316418,82.1100006103516
645.1472668,83.4300003051758
645.1628918,79.0999984741211
645.1785168,71.25
645.1941418,61.8400001525879
645.2097668,51.6599998474121
645.2253918,40.7700004577637
645.2410168,29.1700000762939
645.2566418,17.1599998474121
645.2722668,5.19999980926514
645.2878918,-6.26000022888184
645.3035168,-16.9799995422363
645.3191418,-26.6900005340576
645.3347668,-35.3400001525879
645.3503918,-42.6100006103516
645.3660168,-48.2099990844727
645.3816418,-52.25
645.3972668,-55.6500015258789
645.4128918,-59.7999992370605
645.4285168,-65.5500030517578
645.4441418,-72.3000030517578
645.4597668,-78.629997253418
645.4753918,-83.6500015258789
645.4910168,-87.4899978637695
645.5066418,-90.879997253418
645.5222668,-94.4700012207031
645.5378918,-98.4000015258789
645.5535168,-102.190002441406
645.5691418,-104.870002746582
645.5847668,-105.569999694824
645.6003918,-104.129997253418
645.6160168,-101.129997253418
645.6316418,-97.5100021362305
645.6472668,-94.0699996948242
645.6628918,-91.2600021362305
645.6785168,-89.2399978637695
645.6941418,-88.0699996948242
645.7097668,-87.7600021362305
645.7253918,-88.1100006103516
645.7410168,-88.4599990844727
645.7566418,-87.7399978637695
645.7722668,-85.0400009155273
645.7878918,-80.3099975585938
645.8035168,-74.8399963378906
645.8191418,-70.8899993896484
645.8347668,-70.1600036621094
645.8503918,-72.629997253418
645.8660168,-77.0
645.8816418,-81.9400024414063
645.8972668,-86.5199966430664
645.9128918,-89.8399963378906
645.9285168,-91.0800018310547
645.9441418,-90.0800018310547
645.9597668,-87.6999969482422
645.9753918,-85.3600006103516
645.9910168,-83.8499984741211
646.0066418,-82.4800033569336
646.0222668,-80.0100021362305
646.0378918,-76.2399978637695
646.0535168,-72.1900024414063
646.0691418,-69.1600036621094
646.0847668,-67.7699966430664
646.1003918,-67.7600021362305
646.1160168,-68.1800003051758
646.1316418,-67.8600006103516
646.1472668,-65.9700012207031
646.1628918,-62.3300018310547
646.1785168,-57.1199989318848
646.1941418,-50.4199981689453
646.2097668,-42.2099990844727
646.2253918,-32.9000015258789
646.2410168,-23.9799995422363
646.2566418,-17.9200000762939
646.2722668,-16.75
646.2878918,-20.5400009155273
646.3035168,-27.7199993133545
646.3191418,-36.1599998474121
646.3347668,-44.9300003051758
646.3503918,-53.5499992370605
646.3660168,-61.8400001525879
646.3816418,-69.7300033569336
646.3972668,-77.3399963378906
646.4128918,-84.9800033569336
646.4285168,-92.9700012207031
646.4441418,-101.349998474121
646.4597668,-109.830001831055
646.4753918,-117.930000305176
646.4910168,-125.300003051758
646.5066418,-131.740005493164
646.5222668,-137.270004272461
646.5378918,-142.009994506836
646.5535168,-146.190002441406
646.5691418,-150.139999389648
646.5847668,-154.080001831055
646.6003918,-158.029998779297
646.6160168,-161.779998779297
646.6316418,-165.070007324219
646.6472668,-167.690002441406
646.6628918,-169.679992675781
646.6785168,-171.600006103516
646.6941418,-174.539993286133
646.7097668,-179.490005493164
646.7253918,-186.669998168945
646.7410168,-195.710006713867
646.7566418,-206.199996948242
646.7722668,-217.850006103516
646.7878918,-230.100006103516
646.8035168,-241.580001831055
646.8191418,-250.380004882813
646.8347668,-255.169998168945
646.8503918,-256.209991455078
646.8660168,-254.770004272461
646.8816418,-251.869995117188
646.8972668,-247.929992675781
646.9128918,-243.339996337891
646.9285168,-238.660003662109
646.9441418,-234.25
646.9597668,-229.839996337891
646.9753918,-224.520004272461
646.9910168,-217.5
647.0066418,-208.779998779297
647.0222668,-198.949996948242
647.0378918,-188.429992675781
647.0535168,-177.25
647.0691418,-165.339996337891
647.0847668,-152.770004272461
647.1003918,-139.830001831055
647.1160168,-126.730003356934
647.1316418,-113.540000915527
647.1472668,-100.169998168945
647.1628918,-86.5999984741211
647.1785168,-73.0299987792969
647.1941418,-59.8600006103516
647.2097668,-47.4700012207031
647.2253918,-35.9599990844727
647.2410168,-25.1100006103516
647.2566418,-14.4499998092651
647.2722668,-3.72000002861023
647.2878918,6.96000003814697
647.3035168,17.2299995422363
647.3191418,26.7600002288818
647.3347668,35.7599983215332
647.3503918,44.5400009155273
647.3660168,53.2599983215332
647.3816418,61.9300003051758
647.3972668,70.3399963378906
647.4128918,78.1699981689453
647.4285168,85.1600036621094
647.4441418,91.25
647.4597668,96.4000015258789
647.4753918,100.470001220703
647.4910168,103.319999694824
647.5066418,105.080001831055
647.5222668,106.379997253418
647.5378918,108.160003662109
647.5535168,111.01000213623
647.5691418,114.730003356934
647.5847668,118.660003662109
647.6003918,122.440002441406
647.6160168,126.220001220703
647.6316418,130.309997558594
647.6472668,134.850006103516
647.6628918,139.710006713867
647.6785168,144.550003051758
647.6941418,149.0
647.7097668,152.809997558594
647.7253918,155.910003662109
647.7410168,158.25
647.7566418,159.649993896484
647.7722668,159.919998168945
647.7878918,159.160003662109
647.8035168,158.009994506836
647.8191418,157.5
647.8347668,158.330001831055
647.8503918,160.320007324219
647.8660168,162.720001220703
647.8816418,165.039993286133
647.8972668,167.289993286133
647.9128918,169.720001220703
647.9285168,172.479995727539
647.9441418,175.460006713867
647.9597668,178.320007324219
647.9753918,180.580001831055
647.9910168,181.889999389648
648.0066418,182.139999389648
648.0222668,181.360000610352
648.0378918,179.460006713867
648.0535168,176.339996337891
648.0691418,172.190002441406
648.0847668,167.770004272461
648.1003918,164.289993286133
648.1160168,162.610000610352
648.1316418,162.610000610352
648.1472668,163.479995727539
648.1628918,164.610000610352
648.1785168,165.880004882813
648.1941418,167.440002441406
648.2097668,169.339996337891
648.2253918,171.460006713867
648.2410168,173.580001831055
648.2566418,175.539993286133
648.2722668,177.25
648.2878918,178.690002441406
648.3035168,179.759994506836
648.3191418,179.479995727539
648.3347668,178.460006713867
648.3503918,176.720001220703
648.3660168,174.639999389648
648.3816418,172.869995117188
648.3972668,171.910003662109
648.4128918,171.669998168945
648.4285168,171.740005493164
648.4441418,171.729995727539
648.4597668,171.570007324219
648.4753918,171.320007324219
648.4910168,171.059997558594
648.5066418,170.740005493164
648.5222668,170.25
648.5378918,169.339996337891
648.5535168,167.860000610352
648.5691418,165.770004272461
648.5847668,163.110000610352
648.6003918,159.899993896484
648.6160168,156.160003662109
648.6316418,151.990005493164
648.6472668,147.729995727539
648.6628918,143.919998168945
648.6785168,140.979995727539
648.6941418,138.910003662109
648.7097668,137.399993896484
648.7253918,136.110000610352
648.7410168,134.830001831055
648.7566418,133.449996948242
648.7722668,131.899993896484
648.7878918,130.139999389648
648.8035168,128.220001220703
648.8191418,126.25
