Time(s),Value(%)
1525.0066864,-33.689998626709
1525.0223114,-32.5099983215332
1525.0379364,-30.0900001525879
1525.0535614,-26.0900001525879
1525.0691864,-19.9500007629395
1525.0848114,-10.8000001907349
1525.1004364,1.97000002861023
1525.1160614,17.6900005340576
1525.1316864,33.939998626709
1525.1473114,47.6199989318848
1525.1629364,56.4900016784668
1525.1785614,59.9099998474121
1525.1941864,58.5800018310547
1525.2098114,54.1100006103516
1525.2254364,48.5
1525.2410614,43.3899993896484
1525.2566864,39.3199996948242
1525.2723114,35.7099990844727
1525.2879364,31.4699993133545
1525.3035614,25.5499992370605
1525.3191864,17.5200004577637
1525.3348114,8.06999969482422
1525.3504364,-1.1599999666214
1525.3660614,-8.25
1525.3816864,-11.960000038147
1525.3973114,-12.6899995803833
1525.4129364,-12.5299997329712
1525.4285614,-13.9099998474121
1525.4441864,-18.0
1525.4598114,-23.9699993133545
1525.4754364,-29.5699996948242
1525.4910614,-32.6500015258789
1525.5066864,-32.7900009155273
1525.5223114,-31.4500007629395
1525.5379364,-30.5
1525.5535614,-30.8199996948242
1525.5691864,-32.1300010681152
1525.5848114,-33.6800003051758
1525.6004364,-34.689998626709
1525.6160614,-34.5
1525.6316864,-32.6199989318848
1525.6473114,-29.1000003814697
1525.6629364,-24.3500003814697
1525.6785614,-18.5100002288818
1525.6941864,-11.0500001907349
1525.7098114,-1.24000000953674
1525.7254364,11.289999961853
1525.7410614,26.0
1525.7566864,41.1599998474121
1525.7723114,54.439998626709
1525.7879364,63.8499984741211
1525.8035614,68.6999969482422
1525.8191864,69.6999969482422
1525.8348114,68.379997253418
1525.8504364,66.2099990844727
1525.8660614,63.7799987792969
1525.8816864,60.5800018310547
1525.8973114,55.4199981689453
1525.9129364,47.1399993896484
1525.9285614,35.2299995422363
1525.9441864,20.1599998474121
1525.9598114,3.60999989509583
1525.9754364,-11.8900003433228
1525.9910614,-24.0599994659424
1526.0066864,-31.8799991607666
1526.0223114,-35.6599998474121
1526.0379364,-36.3899993896484
1526.0535614,-35.25
1526.0691864,-33.3800010681152
1526.0848114,-31.6599998474121
1526.1004364,-30.5100002288818
1526.1160614,-30.1200008392334
1526.1316864,-30.6000003814697
1526.1473114,-31.9099998474121
1526.1629364,-33.7400016784668
1526.1785614,-35.5900001525879
1526.1941864,-37.1399993896484
1526.2098114,-38.3499984741211
1526.2254364,-39.3499984741211
1526.2410614,-40.3499984741211
1526.2566864,-41.7000007629395
1526.2723114,-43.4000015258789
1526.2879364,-44.7099990844727
1526.3035614,-44.1500015258789
1526.3191864,-40.060001373291
1526.3348114,-31.1399993896484
1526.3504364,-17.0900001525879
1526.3660614,1.0900000333786
1526.3816864,21.1700000762939
1526.3973114,40.1800003051758
1526.4129364,55.0800018310547
1526.4285614,63.4500007629395
1526.4441864,64.2900009155273
1526.4598114,58.7599983215332
1526.4754364,50.0699996948242
1526.4910614,41.9799995422363
1526.5066864,36.6699981689453
1526.5223114,33.7200012207031
1526.5379364,30.6499996185303
1526.5535614,24.8700008392334
1526.5691864,15.6899995803833
1526.5848114,4.73000001907349
1526.6004364,-5.5
1526.6160614,-13.3699998855591
1526.6316864,-18.75
1526.6473114,-22.6900005340576
1526.6629364,-26.2999992370605
1526.6785614,-30.0
1526.6941864,-33.5299987792969
1526.7098114,-36.25
1526.7254364,-37.3600006103516
1526.7410614,-36.0299987792969
1526.7566864,-32.0800018310547
1526.7723114,-26.75
1526.7879364,-22.4300003051758
1526.8035614,-21.0900001525879
1526.8191864,-22.9099998474121
1526.8348114,-26.3099994659424
1526.8504364,-29.4099998474121
1526.8660614,-31.3299999237061
1526.8816864,-32.0800018310547
1526.8973114,-31.75
1526.9129364,-30.2700004577637
1526.9285614,-27.75
1526.9441864,-24.5200004577637
1526.9598114,-20.6000003814697
1526.9754364,-15.3100004196167
1526.9910614,-7.34000015258789
1527.0066864,4.51000022888184
1527.0223114,20.0100002288818
1527.0379364,36.9799995422363
1527.0535614,52.0
1527.0691864,61.9599990844727
1527.0848114,65.2900009155273
1527.1004364,62.6199989318848
1527.1160614,56.4799995422363
1527.1316864,50.0200004577637
1527.1473114,45.3400001525879
1527.1629364,42.6100006103516
1527.1785614,40.439998626709
1527.1941864,37.1300010681152
1527.2098114,31.9400005340576
1527.2254364,25.3799991607666
1527.2410614,18.3999996185303
1527.2566864,11.460000038147
1527.2723114,4.53999996185303
1527.2879364,-2.32999992370605
1527.3035614,-8.93000030517578
1527.3191864,-14.8800001144409
1527.3348114,-19.9599990844727
1527.3504364,-24.3999996185303
1527.3660614,-28.9799995422363
1527.3816864,-34.310001373291
1527.3973114,-39.9500007629395
1527.4129364,-44.4199981689453
1527.4285614,-46.1300010681152
1527.4441864,-44.2900009155273
1527.4598114,-39.2599983215332
1527.4754364,-32.4700012207031
1527.4910614,-25.8299999237061
1527.5066864,-20.8500003814697
1527.5223114,-17.75
1527.5379364,-15.6800003051758
1527.5535614,-13.75
1527.5691864,-11.5799999237061
1527.5848114,-8.97999954223633
1527.6004364,-5.1399998664856
1527.6160614,1.35000002384186
1527.6316864,11.539999961853
1527.6473114,24.8700008392334
1527.6629364,38.9799995422363
1527.6785614,50.5200004577637
1527.6941864,56.7400016784668
1527.7098114,56.7900009155273
1527.7254364,52.1199989318848
1527.7410614,45.3899993896484
1527.7566864,38.7999992370605
1527.7723114,33.1800003051758
1527.7879364,28.0499992370605
1527.8035614,22.3600006103516
1527.8191864,15.3599996566772
1527.8348114,7.40000009536743
1527.8504364,-0.300000011920929
1527.8660614,-6.55999994277954
1527.8816864,-10.75
1527.8973114,-12.7200002670288
1527.9129364,-12.4700002670288
1527.9285614,-10.1599998474121
1527.9441864,-6.65000009536743
1527.9598114,-3.63000011444092
1527.9754364,-2.97000002861023
1527.9910614,-5.59999990463257
1528.0066864,-10.9099998474121
1528.0223114,-16.9599990844727
1528.0379364,-21.7700004577637
1528.0535614,-24.7000007629395
1528.0691864,-26.4300003051758
1528.0848114,-27.9300003051758
1528.1004364,-29.7199993133545
1528.1160614,-31.8799991607666
1528.1316864,-34.3499984741211
1528.1473114,-36.9500007629395
1528.1629364,-39.2099990844727
1528.1785614,-40.4000015258789
1528.1941864,-39.5099983215332
1528.2098114,-35.2400016784668
1528.2254364,-26.2999992370605
1528.2410614,-12.3299999237061
1528.2566864,5.11999988555908
1528.2723114,22.7900009155273
1528.2879364,37.1599998474121
1528.3035614,46.3199996948242
1528.3191864,50.3800010681152
1528.3348114,50.4300003051758
1528.3504364,47.5400009155273
1528.3660614,42.7000007629395
1528.3816864,37.0499992370605
1528.3973114,31.4400005340576
1528.4129364,25.9400005340576
1528.4285614,19.9400005340576
1528.4441864,12.8100004196167
1528.4598114,4.48000001907349
1528.4754364,-4.40999984741211
1528.4910614,-12.789999961853
1528.5066864,-19.4500007629395
1528.5223114,-23.5
1528.5379364,-24.9200000762939
1528.5535614,-24.7800006866455
1528.5691864,-24.5400009155273
1528.5848114,-25.1000003814697
1528.6004364,-26.4599990844727
1528.6160614,-28.0699996948242
1528.6316864,-29.2999992370605
1528.6473114,-29.8500003814697
1528.6629364,-29.7099990844727
1528.6785614,-28.9200000762939
1528.6941864,-27.7099990844727
1528.7098114,-26.4699993133545
1528.7254364,-25.6900005340576
1528.7410614,-25.6100006103516
1528.7566864,-26.1700000762939
1528.7723114,-27.1499996185303
1528.7879364,-28.1900005340576
1528.8035614,-28.4899997711182
1528.8191864,-26.3999996185303
1528.8348114,-19.9500007629395
1528.8504364,-8.19999980926514
1528.8660614,7.30999994277954
1528.8816864,23.1599998474121
1528.8973114,35.9500007629395
1528.9129364,44.2099990844727
1528.9285614,48.439998626709
1528.9441864,50.2299995422363
1528.9598114,50.9599990844727
1528.9754364,51.0499992370605
1528.9910614,50.0200004577637
1529.0066864,47.2999992370605
1529.0223114,42.5900001525879
1529.0379364,35.8600006103516
1529.0535614,27.6000003814697
1529.0691864,19.1000003814697
1529.0848114,12.2200002670288
1529.1004364,8.47999954223633
1529.1160614,8.13000011444092
1529.1316864,9.85999965667725
1529.1473114,11.6000003814697
1529.1629364,11.6199998855591
1529.1785614,9.05000019073486
1529.1941864,3.6800000667572
1529.2098114,-4.1100001335144
1529.2254364,-13.7299995422363
1529.2410614,-24.5400009155273
1529.2566864,-35.9500007629395
1529.2723114,-47.0200004577637
1529.2879364,-56.4700012207031
1529.3035614,-63.2400016784668
1529.3191864,-66.9400024414063
1529.3348114,-67.9199981689453
1529.3504364,-66.5500030517578
1529.3660614,-62.6800003051758
1529.3816864,-55.6699981689453
1529.3973114,-45.310001373291
1529.4129364,-32.0099983215332
1529.4285614,-16.1900005340576
1529.4441864,1.9099999666214
1529.4598114,21.1200008392334
1529.4754364,38.8400001525879
1529.4910614,52.689998626709
1529.5066864,62.0800018310547
1529.5223114,67.8300018310547
1529.5379364,70.7900009155273
1529.5535614,70.9899978637695
1529.5691864,67.8000030517578
1529.5848114,60.4000015258789
1529.6004364,48.5900001525879
1529.6160614,33.4500007629395
1529.6316864,17.5100002288818
1529.6473114,4.07999992370605
1529.6629364,-4.1399998664856
1529.6785614,-6.46000003814697
1529.6941864,-4.51999998092651
1529.7098114,-1.39999997615814
1529.7254364,0.209999993443489
1529.7410614,-0.589999973773956
1529.7566864,-3.32999992370605
1529.7723114,-7.17000007629395
1529.7879364,-11.8500003814697
1529.8035614,-17.4400005340576
1529.8191864,-23.5200004577637
1529.8348114,-28.8199996948242
1529.8504364,-31.9799995422363
1529.8660614,-32.689998626709
1529.8816864,-32.0400009155273
1529.8973114,-31.8799991607666
1529.9129364,-33.4799995422363
1529.9285614,-36.5999984741211
1529.9441864,-39.5800018310547
1529.9598114,-40.5299987792969
1529.9754364,-38.3699989318848
1529.9910614,-32.9900016784668
1530.0066864,-24.4400005340576
1530.0223114,-12.1899995803833
1530.0379364,4.6100001335144
1530.0535614,25.8199996948242
1530.0691864,49.0200004577637
1530.0848114,69.6800003051758
1530.1004364,83.0199966430664
1530.1160614,86.5800018310547
1530.1316864,81.9300003051758
1530.1473114,73.8499984741211
1530.1629364,67.0100021362305
1530.1785614,62.7299995422363
1530.1941864,58.4099998474121
1530.2098114,50.2000007629395
1530.2254364,36.6100006103516
1530.2410614,19.7700004577637
1530.2566864,3.59999990463257
1530.2723114,-8.89000034332275
1530.2879364,-16.7399997711182
1530.3035614,-20.3400001525879
1530.3191864,-20.5100002288818
1530.3348114,-18.2999992370605
1530.3504364,-15.3699998855591
1530.3660614,-13.960000038147
1530.3816864,-15.8699998855591
1530.3973114,-21.3899993896484
1530.4129364,-28.9200000762939
1530.4285614,-35.9199981689453
1530.4441864,-40.2900009155273
1530.4598114,-41.3300018310547
1530.4754364,-39.6699981689453
1530.4910614,-36.8199996948242
1530.5066864,-34.2400016784668
1530.5223114,-32.3600006103516
1530.5379364,-30.4799995422363
1530.5535614,-27.1200008392334
1530.5691864,-20.6599998474121
1530.5848114,-10.0500001907349
1530.6004364,4.6399998664856
1530.6160614,22.3299999237061
1530.6316864,41.1399993896484
1530.6473114,58.5299987792969
1530.6629364,71.7200012207031
1530.6785614,78.5599975585938
1530.6941864,78.5899963378906
1530.7098114,73.2900009155273
1530.7254364,65.4599990844727
1530.7410614,57.7900009155273
1530.7566864,51.4300003051758
1530.7723114,45.4500007629395
1530.7879364,37.75
1530.8035614,26.8999996185303
1530.8191864,13.3900003433228
1530.8348114,-0.779999971389771
1530.8504364,-13.3000001907349
1530.8660614,-22.5400009155273
1530.8816864,-27.9699993133545
1530.8973114,-30.0799999237061
1530.9129364,-29.9899997711182
1530.9285614,-28.8500003814697
1530.9441864,-27.4699993133545
1530.9598114,-26.2299995422363
1530.9754364,-25.3899993896484
1530.9910614,-25.3099994659424
1531.0066864,-26.2700004577637
1531.0223114,-28.0599994659424
1531.0379364,-30.0300006866455
1531.0535614,-31.4099998474121
1531.0691864,-31.8299999237061
1531.0848114,-31.7199993133545
1531.1004364,-31.9899997711182
1531.1160614,-32.939998626709
1531.1316864,-33.7299995422363
1531.1473114,-32.5699996948242
1531.1629364,-27.5200004577637
1531.1785614,-17.5300006866455
1531.1941864,-3.5
1531.2098114,11.5500001907349
1531.2254364,24.0100002288818
1531.2410614,31.5699996948242
1531.2566864,33.9599990844727
1531.2723114,32.4000015258789
1531.2879364,28.7999992370605
1531.3035614,25.1399993896484
1531.3191864,22.6000003814697
1531.3348114,20.9699993133545
1531.3504364,18.7700004577637
1531.3660614,14.1899995803833
1531.3816864,6.51000022888184
1531.3973114,-3.0699999332428
1531.4129364,-12.0600004196167
1531.4285614,-18.5
1531.4441864,-22.2800006866455
1531.4598114,-24.6700000762939
1531.4754364,-27.0300006866455
1531.4910614,-30.1100006103516
1531.5066864,-34.3300018310547
1531.5223114,-39.9099998474121
1531.5379364,-46.4500007629395
1531.5535614,-52.75
1531.5691864,-57.1100006103516
1531.5848114,-58.3400001525879
1531.6004364,-56.5099983215332
1531.6160614,-52.7599983215332
1531.6316864,-48.5800018310547
1531.6473114,-45.1500015258789
1531.6629364,-43.2299995422363
1531.6785614,-43.1399993896484
1531.6941864,-44.8800010681152
1531.7098114,-47.689998626709
1531.7254364,-49.4700012207031
1531.7410614,-47.1100006103516
1531.7566864,-38.1199989318848
1531.7723114,-22.3899993896484
1531.7879364,-2.73000001907349
1531.8035614,16.4500007629395
1531.8191864,31.75
1531.8348114,42.3199996948242
1531.8504364,49.4300003051758
1531.8660614,54.810001373291
1531.8816864,59.3600006103516
1531.8973114,62.8300018310547
1531.9129364,63.7000007629395
1531.9285614,59.7000007629395
1531.9441864,49.2999992370605
1531.9598114,33.2299995422363
1531.9754364,14.6700000762939
1531.9910614,-2.26999998092651
1532.0066864,-14.3000001907349
1532.0223114,-20.1700000762939
1532.0379364,-20.8600006103516
1532.0535614,-18.9099998474121
1532.0691864,-16.9099998474121
1532.0848114,-16.2700004577637
1532.1004364,-17.1000003814697
1532.1160614,-18.6399993896484
1532.1316864,-19.75
1532.1473114,-19.6200008392334
1532.1629364,-18.3700008392334
1532.1785614,-16.9599990844727
1532.1941864,-16.4799995422363
1532.2098114,-17.5300006866455
1532.2254364,-19.6599998474121
1532.2410614,-21.5499992370605
1532.2566864,-21.6900005340576
1532.2723114,-19.3899993896484
1532.2879364,-14.9499998092651
1532.3035614,-9.10999965667725
1532.3191864,-2.20000004768372
1532.3348114,6.17000007629395
1532.3504364,16.5599994659424
1532.3660614,28.5400009155273
1532.3816864,40.3400001525879
1532.3973114,49.5299987792969
1532.4129364,54.5499992370605
1532.4285614,55.6800003051758
1532.4441864,54.5400009155273
1532.4598114,52.9900016784668
1532.4754364,52.2799987792969
1532.4910614,52.5099983215332
1532.5066864,52.2900009155273
1532.5223114,49.2799987792969
1532.5379364,41.75
1532.5535614,30.0300006866455
1532.5691864,16.5699996948242
1532.5848114,4.5
1532.6004364,-3.97000002861023
1532.6160614,-8.30000019073486
1532.6316864,-9.30000019073486
1532.6473114,-8.51000022888184
1532.6629364,-7.48999977111816
1532.6785614,-7.15999984741211
1532.6941864,-7.59999990463257
1532.7098114,-8.36999988555908
1532.7254364,-9.10999965667725
1532.7410614,-9.93000030517578
1532.7566864,-11.2200002670288
1532.7723114,-13.1800003051758
1532.7879364,-15.7299995422363
1532.8035614,-18.2999992370605
1532.8191864,-19.8299999237061
1532.8348114,-19.3400001525879
1532.8504364,-16.7600002288818
1532.8660614,-13.2700004577637
1532.8816864,-10.210000038147
1532.8973114,-7.65999984741211
1532.9129364,-3.85999989509583
1532.9285614,3.48000001907349
1532.9441864,15.1800003051758
1532.9598114,29.4599990844727
1532.9754364,43.0699996948242
1532.9910614,52.9900016784668
1533.0066864,57.5200004577637
1533.0223114,56.689998626709
1533.0379364,52.2700004577637
1533.0535614,47.1599998474121
1533.0691864,43.7000007629395
1533.0848114,41.9700012207031
1533.1004364,39.7400016784668
1533.1160614,34.3300018310547
1533.1316864,24.6499996185303
1533.1473114,11.9700002670288
1533.1629364,-0.920000016689301
1533.1785614,-11.2200002670288
1533.1941864,-17.3099994659424
1533.2098114,-19.1900005340576
1533.2254364,-18.3199996948242
1533.2410614,-16.9799995422363
1533.2566864,-17.0100002288818
1533.2723114,-18.7199993133545
1533.2879364,-20.9300003051758
1533.3035614,-22.1900005340576
1533.3191864,-21.9699993133545
1533.3348114,-20.9799995422363
1533.3504364,-20.4200000762939
1533.3660614,-21.2000007629395
1533.3816864,-23.3600006103516
1533.3973114,-26.1000003814697
1533.4129364,-28.2399997711182
1533.4285614,-29.0100002288818
1533.4441864,-28.5699996948242
1533.4598114,-27.6200008392334
1533.4754364,-26.1800003051758
1533.4910614,-22.7199993133545
1533.5066864,-14.9899997711182
1533.5223114,-2.0
1533.5379364,14.6300001144409
1533.5535614,31.0699996948242
1533.5691864,43.310001373291
1533.5848114,49.4900016784668
1533.6004364,50.4500007629395
1533.6160614,48.4700012207031
1533.6316864,45.4799995422363
1533.6473114,42.3400001525879
1533.6629364,38.8400001525879
1533.6785614,34.0099983215332
1533.6941864,26.8999996185303
1533.7098114,17.5599994659424
1533.7254364,7.23000001907349
1533.7410614,-2.40000009536743
1533.7566864,-9.92000007629395
1533.7723114,-14.5699996948242
1533.7879364,-16.8099994659424
1533.8035614,-18.25
1533.8191864,-20.6299991607666
1533.8348114,-24.7299995422363
1533.8504364,-30.2099990844727
1533.8660614,-36.0999984741211
1533.8816864,-41.2299995422363
1533.8973114,-44.3899993896484
1533.9129364,-44.8199996948242
1533.9285614,-42.939998626709
1533.9441864,-40.1399993896484
1533.9598114,-37.7799987792969
1533.9754364,-36.4900016784668
1533.9910614,-36.3499984741211
1534.0066864,-37.1399993896484
1534.0223114,-38.2299995422363
1534.0379364,-38.2099990844727
1534.0535614,-34.7900009155273
1534.0691864,-25.5900001525879
1534.0848114,-9.75
1534.1004364,10.9399995803833
1534.1160614,32.439998626709
1534.1316864,50.2400016784668
1534.1473114,61.7200012207031
1534.1629364,67.2300033569336
1534.1785614,69.0299987792969
1534.1941864,69.370002746582
1534.2098114,69.1600036621094
1534.2254364,67.7799987792969
1534.2410614,63.9199981689453
1534.2566864,56.6399993896484
1534.2723114,45.8600006103516
1534.2879364,32.3899993896484
1534.3035614,17.7700004577637
1534.3191864,3.84999990463257
1534.3348114,-7.96999979019165
1534.3504364,-17.3799991607666
1534.3660614,-25.0699996948242
1534.3816864,-32.0400009155273
1534.3973114,-38.6599998474121
1534.4129364,-44.1199989318848
1534.4285614,-46.8699989318848
1534.4441864,-45.939998626709
1534.4598114,-41.9799995422363
1534.4754364,-37.1500015258789
1534.4910614,-33.8899993896484
1534.5066864,-33.5400009155273
1534.5223114,-35.7099990844727
1534.5379364,-38.8800010681152
1534.5535614,-41.6100006103516
1534.5691864,-43.1800003051758
1534.5848114,-43.560001373291
1534.6004364,-42.689998626709
1534.6160614,-39.8300018310547
1534.6316864,-33.75
1534.6473114,-23.7399997711182
1534.6629364,-10.460000038147
1534.6785614,4.30000019073486
1534.6941864,18.4300003051758
1534.7098114,30.1599998474121
1534.7254364,38.4099998474121
1534.7410614,42.7000007629395
1534.7566864,43.2200012207031
1534.7723114,41.0099983215332
1534.7879364,38.0
1534.8035614,35.8699989318848
1534.8191864,34.5999984741211
1534.8348114,32.4599990844727
1534.8504364,27.2900009155273
1534.8660614,18.0400009155273
1534.8816864,5.57999992370605
1534.8973114,-7.61999988555908
1534.9129364,-18.7700004577637
1534.9285614,-26.1100006103516
1534.9441864,-29.4699993133545
1534.9598114,-29.8299999237061
1534.9754364,-28.6200008392334
1534.9910614,-27.2800006866455
1535.0066864,-26.7800006866455
1535.0223114,-27.4200000762939
1535.0379364,-28.7999992370605
1535.0535614,-30.2199993133545
1535.0691864,-31.2000007629395
1535.0848114,-31.6800003051758
1535.1004364,-32.0
1535.1160614,-32.560001373291
1535.1316864,-33.4199981689453
1535.1473114,-34.1800003051758
1535.1629364,-34.0900001525879
1535.1785614,-32.0400009155273
1535.1941864,-26.4899997711182
1535.2098114,-16.0599994659424
1535.2254364,-0.600000023841858
1535.2410614,17.9099998474121
1535.2566864,35.7400016784668
1535.2723114,49.0499992370605
1535.2879364,56.0
1535.3035614,57.4199981689453
1535.3191864,55.7000007629395
1535.3348114,53.1800003051758
1535.3504364,51.0699996948242
1535.3660614,49.2900009155273
1535.3816864,46.7200012207031
1535.3973114,41.8699989318848
1535.4129364,33.8400001525879
