Time(s),Value(%)
432.0083602,-35.4199981689453
432.0239852,-31.7399997711182
432.0396102,-26.9300003051758
432.0552352,-20.3999996185303
432.0708602,-11.9200000762939
432.0864852,-1.96000003814697
432.1021102,8.60999965667725
432.1177352,19.0699996948242
432.1333602,28.9699993133545
432.1489852,38.0699996948242
432.1646102,46.189998626709
432.1802352,53.1800003051758
432.1958602,58.9700012207031
432.2114852,63.3400001525879
432.2271102,65.8199996948242
432.2427352,65.9300003051758
432.2583602,63.6100006103516
432.2739852,59.1699981689453
432.2896102,53.2299995422363
432.3052352,46.5400009155273
432.3208602,39.7999992370605
432.3364852,33.5
432.3521102,27.8199996948242
432.3677352,22.8299999237061
432.3833602,18.4300003051758
432.3989852,14.4200000762939
432.4146102,10.6199998855591
432.4302352,7.01000022888184
432.4458602,3.65000009536743
432.4614852,0.469999998807907
432.4771102,-2.60999989509583
432.4927352,-5.65999984741211
432.5083602,-8.5600004196167
432.5239852,-11.1999998092651
432.5396102,-13.5699996948242
432.5552352,-15.75
432.5708602,-17.7800006866455
432.5864852,-19.6700000762939
432.6021102,-21.3400001525879
432.6177352,-22.7999992370605
432.6333602,-24.0900001525879
432.6489852,-25.3500003814697
432.6646102,-26.6200008392334
432.6802352,-27.8099994659424
432.6958602,-28.75
432.7114852,-29.3400001525879
432.7271102,-29.6399993896484
432.7427352,-29.7800006866455
432.7583602,-29.7600002288818
432.7739852,-29.4899997711182
432.7896102,-28.8199996948242
432.8052352,-27.4300003051758
432.8208602,-24.7900009155273
432.8364852,-20.3700008392334
432.8521102,-13.9499998092651
432.8677352,-5.8600001335144
432.8833602,3.19000005722046
432.8989852,12.3999996185303
432.9146102,21.0699996948242
432.9302352,28.8199996948242
432.9458602,35.5099983215332
432.9614852,41.0900001525879
432.9771102,45.439998626709
432.9927352,48.2299995422363
433.0083602,49.060001373291
433.0239852,47.7299995422363
433.0396102,44.4099998474121
433.0552352,39.560001373291
433.0708602,33.8199996948242
433.0864852,27.8500003814697
433.1021102,22.2800006866455
433.1177352,17.4300003051758
433.1333602,13.2600002288818
433.1489852,9.5600004196167
433.1646102,6.1100001335144
433.1802352,2.77999997138977
433.1958602,-0.360000014305115
433.2114852,-3.22000002861023
433.2271102,-5.88000011444092
433.2427352,-8.55000019073486
433.2583602,-11.2399997711182
433.2739852,-13.6599998474121
433.2896102,-15.5
433.3052352,-16.6499996185303
433.3208602,-17.2800006866455
433.3364852,-17.6800003051758
433.3521102,-17.9799995422363
433.3677352,-18.1100006103516
433.3833602,-17.9200000762939
433.3989852,-17.2800006866455
433.4146102,-16.2099990844727
433.4302352,-14.8800001144409
433.4458602,-13.5100002288818
433.4614852,-12.2799997329712
433.4771102,-11.3599996566772
433.4927352,-10.8100004196167
433.5083602,-10.5100002288818
433.5239852,-10.25
433.5396102,-9.93000030517578
433.5552352,-9.52999973297119
433.5708602,-9.0
433.5864852,-8.10000038146973
433.6021102,-6.3899998664856
433.6177352,-3.32999992370605
433.6333602,1.4099999666214
433.6489852,7.67999982833862
433.6646102,14.8400001525879
433.6802352,22.0799999237061
433.6958602,28.8199996948242
433.7114852,34.8199996948242
433.7271102,40.0
433.7427352,44.2400016784668
433.7583602,47.1500015258789
433.7739852,48.2700004577637
433.7896102,47.3400001525879
433.8052352,44.3699989318848
433.8208602,39.6199989318848
433.8364852,33.4500007629395
433.8521102,26.3500003814697
433.8677352,19.0200004577637
433.8833602,12.1899995803833
433.8989852,6.30999994277954
433.9146102,1.41999995708466
433.9302352,-2.74000000953674
433.9458602,-6.44000005722046
433.9614852,-9.97000026702881
433.9771102,-13.5900001525879
433.9927352,-17.4599990844727
434.0083602,-21.4099998474121
434.0239852,-25.0799999237061
434.0396102,-28.1700000762939
434.0552352,-30.5100002288818
434.0708602,-32.1699981689453
434.0864852,-33.3300018310547
434.1021102,-34.1800003051758
434.1177352,-34.7700004577637
434.1333602,-34.9799995422363
434.1489852,-34.7200012207031
434.1646102,-34.0200004577637
434.1802352,-33.060001373291
434.1958602,-31.8899993896484
434.2114852,-30.4599990844727
434.2271102,-28.8299999237061
434.2427352,-27.0799999237061
434.2583602,-25.2000007629395
434.2739852,-23.1499996185303
434.2896102,-20.8999996185303
434.3052352,-18.3999996185303
434.3208602,-15.5600004196167
434.3364852,-12.1700000762939
434.3521102,-7.90000009536743
434.3677352,-2.28999996185303
434.3833602,4.94000005722046
434.3989852,13.6000003814697
434.4146102,22.9799995422363
434.4302352,32.2400016784668
434.4458602,40.7299995422363
434.4614852,48.2200012207031
434.4771102,54.9500007629395
434.4927352,61.0999984741211
434.5083602,66.2099990844727
434.5239852,69.2900009155273
434.5396102,69.4700012207031
434.5552352,66.4800033569336
434.5708602,60.8300018310547
434.5864852,53.6100006103516
434.6021102,46.0299987792969
434.6177352,38.810001373291
434.6333602,31.8400001525879
434.6489852,24.3700008392334
434.6646102,15.710000038147
434.6802352,5.67000007629395
434.6958602,-5.3600001335144
434.7114852,-16.6900005340576
434.7271102,-27.7299995422363
434.7427352,-38.1300010681152
434.7583602,-47.5
434.7739852,-55.439998626709
434.7896102,-61.8899993896484
434.8052352,-67.1900024414063
434.8208602,-71.6100006103516
434.8364852,-75.2699966430664
434.8521102,-78.0999984741211
434.8677352,-80.0299987792969
434.8833602,-81.0800018310547
434.8989852,-81.3899993896484
434.9146102,-81.0400009155273
434.9302352,-79.7900009155273
434.9458602,-77.4000015258789
434.9614852,-73.8600006103516
434.9771102,-69.370002746582
434.9927352,-64.0800018310547
435.0083602,-58.0099983215332
435.0239852,-51.2099990844727
435.0396102,-43.9000015258789
435.0552352,-36.2999992370605
435.0708602,-28.3799991607666
435.0864852,-19.7000007629395
435.1021102,-9.64000034332275
435.1177352,2.15000009536743
435.1333602,15.5100002288818
435.1489852,29.7700004577637
435.1646102,44.0099983215332
435.1802352,57.3600006103516
435.1958602,69.1999969482422
435.2114852,79.2399978637695
435.2271102,87.4599990844727
435.2427352,93.8899993896484
435.2583602,98.4100036621094
435.2739852,100.800003051758
435.2896102,101.01000213623
435.3052352,99.2399978637695
435.3208602,95.9199981689453
435.3364852,91.5
435.3521102,86.3399963378906
435.3677352,80.7099990844727
435.3833602,74.8199996948242
435.3989852,68.8600006103516
435.4146102,62.939998626709
435.4302352,57.1199989318848
435.4458602,51.2799987792969
435.4614852,45.2400016784668
435.4771102,38.8800010681152
435.4927352,32.2799987792969
435.5083602,25.5400009155273
435.5239852,18.6399993896484
435.5396102,11.4799995422363
435.5552352,4.05000019073486
435.5708602,-3.71000003814697
435.5864852,-11.8999996185303
435.6021102,-20.3700008392334
435.6177352,-28.7399997711182
435.6333602,-36.5499992370605
435.6489852,-43.560001373291
435.6646102,-49.7900009155273
435.6802352,-55.3400001525879
435.6958602,-60.3199996948242
435.7114852,-64.6800003051758
435.7271102,-68.3399963378906
435.7427352,-71.129997253418
435.7583602,-72.8099975585938
435.7739852,-73.1399993896484
435.7896102,-72.0899963378906
435.8052352,-69.7200012207031
435.8208602,-66.129997253418
435.8364852,-61.2400016784668
435.8521102,-54.8300018310547
435.8677352,-46.6300010681152
435.8833602,-36.6500015258789
435.8989852,-25.2299995422363
435.9146102,-13.0
435.9302352,-0.790000021457672
435.9458602,10.5500001907349
435.9614852,20.4099998474121
435.9771102,28.3999996185303
435.9927352,34.4799995422363
436.0083602,38.9900016784668
436.0239852,42.4300003051758
436.0396102,44.939998626709
436.0552352,46.2299995422363
436.0708602,45.9300003051758
436.0864852,43.9799995422363
436.1021102,40.7900009155273
436.1177352,37.1100006103516
436.1333602,33.5800018310547
436.1489852,30.3999996185303
436.1646102,27.3299999237061
436.1802352,24.0100002288818
436.1958602,20.2700004577637
436.2114852,16.1000003814697
436.2271102,11.6300001144409
436.2427352,7.09999990463257
436.2583602,2.85999989509583
436.2739852,-0.829999983310699
436.2896102,-3.90000009536743
436.3052352,-6.44000005722046
436.3208602,-8.63000011444092
436.3364852,-10.5900001525879
436.3521102,-12.3999996185303
436.3677352,-14.039999961853
436.3833602,-15.4099998474121
436.3989852,-16.3899993896484
436.4146102,-16.9799995422363
436.4302352,-17.4200000762939
436.4458602,-18.0599994659424
436.4614852,-19.1200008392334
436.4771102,-20.4400005340576
436.4927352,-21.6800003051758
436.5083602,-22.7000007629395
436.5239852,-23.6700000762939
436.5396102,-24.7399997711182
436.5552352,-25.8999996185303
436.5708602,-26.9200000762939
436.5864852,-27.4799995422363
436.6021102,-27.1100006103516
436.6177352,-25.2099990844727
436.6333602,-21.2900009155273
436.6489852,-15.1599998474121
436.6646102,-7.26999998092651
436.6802352,1.46000003814697
436.6958602,10.0100002288818
436.7114852,17.6399993896484
436.7271102,24.0499992370605
436.7427352,29.3700008392334
436.7583602,33.9799995422363
436.7739852,38.0400009155273
436.7896102,41.1500015258789
436.8052352,42.6800003051758
436.8208602,42.2999992370605
436.8364852,40.1599998474121
436.8521102,36.7999992370605
436.8677352,32.8800010681152
436.8833602,28.8600006103516
436.8989852,24.8600006103516
436.9146102,20.7099990844727
436.9302352,16.2299995422363
436.9458602,11.25
436.9614852,5.82000017166138
436.9771102,0.259999990463257
436.9927352,-5.1399998664856
437.0083602,-10.4200000762939
437.0239852,-15.8500003814697
437.0396102,-21.5900001525879
437.0552352,-27.5799999237061
437.0708602,-33.4599990844727
437.0864852,-38.6699981689453
437.1021102,-42.7099990844727
437.1177352,-45.4000015258789
437.1333602,-46.8499984741211
437.1489852,-47.3800010681152
437.1646102,-47.2400016784668
437.1802352,-46.5400009155273
437.1958602,-45.3800010681152
437.2114852,-43.9199981689453
437.2271102,-42.3400001525879
437.2427352,-40.7700004577637
437.2583602,-39.1800003051758
437.2739852,-37.4599990844727
437.2896102,-35.310001373291
437.3052352,-32.2599983215332
437.3208602,-27.7999992370605
437.3364852,-21.6399993896484
437.3521102,-13.8599996566772
437.3677352,-4.82000017166138
437.3833602,4.86999988555908
437.3989852,14.3900003433228
437.4146102,22.8099994659424
437.4302352,29.4599990844727
437.4458602,34.1100006103516
437.4614852,36.8400001525879
437.4771102,37.8499984741211
437.4927352,37.2700004577637
437.5083602,35.0499992370605
437.5239852,31.0900001525879
437.5396102,25.3500003814697
437.5552352,17.8999996185303
437.5708602,9.11999988555908
437.5864852,-0.319999992847443
437.6021102,-9.67000007629395
437.6177352,-18.3899993896484
437.6333602,-26.1399993896484
437.6489852,-32.5699996948242
437.6646102,-37.4199981689453
437.6802352,-40.7400016784668
437.6958602,-42.8499984741211
437.7114852,-44.060001373291
437.7271102,-44.5299987792969
437.7427352,-44.3499984741211
437.7583602,-43.6800003051758
437.7739852,-42.5299987792969
437.7896102,-40.7000007629395
437.8052352,-38.0699996948242
437.8208602,-34.8199996948242
437.8364852,-31.1599998474121
437.8521102,-27.2099990844727
437.8677352,-23.0699996948242
437.8833602,-18.8199996948242
437.8989852,-14.3900003433228
437.9146102,-9.63000011444092
437.9302352,-4.46999979019165
437.9458602,1.08000004291534
437.9614852,6.92000007629395
437.9771102,12.8299999237061
437.9927352,18.4699993133545
438.0083602,23.5200004577637
438.0239852,27.8700008392334
438.0396102,31.9400005340576
438.0552352,36.5999984741211
438.0708602,42.7999992370605
438.0864852,50.9099998474121
438.1021102,60.4599990844727
438.1177352,70.4400024414063
438.1333602,79.7600021362305
438.1489852,87.5400009155273
438.1646102,93.2200012207031
438.1802352,96.5299987792969
438.1958602,97.5100021362305
438.2114852,96.4000015258789
438.2271102,93.5500030517578
438.2427352,89.1699981689453
438.2583602,83.2399978637695
438.2739852,75.7399978637695
438.2896102,67.120002746582
438.3052352,58.1800003051758
438.3208602,49.7099990844727
438.3364852,42.2700004577637
438.3521102,36.0499992370605
438.3677352,30.8500003814697
438.3833602,26.1900005340576
438.3989852,21.6900005340576
438.4146102,17.2800006866455
438.4302352,13.3000001907349
438.4458602,10.1999998092651
438.4614852,8.18000030517578
438.4771102,7.01000022888184
438.4927352,6.23999977111816
438.5083602,5.46000003814697
438.5239852,4.44000005722046
438.5396102,3.11999988555908
438.5552352,1.57000005245209
438.5708602,-0.0099999997764825
438.5864852,-1.37999999523163
438.6021102,-2.27999997138977
438.6177352,-2.61999988555908
438.6333602,-2.5
438.6489852,-2.15000009536743
438.6646102,-1.99000000953674
438.6802352,-2.45000004768372
438.6958602,-3.76999998092651
438.7114852,-5.65999984741211
438.7271102,-7.57999992370605
438.7427352,-9.13000011444092
438.7583602,-10.210000038147
438.7739852,-10.7600002288818
438.7896102,-10.5600004196167
438.8052352,-9.25
438.8208602,-6.59999990463257
438.8364852,-2.69000005722046
438.8521102,2.09999990463257
438.8677352,7.32000017166138
438.8833602,12.4399995803833
438.8989852,16.9400005340576
438.9146102,20.4799995422363
438.9302352,22.9599990844727
438.9458602,24.3500003814697
438.9614852,24.6200008392334
438.9771102,23.6100006103516
438.9927352,21.1299991607666
439.0083602,17.1100006103516
439.0239852,11.6000003814697
439.0396102,4.80000019073486
439.0552352,-2.92000007629395
439.0708602,-11.0799999237061
439.0864852,-19.1700000762939
439.1021102,-26.8700008392334
439.1177352,-34.0699996948242
439.1333602,-40.7900009155273
439.1489852,-47.1100006103516
439.1646102,-53.0200004577637
439.1802352,-58.4900016784668
439.1958602,-63.4799995422363
439.2114852,-68.0400009155273
439.2271102,-72.2200012207031
439.2427352,-76.0599975585938
439.2583602,-79.4499969482422
439.2739852,-82.2099990844727
439.2896102,-84.3300018310547
439.3052352,-85.9899978637695
439.3208602,-87.3600006103516
439.3364852,-88.370002746582
439.3521102,-88.8499984741211
439.3677352,-88.75
439.3833602,-88.1800003051758
439.3989852,-87.2900009155273
439.4146102,-86.0999984741211
439.4302352,-84.5400009155273
439.4458602,-82.5599975585938
439.4614852,-80.1399993896484
439.4771102,-77.3099975585938
439.4927352,-74.1500015258789
439.5083602,-70.8199996948242
439.5239852,-67.5599975585938
439.5396102,-64.5
439.5552352,-61.3699989318848
439.5708602,-57.5200004577637
439.5864852,-52.0800018310547
439.6021102,-44.3199996948242
439.6177352,-34.0
439.6333602,-21.3899993896484
439.6489852,-7.25
439.6646102,7.21999979019165
439.6802352,20.8199996948242
439.6958602,32.7700004577637
439.7114852,42.9099998474121
439.7271102,51.2599983215332
439.7427352,57.6800003051758
439.7583602,61.8699989318848
439.7739852,63.6699981689453
439.7896102,63.189998626709
439.8052352,60.8400001525879
439.8208602,57.0499992370605
439.8364852,52.2000007629395
439.8521102,46.7200012207031
439.8677352,41.0900001525879
439.8833602,35.6599998474121
439.8989852,30.5599994659424
439.9146102,25.8299999237061
439.9302352,21.5599994659424
439.9458602,17.8899993896484
439.9614852,14.8900003433228
439.9771102,12.4099998474121
439.9927352,10.1099996566772
440.0083602,7.65999984741211
440.0239852,4.92999982833862
440.0396102,1.96000003814697
440.0552352,-0.949999988079071
440.0708602,-3.22000002861023
440.0864852,-4.32000017166138
440.1021102,-4.15999984741211
440.1177352,-3.01999998092651
440.1333602,-1.32000005245209
440.1489852,0.75
440.1646102,3.25
440.1802352,6.23999977111816
440.1958602,9.71000003814697
440.2114852,13.4799995422363
440.2271102,17.3700008392334
440.2427352,21.3099994659424
440.2583602,25.2600002288818
440.2739852,29.1200008392334
440.2896102,32.7700004577637
440.3052352,36.1500015258789
440.3208602,39.4199981689453
440.3364852,42.9000015258789
440.3521102,46.9900016784668
440.3677352,52.060001373291
440.3833602,58.4300003051758
440.3989852,66.3000030517578
440.4146102,75.4199981689453
440.4302352,84.9300003051758
440.4458602,93.7200012207031
440.4614852,100.860000610352
440.4771102,105.900001525879
440.4927352,108.98999786377
440.5083602,110.720001220703
440.5239852,111.639999389648
440.5396102,111.860000610352
440.5552352,110.930000305176
440.5708602,108.029998779297
440.5864852,102.629997253418
440.6021102,94.879997253418
440.6177352,85.5599975585938
440.6333602,75.4899978637695
440.6489852,65.2099990844727
440.6646102,54.8600006103516
440.6802352,44.3400001525879
440.6958602,33.5499992370605
440.7114852,22.5300006866455
440.7271102,11.4300003051758
440.7427352,0.519999980926514
440.7583602,-9.98999977111816
440.7739852,-19.9799995422363
440.7896102,-29.3500003814697
440.8052352,-38.1500015258789
440.8208602,-46.4599990844727
440.8364852,-54.3400001525879
440.8521102,-61.7099990844727
440.8677352,-68.3600006103516
440.8833602,-74.1399993896484
440.8989852,-79.1600036621094
440.9146102,-83.6699981689453
440.9302352,-87.7099990844727
440.9458602,-91.1500015258789
440.9614852,-93.8199996948242
440.9771102,-95.7099990844727
440.9927352,-96.8499984741211
441.0083602,-97.2799987792969
441.0239852,-97.0199966430664
441.0396102,-96.2200012207031
441.0552352,-95.1500015258789
441.0708602,-93.9599990844727
441.0864852,-92.5400009155273
441.1021102,-90.4599990844727
441.1177352,-87.1100006103516
441.1333602,-81.9700012207031
441.1489852,-74.7099990844727
441.1646102,-65.2900009155273
441.1802352,-54.2299995422363
441.1958602,-42.5800018310547
441.2114852,-31.3700008392334
441.2271102,-21.2199993133545
441.2427352,-12.3500003814697
441.2583602,-4.80999994277954
441.2739852,1.39999997615814
441.2896102,6.21999979019165
441.3052352,9.47000026702881
441.3208602,10.8400001525879
441.3364852,10.1599998474121
441.3521102,7.59000015258789
441.3677352,3.6800000667572
441.3833602,-0.860000014305115
441.3989852,-5.48999977111816
441.4146102,-9.75
441.4302352,-13.1999998092651
441.4458602,-15.5699996948242
441.4614852,-16.9400005340576
441.4771102,-17.6000003814697
441.4927352,-17.7700004577637
441.5083602,-17.5599994659424
441.5239852,-17.0799999237061
441.5396102,-16.5200004577637
441.5552352,-15.960000038147
441.5708602,-15.3999996185303
441.5864852,-14.8800001144409
441.6021102,-14.5600004196167
441.6177352,-14.4399995803833
441.6333602,-14.3299999237061
441.6489852,-14.0100002288818
441.6646102,-13.3100004196167
441.6802352,-12.1199998855591
441.6958602,-10.460000038147
441.7114852,-8.44999980926514
441.7271102,-6.30000019073486
441.7427352,-4.17999982833862
441.7583602,-2.14000010490417
441.7739852,-0.230000004172325
441.7896102,1.44000005722046
441.8052352,2.88000011444092
441.8208602,4.28000020980835
441.8364852,5.92000007629395
441.8521102,7.94999980926514
441.8677352,10.3100004196167
441.8833602,12.9399995803833
441.8989852,16.0400009155273
441.9146102,20.25
441.9302352,26.3899993896484
441.9458602,34.8800010681152
441.9614852,45.2299995422363
441.9771102,56.1599998474121
441.9927352,66.2099990844727
442.0083602,74.3499984741211
442.0239852,80.2200012207031
442.0396102,84.1100006103516
442.0552352,86.5599975585938
442.0708602,87.870002746582
442.0864852,88.0800018310547
442.1021102,86.9800033569336
442.1177352,84.3099975585938
442.1333602,79.8600006103516
442.1489852,73.6800003051758
442.1646102,66.1100006103516
442.1802352,57.7900009155273
442.1958602,49.560001373291
442.2114852,42.2099990844727
442.2271102,36.2700004577637
442.2427352,31.7900009155273
442.2583602,28.3199996948242
442.2739852,25.1599998474121
442.2896102,21.6299991607666
442.3052352,17.4099998474121
442.3208602,12.6800003051758
442.3364852,7.90999984741211
442.3521102,3.44000005722046
442.3677352,-0.720000028610229
442.3833602,-4.80999994277954
442.3989852,-9.05000019073486
442.4146102,-13.3599996566772
442.4302352,-17.3099994659424
442.4458602,-20.4200000762939
442.4614852,-22.4500007629395
442.4771102,-23.6000003814697
442.4927352,-24.2999992370605
442.5083602,-24.9400005340576
442.5239852,-25.6900005340576
442.5396102,-26.4200000762939
442.5552352,-26.9300003051758
442.5708602,-27.1800003051758
442.5864852,-27.2900009155273
442.6021102,-27.3600006103516
442.6177352,-27.5100002288818
442.6333602,-27.8500003814697
442.6489852,-28.3600006103516
442.6646102,-28.9099998474121
442.6802352,-29.1299991607666
442.6958602,-28.3299999237061
442.7114852,-25.6499996185303
