Time(s),Value(%)
1371.0039563,29.2399997711182
1371.0195813,31.2999992370605
1371.0352063,34.1399993896484
1371.0508313,37.2599983215332
1371.0664563,40.3899993896484
1371.0820813,43.6300010681152
1371.0977063,47.0800018310547
1371.1133313,50.5099983215332
1371.1289563,53.4799995422363
1371.1445813,55.7999992370605
1371.1602063,57.6500015258789
1371.1758313,59.3400001525879
1371.1914563,60.8699989318848
1371.2070813,61.8899993896484
1371.2227063,61.6199989318848
1371.2383313,60.5
1371.2539563,58.8400001525879
1371.2695813,56.8899993896484
1371.2852063,54.6800003051758
1371.3008313,52.1599998474121
1371.3164563,49.3499984741211
1371.3320813,46.3699989318848
1371.3477063,43.3600006103516
1371.3633313,40.4500007629395
1371.3789563,37.7099990844727
1371.3945813,35.1599998474121
1371.4102063,32.7900009155273
1371.4258313,30.6499996185303
1371.4414563,28.8099994659424
1371.4570813,27.2199993133545
1371.4727063,25.6900005340576
1371.4883313,23.8600006103516
1371.5039563,21.4500007629395
1371.5195813,18.4300003051758
1371.5352063,14.9899997711182
1371.5508313,11.3699998855591
1371.5664563,7.69000005722046
1371.5820813,4.03999996185303
1371.5977063,0.449999988079071
1371.6133313,-3.05999994277954
1371.6289563,-6.55999994277954
1371.6445813,-10.1599998474121
1371.6602063,-14.0100002288818
1371.6758313,-18.1000003814697
1371.6914563,-22.2600002288818
1371.7070813,-26.1499996185303
1371.7227063,-29.5
1371.7383313,-32.2099990844727
1371.7539563,-34.3400001525879
1371.7695813,-35.9500007629395
1371.7852063,-36.9300003051758
1371.8008313,-37.0
1371.8164563,-35.9500007629395
1371.8320813,-33.9300003051758
1371.8477063,-31.4899997711182
1371.8633313,-29.1800003051758
1371.8789563,-27.3400001525879
1371.8945813,-26.0100002288818
1371.9102063,-25.0200004577637
1371.9258313,-24.1200008392334
1371.9414563,-23.1299991607666
1371.9570813,-21.9699993133545
1371.9727063,-20.6399993896484
1371.9883313,-19.0599994659424
1372.0039563,-17.1900005340576
1372.0195813,-15.0900001525879
1372.0352063,-13.1300001144409
1372.0508313,-11.9200000762939
1372.0664563,-11.9899997711182
1372.0820813,-13.3400001525879
1372.0977063,-15.5600004196167
1372.1133313,-18.1900005340576
1372.1289563,-20.9099998474121
1372.1445813,-23.6100006103516
1372.1602063,-26.2399997711182
1372.1758313,-28.8099994659424
1372.1914563,-31.3600006103516
1372.2070813,-34.0
1372.2227063,-36.4500007629395
1372.2383313,-39.0699996948242
1372.2539563,-41.8300018310547
1372.2695813,-44.7200012207031
1372.2852063,-47.75
1372.3008313,-50.8600006103516
1372.3164563,-53.939998626709
1372.3320813,-56.8400001525879
1372.3477063,-59.5200004577637
1372.3633313,-62.0699996948242
1372.3789563,-64.5800018310547
1372.3945813,-66.9800033569336
1372.4102063,-69.0999984741211
1372.4258313,-70.7600021362305
1372.4414563,-71.9300003051758
1372.4570813,-72.7200012207031
1372.4727063,-73.4100036621094
1372.4883313,-74.3199996948242
1372.5039563,-75.7099990844727
1372.5195813,-77.5999984741211
1372.5352063,-79.7900009155273
1372.5508313,-82.0100021362305
1372.5664563,-84.0400009155273
1372.5820813,-85.7200012207031
1372.5977063,-86.8600006103516
1372.6133313,-87.129997253418
1372.6289563,-86.2600021362305
1372.6445813,-84.2799987792969
1372.6602063,-81.5100021362305
1372.6758313,-78.3899993896484
1372.6914563,-75.25
1372.7070813,-72.25
1372.7227063,-69.4100036621094
1372.7383313,-66.6800003051758
1372.7539563,-64.0699996948242
1372.7695813,-61.6500015258789
1372.7852063,-59.5400009155273
1372.8008313,-57.7900009155273
1372.8164563,-56.4000015258789
1372.8320813,-55.3699989318848
1372.8477063,-54.7099990844727
1372.8633313,-54.3400001525879
1372.8789563,-54.0299987792969
1372.8945813,-53.5099983215332
1372.9102063,-52.6199989318848
1372.9258313,-51.5699996948242
1372.9414563,-50.689998626709
1372.9570813,-50.060001373291
1372.9727063,-49.5200004577637
1372.9883313,-48.7900009155273
1373.0039563,-47.7299995422363
1373.0195813,-46.3400001525879
1373.0352063,-44.8899993896484
1373.0508313,-43.810001373291
1373.0664563,-43.439998626709
1373.0820813,-43.9000015258789
1373.0977063,-45.1199989318848
1373.1133313,-47.1300010681152
1373.1289563,-49.9700012207031
1373.1445813,-53.4700012207031
1373.1602063,-56.9700012207031
1373.1758313,-59.5099983215332
1373.1914563,-60.4300003051758
1373.2070813,-59.8899993896484
1373.2227063,-58.0200004577637
1373.2383313,-55.9199981689453
1373.2539563,-53.7900009155273
1373.2695813,-51.8199996948242
1373.2852063,-50.2799987792969
1373.3008313,-49.2900009155273
1373.3164563,-48.5299987792969
1373.3320813,-47.3699989318848
1373.3477063,-45.25
1373.3633313,-42.0900001525879
1373.3789563,-38.1500015258789
1373.3945813,-33.6500015258789
1373.4102063,-28.6299991607666
1373.4258313,-23.1399993896484
1373.4414563,-17.3400001525879
1373.4570813,-11.5100002288818
1373.4727063,-6.01999998092651
1373.4883313,-1.23000001907349
1373.5039563,2.57999992370605
1373.5195813,5.48999977111816
1373.5352063,7.75
1373.5508313,9.73999977111816
1373.5664563,11.7399997711182
1373.5820813,13.8699998855591
1373.5977063,16.0799999237061
1373.6133313,18.2099990844727
1373.6289563,20.1399993896484
1373.6445813,21.7600002288818
1373.6602063,22.9699993133545
1373.6758313,23.5499992370605
1373.6914563,23.2900009155273
1373.7070813,22.2700004577637
1373.7227063,21.0
1373.7383313,20.2900009155273
1373.7539563,20.7299995422363
1373.7695813,22.2099990844727
1373.7852063,24.2299995422363
1373.8008313,26.3600006103516
1373.8164563,28.3700008392334
1373.8320813,30.0300006866455
1373.8477063,31.0200004577637
1373.8633313,31.2700004577637
1373.8789563,31.0799999237061
1373.8945813,31.0699996948242
1373.9102063,31.6700000762939
1373.9258313,32.810001373291
1373.9414563,34.1399993896484
1373.9570813,35.5299987792969
1373.9727063,37.1699981689453
1373.9883313,39.2999992370605
1374.0039563,41.939998626709
1374.0195813,44.8699989318848
1374.0352063,47.7599983215332
1374.0508313,50.2599983215332
1374.0664563,52.1300010681152
1374.0820813,53.3699989318848
1374.0977063,54.0999984741211
1374.1133313,54.4599990844727
1374.1289563,54.5099983215332
1374.1445813,54.3600006103516
1374.1602063,54.3400001525879
1374.1758313,55.0299987792969
1374.1914563,56.8899993896484
1374.2070813,59.9599990844727
1374.2227063,63.5499992370605
1374.2383313,67.4199981689453
1374.2539563,71.1800003051758
1374.2695813,74.6699981689453
1374.2852063,77.8300018310547
1374.3008313,80.6999969482422
1374.3164563,83.2399978637695
1374.3320813,85.370002746582
1374.3477063,87.0100021362305
1374.3633313,88.120002746582
1374.3789563,88.7600021362305
1374.3945813,88.9899978637695
1374.4102063,88.8600006103516
1374.4258313,88.4400024414063
1374.4414563,87.9100036621094
1374.4570813,87.5299987792969
1374.4727063,87.4400024414063
1374.4883313,87.629997253418
1374.5039563,87.8899993896484
1374.5195813,88.0899963378906
1374.5352063,88.1699981689453
1374.5508313,88.1800003051758
1374.5664563,88.120002746582
1374.5820813,87.9899978637695
1374.5977063,87.6900024414063
1374.6133313,87.0299987792969
1374.6289563,85.870002746582
1374.6445813,84.1800003051758
1374.6602063,82.0199966430664
1374.6758313,79.4199981689453
1374.6914563,76.4199981689453
1374.7070813,73.120002746582
1374.7227063,69.7699966430664
1374.7383313,66.75
1374.7539563,64.2900009155273
1374.7695813,62.2999992370605
1374.7852063,60.4700012207031
1374.8008313,58.6100006103516
1374.8164563,56.7299995422363
1374.8320813,54.939998626709
1374.8477063,53.3199996948242
1374.8633313,51.8600006103516
1374.8789563,50.4599990844727
1374.8945813,49.060001373291
1374.9102063,47.5900001525879
1374.9258313,46.0299987792969
1374.9414563,44.3199996948242
1374.9570813,42.3400001525879
1374.9727063,39.9799995422363
1374.9883313,37.2599983215332
1375.0039563,34.3899993896484
1375.0195813,31.7099990844727
1375.0352063,29.3999996185303
1375.0508313,27.2600002288818
1375.0664563,24.9099998474121
1375.0820813,22.1700000762939
1375.0977063,19.0400009155273
1375.1133313,15.5900001525879
1375.1289563,11.789999961853
1375.1445813,7.71999979019165
1375.1602063,3.65000009536743
1375.1758313,0.0900000035762787
1375.1914563,-2.52999997138977
1375.2070813,-4.11999988555908
1375.2227063,-4.8600001335144
1375.2383313,-4.96000003814697
1375.2539563,-4.53999996185303
1375.2695813,-3.74000000953674
1375.2852063,-2.73000001907349
1375.3008313,-1.67999994754791
1375.3164563,-0.699999988079071
1375.3320813,0.180000007152557
1375.3477063,1.04999995231628
1375.3633313,1.92999994754791
1375.3789563,2.76999998092651
1375.3945813,3.42000007629395
1375.4102063,3.73000001907349
1375.4258313,3.65000009536743
1375.4414563,3.24000000953674
1375.4570813,2.61999988555908
1375.4727063,1.85000002384186
1375.4883313,0.930000007152557
1375.5039563,-0.119999997317791
1375.5195813,-1.25999999046326
1375.5352063,-2.32999992370605
1375.5508313,-3.22000002861023
1375.5664563,-3.95000004768372
1375.5820813,-4.57999992370605
1375.5977063,-5.26999998092651
1375.6133313,-6.19999980926514
1375.6289563,-7.51999998092651
1375.6445813,-9.22000026702881
1375.6602063,-11.25
1375.6758313,-13.5500001907349
1375.6914563,-16.0900001525879
1375.7070813,-18.8099994659424
1375.7227063,-21.4799995422363
1375.7383313,-23.8099994659424
1375.7539563,-25.5200004577637
1375.7695813,-26.5900001525879
1375.7852063,-27.1599998474121
1375.8008313,-27.3999996185303
1375.8164563,-27.3999996185303
1375.8320813,-27.2199993133545
1375.8477063,-26.9400005340576
1375.8633313,-26.6399993896484
1375.8789563,-26.4699993133545
1375.8945813,-26.6000003814697
1375.9102063,-27.2000007629395
1375.9258313,-28.2800006866455
1375.9414563,-29.8299999237061
1375.9570813,-31.9200000762939
1375.9727063,-34.6199989318848
1375.9883313,-37.8600006103516
1376.0039563,-41.2999992370605
1376.0195813,-44.4700012207031
1376.0352063,-47.0299987792969
1376.0508313,-49.0400009155273
1376.0664563,-50.7099990844727
1376.0820813,-52.0999984741211
1376.0977063,-53.0999984741211
1376.1133313,-53.5499992370605
1376.1289563,-53.5
1376.1445813,-53.1100006103516
1376.1602063,-52.689998626709
1376.1758313,-52.5499992370605
1376.1914563,-52.8899993896484
1376.2070813,-53.7400016784668
1376.2227063,-55.1199989318848
1376.2383313,-57.1399993896484
1376.2539563,-59.9500007629395
1376.2695813,-63.4599990844727
1376.2852063,-67.1999969482422
1376.3008313,-70.4000015258789
1376.3164563,-72.5
1376.3320813,-73.4899978637695
1376.3477063,-73.6999969482422
1376.3633313,-73.3399963378906
1376.3789563,-72.4000015258789
1376.3945813,-70.8000030517578
1376.4102063,-68.629997253418
1376.4258313,-66.1399993896484
1376.4414563,-63.5699996948242
1376.4570813,-61.0999984741211
1376.4727063,-58.7799987792969
1376.4883313,-56.5999984741211
1376.5039563,-54.5699996948242
1376.5195813,-52.7700004577637
1376.5352063,-51.3300018310547
1376.5508313,-50.2400016784668
1376.5664563,-49.2799987792969
1376.5820813,-48.0999984741211
1376.5977063,-46.3899993896484
1376.6133313,-44.1399993896484
1376.6289563,-41.5499992370605
1376.6445813,-38.8199996948242
1376.6602063,-36.0099983215332
1376.6758313,-33.1500015258789
1376.6914563,-30.25
1376.7070813,-27.3799991607666
1376.7227063,-24.6599998474121
1376.7383313,-22.2600002288818
1376.7539563,-20.3400001525879
1376.7695813,-18.8999996185303
1376.7852063,-17.9099998474121
1376.8008313,-17.3400001525879
1376.8164563,-17.1900005340576
1376.8320813,-17.3700008392334
1376.8477063,-17.6399993896484
1376.8633313,-17.6100006103516
1376.8789563,-17.0499992370605
1376.8945813,-16.0599994659424
1376.9102063,-14.9499998092651
1376.9258313,-13.8999996185303
1376.9414563,-12.8800001144409
1376.9570813,-11.7700004577637
1376.9727063,-10.4799995422363
1376.9883313,-9.05000019073486
1377.0039563,-7.59000015258789
1377.0195813,-6.25
1377.0352063,-5.15999984741211
1377.0508313,-4.32999992370605
1377.0664563,-3.69000005722046
1377.0820813,-3.13000011444092
1377.0977063,-2.55999994277954
1377.1133313,-1.95000004768372
1377.1289563,-1.29999995231628
1377.1445813,-0.649999976158142
1377.1602063,-0.0199999995529652
1377.1758313,0.540000021457672
1377.1914563,1.02999997138977
1377.2070813,1.37999999523163
1377.2227063,1.52999997138977
1377.2383313,1.5
1377.2539563,1.46000003814697
1377.2695813,1.77999997138977
1377.2852063,2.77999997138977
1377.3008313,4.55999994277954
1377.3164563,6.92999982833862
1377.3320813,9.57999992370605
1377.3477063,12.25
1377.3633313,14.789999961853
1377.3789563,17.1700000762939
1377.3945813,19.3999996185303
1377.4102063,21.5
1377.4258313,23.4799995422363
1377.4414563,25.2299995422363
1377.4570813,26.5900001525879
1377.4727063,27.3999996185303
1377.4883313,27.6000003814697
1377.5039563,27.25
1377.5195813,26.3299999237061
1377.5352063,24.8299999237061
1377.5508313,22.8500003814697
1377.5664563,20.6900005340576
1377.5820813,18.7000007629395
1377.5977063,16.9400005340576
1377.6133313,14.8999996185303
1377.6289563,11.9700002670288
1377.6445813,8.02000045776367
1377.6602063,3.53999996185303
1377.6758313,-0.790000021457672
1377.6914563,-4.48999977111816
1377.7070813,-7.44000005722046
1377.7227063,-9.94999980926514
1377.7383313,-12.5
1377.7539563,-15.5299997329712
1377.7695813,-19.1499996185303
1377.7852063,-23.1900005340576
1377.8008313,-27.3700008392334
1377.8164563,-31.4599990844727
1377.8320813,-35.2299995422363
1377.8477063,-38.1699981689453
1377.8633313,-39.3800010681152
1377.8789563,-38.0499992370605
1377.8945813,-34.0499992370605
1377.9102063,-28.0100002288818
1377.9258313,-20.9599990844727
1377.9414563,-13.8400001525879
1377.9570813,-7.21000003814697
1377.9727063,-1.25
1377.9883313,4.13000011444092
1378.0039563,9.11999988555908
1378.0195813,13.8500003814697
1378.0352063,18.3700008392334
1378.0508313,22.6499996185303
1378.0664563,26.6599998474121
1378.0820813,30.3899993896484
1378.0977063,33.8300018310547
1378.1133313,36.9799995422363
1378.1289563,39.689998626709
1378.1445813,41.6399993896484
1378.1602063,42.5400009155273
1378.1758313,42.3400001525879
1378.1914563,41.1800003051758
1378.2070813,39.2000007629395
1378.2227063,36.5099983215332
1378.2383313,33.310001373291
1378.2539563,29.9899997711182
1378.2695813,27.0900001525879
1378.2852063,24.9400005340576
1378.3008313,23.4300003051758
1378.3164563,22.2299995422363
1378.3320813,21.1499996185303
1378.3477063,20.25
1378.3633313,19.5499992370605
1378.3789563,18.9599990844727
1378.3945813,18.3700008392334
1378.4102063,17.7999992370605
1378.4258313,17.5200004577637
1378.4414563,17.7900009155273
1378.4570813,18.7099990844727
1378.4727063,20.1000003814697
1378.4883313,21.7900009155273
1378.5039563,23.6399993896484
1378.5195813,25.5499992370605
1378.5352063,27.4400005340576
1378.5508313,29.2299995422363
1378.5664563,30.8899993896484
1378.5820813,32.4099998474121
1378.5977063,33.810001373291
1378.6133313,35.0999984741211
1378.6289563,36.2700004577637
1378.6445813,37.2400016784668
1378.6602063,37.9599990844727
1378.6758313,38.4099998474121
1378.6914563,38.6599998474121
1378.7070813,38.7999992370605
1378.7227063,38.9199981689453
1378.7383313,39.0699996948242
1378.7539563,39.2700004577637
1378.7695813,39.5099983215332
1378.7852063,39.7999992370605
1378.8008313,40.1100006103516
1378.8164563,40.4000015258789
1378.8320813,40.6199989318848
1378.8477063,40.7099990844727
1378.8633313,40.6599998474121
1378.8789563,40.4599990844727
1378.8945813,40.0999984741211
1378.9102063,39.5400009155273
1378.9258313,38.6699981689453
1378.9414563,37.3699989318848
1378.9570813,35.6399993896484
1378.9727063,33.6100006103516
1378.9883313,31.4500007629395
1379.0039563,29.2900009155273
1379.0195813,27.0699996948242
1379.0352063,24.75
1379.0508313,22.4200000762939
1379.0664563,20.25
1379.0820813,18.3899993896484
1379.0977063,16.8700008392334
1379.1133313,15.5799999237061
1379.1289563,14.3699998855591
1379.1445813,13.1000003814697
1379.1602063,11.7299995422363
1379.1758313,10.2700004577637
1379.1914563,8.78999996185303
1379.2070813,7.44000005722046
1379.2227063,6.28999996185303
1379.2383313,5.38000011444092
1379.2539563,4.73000001907349
1379.2695813,4.40999984741211
1379.2852063,4.53000020980835
1379.3008313,5.21999979019165
1379.3164563,6.44999980926514
1379.3320813,8.0
1379.3477063,9.53999996185303
1379.3633313,10.8199996948242
1379.3789563,11.7399997711182
1379.3945813,12.3100004196167
1379.4102063,12.539999961853
1379.4258313,12.3299999237061
1379.4414563,11.539999961853
1379.4570813,10.1599998474121
1379.4727063,8.34000015258789
1379.4883313,6.32999992370605
1379.5039563,4.34999990463257
1379.5195813,2.52999997138977
1379.5352063,0.899999976158142
1379.5508313,-0.479999989271164
1379.5664563,-1.5900000333786
1379.5820813,-2.36999988555908
1379.5977063,-2.8199999332428
1379.6133313,-2.99000000953674
1379.6289563,-3.0
1379.6445813,-2.95000004768372
1379.6602063,-2.89000010490417
1379.6758313,-2.88000011444092
1379.6914563,-2.95000004768372
1379.7070813,-3.20000004768372
1379.7227063,-3.72000002861023
1379.7383313,-4.48999977111816
1379.7539563,-5.46000003814697
1379.7695813,-6.53999996185303
1379.7852063,-7.67999982833862
1379.8008313,-8.82999992370605
1379.8164563,-9.97999954223633
1379.8320813,-11.1099996566772
1379.8477063,-12.2399997711182
1379.8633313,-13.3699998855591
1379.8789563,-14.5299997329712
1379.8945813,-15.7299995422363
1379.9102063,-17.0
1379.9258313,-18.4099998474121
1379.9414563,-20.0100002288818
1379.9570813,-21.8099994659424
1379.9727063,-23.7199993133545
1379.9883313,-25.6000003814697
1380.0039563,-27.3899993896484
1380.0195813,-29.0900001525879
1380.0352063,-30.7299995422363
1380.0508313,-32.2799987792969
1380.0664563,-33.6300010681152
1380.0820813,-34.7000007629395
1380.0977063,-35.5099983215332
1380.1133313,-36.1300010681152
1380.1289563,-36.6599998474121
1380.1445813,-37.1800003051758
1380.1602063,-37.7200012207031
1380.1758313,-38.2799987792969
1380.1914563,-38.8300018310547
1380.2070813,-39.3899993896484
1380.2227063,-39.9500007629395
1380.2383313,-40.5200004577637
1380.2539563,-41.0200004577637
1380.2695813,-41.3600006103516
1380.2852063,-41.3899993896484
1380.3008313,-41.0400009155273
1380.3164563,-40.2999992370605
1380.3320813,-39.25
1380.3477063,-38.0099983215332
1380.3633313,-36.7000007629395
1380.3789563,-35.4199981689453
1380.3945813,-34.2000007629395
1380.4102063,-33.0499992370605
1380.4258313,-31.9099998474121
1380.4414563,-30.7199993133545
1380.4570813,-29.4599990844727
1380.4727063,-28.1499996185303
1380.4883313,-26.8099994659424
1380.5039563,-25.4699993133545
1380.5195813,-24.1399993896484
1380.5352063,-22.9099998474121
1380.5508313,-21.8700008392334
1380.5664563,-21.0599994659424
1380.5820813,-20.4400005340576
1380.5977063,-19.8500003814697
1380.6133313,-19.1800003051758
1380.6289563,-18.4099998474121
1380.6445813,-17.6100006103516
1380.6602063,-16.8299999237061
1380.6758313,-16.1200008392334
1380.6914563,-15.460000038147
1380.7070813,-14.8199996948242
1380.7227063,-14.1400003433228
1380.7383313,-13.3999996185303
1380.7539563,-12.6000003814697
1380.7695813,-11.7299995422363
1380.7852063,-10.8100004196167
1380.8008313,-9.85999965667725
1380.8164563,-8.96000003814697
1380.8320813,-8.27000045776367
1380.8477063,-7.94000005722046
1380.8633313,-8.02000045776367
1380.8789563,-8.47000026702881
1380.8945813,-9.18000030517578
1380.9102063,-10.039999961853
1380.9258313,-10.9099998474121
1380.9414563,-11.7299995422363
1380.9570813,-12.4700002670288
1380.9727063,-13.1899995803833
1380.9883313,-14.0
1381.0039563,-15.0299997329712
1381.0195813,-16.2800006866455
1381.0352063,-17.6599998474121
1381.0508313,-18.9500007629395
1381.0664563,-20.0100002288818
1381.0820813,-20.75
1381.0977063,-21.1399993896484
1381.1133313,-21.1200008392334
1381.1289563,-20.5900001525879
1381.1445813,-19.5100002288818
1381.1602063,-17.9400005340576
1381.1758313,-16.0900001525879
1381.1914563,-14.2200002670288
1381.2070813,-12.5299997329712
1381.2227063,-11.1000003814697
1381.2383313,-9.89000034332275
1381.2539563,-8.81999969482422
1381.2695813,-7.8899998664856
1381.2852063,-7.09999990463257
1381.3008313,-6.46000003814697
1381.3164563,-5.90999984741211
1381.3320813,-5.34999990463257
1381.3477063,-4.67000007629395
1381.3633313,-3.83999991416931
1381.3789563,-2.91000008583069
1381.3945813,-2.00999999046326
