Time(s),Value(%)
1371.0039563,-11.6400003433228
1371.0195813,-13.7200002670288
1371.0352063,-16.9799995422363
1371.0508313,-20.7000007629395
1371.0664563,-24.3700008392334
1371.0820813,-27.7800006866455
1371.0977063,-30.6499996185303
1371.1133313,-32.5999984741211
1371.1289563,-33.3600006103516
1371.1445813,-33.1199989318848
1371.1602063,-32.3199996948242
1371.1758313,-31.2199993133545
1371.1914563,-29.5100002288818
1371.2070813,-26.7000007629395
1371.2227063,-22.8899993896484
1371.2383313,-18.9799995422363
1371.2539563,-15.9200000762939
1371.2695813,-14.0699996948242
1371.2852063,-13.1999998092651
1371.3008313,-12.9300003051758
1371.3164563,-13.1700000762939
1371.3320813,-13.9899997711182
1371.3477063,-15.3100004196167
1371.3633313,-16.7000007629395
1371.3789563,-17.4300003051758
1371.3945813,-16.3799991607666
1371.4102063,-12.0900001525879
1371.4258313,-3.30999994277954
1371.4414563,10.0299997329712
1371.4570813,26.3899993896484
1371.4727063,42.8499984741211
1371.4883313,56.0999984741211
1371.5039563,63.5099983215332
1371.5195813,64.129997253418
1371.5352063,59.1800003051758
1371.5508313,51.4300003051758
1371.5664563,43.6699981689453
1371.5820813,37.3899993896484
1371.5977063,32.4300003051758
1371.6133313,27.5300006866455
1371.6289563,21.4200000762939
1371.6445813,13.75
1371.6602063,5.46999979019165
1371.6758313,-1.70000004768372
1371.6914563,-6.3600001335144
1371.7070813,-8.03999996185303
1371.7227063,-7.44999980926514
1371.7383313,-5.94999980926514
1371.7539563,-4.88000011444092
1371.7695813,-4.94000005722046
1371.7852063,-6.21999979019165
1371.8008313,-8.47000026702881
1371.8164563,-11.2799997329712
1371.8320813,-14.1000003814697
1371.8477063,-16.6399993896484
1371.8633313,-19.2700004577637
1371.8789563,-22.6299991607666
1371.8945813,-26.75
1371.9102063,-30.75
1371.9258313,-33.4799995422363
1371.9414563,-34.1800003051758
1371.9570813,-32.6100006103516
1371.9727063,-29.0900001525879
1371.9883313,-24.4899997711182
1372.0039563,-19.9799995422363
1372.0195813,-16.4699993133545
1372.0352063,-14.3999996185303
1372.0508313,-13.6899995803833
1372.0664563,-13.8900003433228
1372.0820813,-14.4399995803833
1372.0977063,-14.8400001525879
1372.1133313,-14.6400003433228
1372.1289563,-13.5699996948242
1372.1445813,-11.7299995422363
1372.1602063,-9.42000007629395
1372.1758313,-6.63000011444092
1372.1914563,-2.82999992370605
1372.2070813,2.95000004768372
1372.2227063,11.4499998092651
1372.2383313,22.5599994659424
1372.2539563,35.1199989318848
1372.2695813,47.1100006103516
1372.2852063,56.1500015258789
1372.3008313,60.439998626709
1372.3164563,59.7299995422363
1372.3320813,55.3699989318848
1372.3477063,49.4500007629395
1372.3633313,43.5200004577637
1372.3789563,37.8800010681152
1372.3945813,31.7299995422363
1372.4102063,24.1599998474121
1372.4258313,15.1000003814697
1372.4414563,5.55999994277954
1372.4570813,-2.89000010490417
1372.4727063,-9.0
1372.4883313,-12.2399997711182
1372.5039563,-12.8000001907349
1372.5195813,-11.4099998474121
1372.5352063,-9.14000034332275
1372.5508313,-7.1399998664856
1372.5664563,-6.51999998092651
1372.5820813,-7.98999977111816
1372.5977063,-11.3699998855591
1372.6133313,-15.5699996948242
1372.6289563,-19.3099994659424
1372.6445813,-21.9500007629395
1372.6602063,-23.75
1372.6758313,-25.1399993896484
1372.6914563,-26.1599998474121
1372.7070813,-26.6100006103516
1372.7227063,-26.5
1372.7383313,-26.2000007629395
1372.7539563,-26.1900005340576
1372.7695813,-26.5900001525879
1372.7852063,-27.0900001525879
1372.8008313,-27.1800003051758
1372.8164563,-26.3600006103516
1372.8320813,-24.1900005340576
1372.8477063,-20.5400009155273
1372.8633313,-15.8999996185303
1372.8789563,-11.4899997711182
1372.8945813,-8.60999965667725
1372.9102063,-7.80999994277954
1372.9258313,-8.77000045776367
1372.9414563,-10.710000038147
1372.9570813,-12.5500001907349
1372.9727063,-12.6000003814697
1372.9883313,-8.92000007629395
1373.0039563,-0.330000013113022
1373.0195813,12.7200002670288
1373.0352063,28.25
1373.0508313,43.4300003051758
1373.0664563,55.3600006103516
1373.0820813,61.9000015258789
1373.0977063,62.5999984741211
1373.1133313,58.9099998474121
1373.1289563,53.2299995422363
1373.1445813,47.3400001525879
1373.1602063,41.5800018310547
1373.1758313,35.3899993896484
1373.1914563,28.3199996948242
1373.2070813,20.5400009155273
1373.2227063,12.5699996948242
1373.2383313,5.07999992370605
1373.2539563,-1.17999994754791
1373.2695813,-5.78999996185303
1373.2852063,-9.02999973297119
1373.3008313,-11.5900001525879
1373.3164563,-13.710000038147
1373.3320813,-15.0200004577637
1373.3477063,-15.3000001907349
1373.3633313,-14.9899997711182
1373.3789563,-14.9300003051758
1373.3945813,-15.7200002670288
1373.4102063,-17.4200000762939
1373.4258313,-19.6900005340576
1373.4414563,-22.0100002288818
1373.4570813,-23.8500003814697
1373.4727063,-24.9300003051758
1373.4883313,-25.4099998474121
1373.5039563,-25.7399997711182
1373.5195813,-26.2099990844727
1373.5352063,-26.7299995422363
1373.5508313,-27.1200008392334
1373.5664563,-27.3199996948242
1373.5820813,-27.25
1373.5977063,-26.6499996185303
1373.6133313,-25.2800006866455
1373.6289563,-23.2099990844727
1373.6445813,-20.7999992370605
1373.6602063,-18.3799991607666
1373.6758313,-16.0
1373.6914563,-13.3800001144409
1373.7070813,-10.5100002288818
1373.7227063,-8.02999973297119
1373.7383313,-6.59999990463257
1373.7539563,-5.71000003814697
1373.7695813,-3.48000001907349
1373.7852063,2.0
1373.8008313,11.3299999237061
1373.8164563,23.3099994659424
1373.8320813,35.8300018310547
1373.8477063,46.8400001525879
1373.8633313,54.8499984741211
1373.8789563,58.8600006103516
1373.8945813,58.4900016784668
1373.9102063,54.25
1373.9258313,47.4300003051758
1373.9414563,39.7000007629395
1373.9570813,32.5
1373.9727063,26.6399993896484
1373.9883313,21.8899993896484
1374.0039563,17.0799999237061
1374.0195813,11.1099996566772
1374.0352063,4.09999990463257
1374.0508313,-2.54999995231628
1374.0664563,-7.19000005722046
1374.0820813,-9.14000034332275
1374.0977063,-9.06999969482422
1374.1133313,-8.52000045776367
1374.1289563,-8.97000026702881
1374.1445813,-11.1400003433228
1374.1602063,-14.8199996948242
1374.1758313,-19.0599994659424
1374.1914563,-22.7000007629395
1374.2070813,-24.7600002288818
1374.2227063,-24.7700004577637
1374.2383313,-23.0100002288818
1374.2539563,-20.5900001525879
1374.2695813,-19.0699996948242
1374.2852063,-19.4599990844727
1374.3008313,-21.5900001525879
1374.3164563,-24.1900005340576
1374.3320813,-25.7199993133545
1374.3477063,-25.5100002288818
1374.3633313,-24.25
1374.3789563,-23.2099990844727
1374.3945813,-23.0100002288818
1374.4102063,-23.1700000762939
1374.4258313,-22.8299999237061
1374.4414563,-21.5
1374.4570813,-19.1800003051758
1374.4727063,-16.1299991607666
1374.4883313,-12.7600002288818
1374.5039563,-9.85000038146973
1374.5195813,-8.01000022888184
1374.5352063,-6.78999996185303
1374.5508313,-4.48999977111816
1374.5664563,0.850000023841858
1374.5820813,10.2600002288818
1374.5977063,23.2800006866455
1374.6133313,38.1300010681152
1374.6289563,52.1699981689453
1374.6445813,62.5699996948242
1374.6602063,67.1600036621094
1374.6758313,65.4800033569336
1374.6914563,58.9000015258789
1374.7070813,49.7700004577637
1374.7227063,40.3400001525879
1374.7383313,31.9300003051758
1374.7539563,24.7299995422363
1374.7695813,18.2600002288818
1374.7852063,11.9399995803833
1374.8008313,5.51999998092651
1374.8164563,-0.689999997615814
1374.8320813,-6.15000009536743
1374.8477063,-10.3199996948242
1374.8633313,-13.0100002288818
1374.8789563,-14.5
1374.8945813,-15.2799997329712
1374.9102063,-15.8100004196167
1374.9258313,-16.4699993133545
1374.9414563,-17.5599994659424
1374.9570813,-19.0499992370605
1374.9727063,-20.4300003051758
1374.9883313,-21.2099990844727
1375.0039563,-21.2900009155273
1375.0195813,-20.7600002288818
1375.0352063,-19.4200000762939
1375.0508313,-16.9099998474121
1375.0664563,-13.3599996566772
1375.0820813,-9.96000003814697
1375.0977063,-8.36999988555908
1375.1133313,-9.46000003814697
1375.1289563,-12.5799999237061
1375.1445813,-16.0900001525879
1375.1602063,-18.4500007629395
1375.1758313,-18.9099998474121
1375.1914563,-17.5300006866455
1375.2070813,-15.0299997329712
1375.2227063,-12.3699998855591
1375.2383313,-10.3800001144409
1375.2539563,-9.44999980926514
1375.2695813,-9.48999977111816
1375.2852063,-9.94999980926514
1375.3008313,-9.78999996185303
1375.3164563,-7.6100001335144
1375.3320813,-2.10999989509583
1375.3477063,7.19000005722046
1375.3633313,19.75
1375.3789563,33.8699989318848
1375.3945813,47.0999984741211
1375.4102063,56.9300003051758
1375.4258313,61.5800018310547
1375.4414563,60.5900001525879
1375.4570813,54.9199981689453
1375.4727063,46.6300010681152
1375.4883313,37.8199996948242
1375.5039563,29.6200008392334
1375.5195813,22.0200004577637
1375.5352063,14.6300001144409
1375.5508313,7.42000007629395
1375.5664563,0.980000019073486
1375.5820813,-3.86999988555908
1375.5977063,-6.78000020980835
1375.6133313,-8.17000007629395
1375.6289563,-8.98999977111816
1375.6445813,-10.1599998474121
1375.6602063,-12.0600004196167
1375.6758313,-14.3599996566772
1375.6914563,-16.2800006866455
1375.7070813,-17.2299995422363
1375.7227063,-17.3099994659424
1375.7383313,-17.0699996948242
1375.7539563,-16.9599990844727
1375.7695813,-17.1399993896484
1375.7852063,-17.4899997711182
1375.8008313,-17.6499996185303
1375.8164563,-17.3500003814697
1375.8320813,-16.8600006103516
1375.8477063,-16.8999996185303
1375.8633313,-18.0300006866455
1375.8789563,-20.1100006103516
1375.8945813,-22.25
1375.9102063,-23.4099998474121
1375.9258313,-23.0599994659424
1375.9414563,-21.5400009155273
1375.9570813,-19.7999992370605
1375.9727063,-18.8299999237061
1375.9883313,-19.2199993133545
1376.0039563,-20.75
1376.0195813,-22.5100002288818
1376.0352063,-23.3199996948242
1376.0508313,-22.3600006103516
1376.0664563,-19.4699993133545
1376.0820813,-15.0799999237061
1376.0977063,-9.55000019073486
1376.1133313,-2.45000004768372
1376.1289563,7.11999988555908
1376.1445813,19.3899993896484
1376.1602063,33.189998626709
1376.1758313,46.3400001525879
1376.1914563,56.5699996948242
1376.2070813,62.1800003051758
1376.2227063,62.5800018310547
1376.2383313,58.3499984741211
1376.2539563,50.9900016784668
1376.2695813,42.310001373291
1376.2852063,33.8300018310547
1376.3008313,26.3899993896484
1376.3164563,20.0
1376.3320813,14.25
1376.3477063,8.77000045776367
1376.3633313,3.4300000667572
1376.3789563,-1.48000001907349
1376.3945813,-5.30999994277954
1376.4102063,-7.55999994277954
1376.4258313,-8.5600004196167
1376.4414563,-9.23999977111816
1376.4570813,-10.5
1376.4727063,-12.8000001907349
1376.4883313,-16.25
1376.5039563,-20.6100006103516
1376.5195813,-25.2299995422363
1376.5352063,-29.1399993896484
1376.5508313,-31.5900001525879
1376.5664563,-32.310001373291
1376.5820813,-31.4200000762939
1376.5977063,-29.2800006866455
1376.6133313,-26.3600006103516
1376.6289563,-23.1399993896484
1376.6445813,-20.0699996948242
1376.6602063,-17.5599994659424
1376.6758313,-15.8100004196167
1376.6914563,-14.7799997329712
1376.7070813,-14.3900003433228
1376.7227063,-14.6099996566772
1376.7383313,-15.2799997329712
1376.7539563,-16.0499992370605
1376.7695813,-16.4599990844727
1376.7852063,-16.2199993133545
1376.8008313,-15.2799997329712
1376.8164563,-13.6400003433228
1376.8320813,-11.289999961853
1376.8477063,-8.14000034332275
1376.8633313,-3.90000009536743
1376.8789563,2.21000003814697
1376.8945813,11.1700000762939
1376.9102063,23.2099990844727
1376.9258313,37.060001373291
1376.9414563,50.189998626709
1376.9570813,59.9099998474121
1376.9727063,64.5899963378906
1376.9883313,64.1500015258789
1377.0039563,59.7599983215332
1377.0195813,52.9199981689453
1377.0352063,44.7000007629395
1377.0508313,35.6599998474121
1377.0664563,26.1399993896484
1377.0820813,16.5599994659424
1377.0977063,7.55000019073486
1377.1133313,-0.119999997317791
1377.1289563,-5.8600001335144
1377.1445813,-9.23999977111816
1377.1602063,-10.0200004577637
1377.1758313,-8.61999988555908
1377.1914563,-6.5
1377.2070813,-5.65000009536743
1377.2227063,-7.42999982833862
1377.2383313,-11.9300003051758
1377.2539563,-17.9899997711182
1377.2695813,-23.9200000762939
1377.2852063,-28.3299999237061
1377.3008313,-30.4599990844727
1377.3164563,-30.0499992370605
1377.3320813,-27.4799995422363
1377.3477063,-23.8299999237061
1377.3633313,-20.5200004577637
1377.3789563,-18.5900001525879
1377.3945813,-18.1700000762939
1377.4102063,-18.6900005340576
1377.4258313,-19.5
1377.4414563,-20.0900001525879
1377.4570813,-20.1599998474121
1377.4727063,-19.8500003814697
1377.4883313,-19.7199993133545
1377.5039563,-20.2199993133545
1377.5195813,-21.0799999237061
1377.5352063,-21.3600006103516
1377.5508313,-20.2399997711182
1377.5664563,-17.6800003051758
1377.5820813,-14.4200000762939
1377.5977063,-11.2799997329712
1377.6133313,-8.22000026702881
1377.6289563,-4.17999982833862
1377.6445813,2.25
1377.6602063,12.0299997329712
1377.6758313,24.9500007629395
1377.6914563,39.3800010681152
1377.7070813,52.5
1377.7227063,61.2900009155273
1377.7383313,63.9500007629395
1377.7539563,60.8300018310547
1377.7695813,54.1599998474121
1377.7852063,46.5699996948242
1377.8008313,39.5200004577637
1377.8164563,32.8499984741211
1377.8320813,25.6000003814697
1377.8477063,17.1800003051758
1377.8633313,8.0600004196167
1377.8789563,-0.239999994635582
1377.8945813,-6.01999998092651
1377.9102063,-8.52000045776367
1377.9258313,-8.5
1377.9414563,-7.69999980926514
1377.9570813,-7.71000003814697
1377.9727063,-9.21000003814697
1377.9883313,-12.0699996948242
1378.0039563,-15.7700004577637
1378.0195813,-19.6700000762939
1378.0352063,-23.0100002288818
1378.0508313,-25.2299995422363
1378.0664563,-26.4599990844727
1378.0820813,-27.2399997711182
1378.0977063,-27.8999996185303
1378.1133313,-28.2099990844727
1378.1289563,-27.6299991607666
1378.1445813,-25.7900009155273
1378.1602063,-22.8400001525879
1378.1758313,-19.3799991607666
1378.1914563,-16.0699996948242
1378.2070813,-13.5100002288818
1378.2227063,-12.2600002288818
1378.2383313,-12.710000038147
1378.2539563,-14.75
1378.2695813,-17.6000003814697
1378.2852063,-20.1499996185303
1378.3008313,-21.4599990844727
1378.3164563,-21.2600002288818
1378.3320813,-19.8899993896484
1378.3477063,-17.7000007629395
1378.3633313,-14.5
1378.3789563,-9.63000011444092
1378.3945813,-2.25
1378.4102063,8.15999984741211
1378.4258313,21.3199996948242
1378.4414563,35.7099990844727
1378.4570813,48.7900009155273
1378.4727063,57.810001373291
1378.4883313,60.9599990844727
1378.5039563,58.2700004577637
1378.5195813,51.5299987792969
1378.5352063,43.25
1378.5508313,35.5299987792969
1378.5664563,29.2999992370605
1378.5820813,24.2299995422363
1378.5977063,19.3500003814697
1378.6133313,14.1199998855591
1378.6289563,8.76000022888184
1378.6445813,4.05000019073486
1378.6602063,0.730000019073486
1378.6758313,-0.939999997615814
1378.6914563,-1.41999995708466
1378.7070813,-1.67999994754791
1378.7227063,-2.76999998092651
1378.7383313,-5.26000022888184
1378.7539563,-9.02999973297119
1378.7695813,-13.4499998092651
1378.7852063,-17.9099998474121
1378.8008313,-22.0100002288818
1378.8164563,-25.5599994659424
1378.8320813,-28.3999996185303
1378.8477063,-30.25
1378.8633313,-30.7399997711182
1378.8789563,-29.7000007629395
1378.8945813,-27.5
1378.9102063,-25.1299991607666
1378.9258313,-23.75
1378.9414563,-23.9400005340576
1378.9570813,-25.4799995422363
1378.9727063,-27.7399997711182
1378.9883313,-30.0100002288818
1379.0039563,-31.7099990844727
1379.0195813,-32.3800010681152
1379.0352063,-31.7700004577637
1379.0508313,-30.0200004577637
1379.0664563,-27.6299991607666
1379.0820813,-25.2099990844727
1379.0977063,-23.0100002288818
1379.1133313,-20.7099990844727
1379.1289563,-17.4599990844727
1379.1445813,-12.0600004196167
1379.1602063,-3.27999997138977
1379.1758313,9.46000003814697
1379.1914563,25.5799999237061
1379.2070813,43.0800018310547
1379.2227063,59.0200004577637
1379.2383313,70.4899978637695
1379.2539563,75.8199996948242
1379.2695813,74.9899978637695
1379.2852063,69.3199996948242
1379.3008313,60.7900009155273
1379.3164563,51.5
1379.3320813,43.0299987792969
1379.3477063,35.75
1379.3633313,28.8199996948242
1379.3789563,21.25
1379.3945813,12.9899997711182
1379.4102063,5.03000020980835
1379.4258313,-1.46000003814697
1379.4414563,-6.05000019073486
1379.4570813,-8.96000003814697
1379.4727063,-10.6999998092651
1379.4883313,-11.6599998474121
1379.5039563,-12.1000003814697
1379.5195813,-12.289999961853
1379.5352063,-12.5299997329712
1379.5508313,-12.960000038147
1379.5664563,-13.6499996185303
1379.5820813,-14.7399997711182
1379.5977063,-16.4200000762939
1379.6133313,-18.6900005340576
1379.6289563,-21.1599998474121
1379.6445813,-23.2700004577637
1379.6602063,-24.7399997711182
1379.6758313,-25.6399993896484
1379.6914563,-26.1800003051758
1379.7070813,-26.5900001525879
1379.7227063,-27.0100002288818
1379.7383313,-27.2900009155273
1379.7539563,-26.8799991607666
1379.7695813,-25.3500003814697
1379.7852063,-22.8400001525879
1379.8008313,-19.7800006866455
1379.8164563,-16.5100002288818
1379.8320813,-13.3699998855591
1379.8477063,-10.8800001144409
1379.8633313,-9.4399995803833
1379.8789563,-9.03999996185303
1379.8945813,-9.19999980926514
1379.9102063,-9.02999973297119
1379.9258313,-7.32999992370605
1379.9414563,-2.86999988555908
1379.9570813,5.13000011444092
1379.9727063,16.5300006866455
1379.9883313,29.7999992370605
1380.0039563,42.3800010681152
1380.0195813,51.9799995422363
1380.0352063,57.8199996948242
1380.0508313,60.560001373291
1380.0664563,61.1300010681152
1380.0820813,59.9099998474121
1380.0977063,56.7700004577637
1380.1133313,51.5299987792969
1380.1289563,44.2000007629395
1380.1445813,34.9500007629395
1380.1602063,24.2000007629395
1380.1758313,12.7600002288818
1380.1914563,1.78999996185303
1380.2070813,-7.5
1380.2227063,-14.1499996185303
1380.2383313,-17.6599998474121
1380.2539563,-18.2199993133545
1380.2695813,-16.9599990844727
1380.2852063,-15.5299997329712
1380.3008313,-15.2700004577637
1380.3164563,-16.6700000762939
1380.3320813,-19.4099998474121
1380.3477063,-22.8099994659424
1380.3633313,-26.2299995422363
1380.3789563,-29.2000007629395
1380.3945813,-31.3799991607666
1380.4102063,-32.4799995422363
1380.4258313,-32.4099998474121
1380.4414563,-31.3899993896484
1380.4570813,-29.8099994659424
1380.4727063,-28.0699996948242
1380.4883313,-26.5400009155273
1380.5039563,-25.3500003814697
1380.5195813,-24.3099994659424
1380.5352063,-23.0699996948242
1380.5508313,-21.3899993896484
1380.5664563,-19.2999992370605
1380.5820813,-16.8899993896484
1380.5977063,-14.1599998474121
1380.6133313,-11.0200004577637
1380.6289563,-7.55999994277954
1380.6445813,-4.15000009536743
1380.6602063,-1.30999994277954
1380.6758313,0.759999990463257
1380.6914563,2.5
1380.7070813,4.92000007629395
1380.7227063,9.34000015258789
1380.7383313,16.9400005340576
1380.7539563,28.0200004577637
1380.7695813,41.2200012207031
1380.7852063,53.6300010681152
1380.8008313,62.2999992370605
1380.8164563,65.6600036621094
1380.8320813,63.8699989318848
1380.8477063,58.2400016784668
1380.8633313,50.560001373291
1380.8789563,42.5400009155273
1380.8945813,35.310001373291
1380.9102063,28.9599990844727
1380.9258313,22.7000007629395
1380.9414563,15.7200002670288
1380.9570813,8.1899995803833
1380.9727063,1.36000001430511
1380.9883313,-3.19000005722046
1381.0039563,-4.71999979019165
1381.0195813,-3.74000000953674
1381.0352063,-1.69000005722046
1381.0508313,-0.200000002980232
1381.0664563,-0.419999986886978
1381.0820813,-2.72000002861023
1381.0977063,-6.76000022888184
1381.1133313,-11.8100004196167
1381.1289563,-17.1399993896484
1381.1445813,-22.1200008392334
1381.1602063,-26.2000007629395
1381.1758313,-29.0300006866455
1381.1914563,-30.6399993896484
1381.2070813,-31.5200004577637
1381.2227063,-32.2200012207031
1381.2383313,-32.7999992370605
1381.2539563,-32.5900001525879
1381.2695813,-30.8400001525879
1381.2852063,-27.4500007629395
1381.3008313,-23.2000007629395
1381.3164563,-19.2299995422363
1381.3320813,-16.4400005340576
1381.3477063,-15.1499996185303
1381.3633313,-15.1199998855591
1381.3789563,-15.6400003433228
1381.3945813,-15.8800001144409
