Time(s),Value(%)
0.0221867,-31.4799995422363
0.0378117,-30.8600006103516
0.0534367,-29.8600006103516
0.0690617,-28.1399993896484
0.0846867,-25.4500007629395
0.1003117,-21.8600006103516
0.1159367,-17.6399993896484
0.1315617,-13.1499996185303
0.1471867,-8.60999965667725
0.1628117,-4.19000005722046
0.1784367,-0.0900000035762787
0.1940617,3.40000009536743
0.2096867,6.03999996185303
0.2253117,7.78000020980835
0.2409367,8.77000045776367
0.2565617,9.22999954223633
0.2721867,9.35000038146973
0.2878117,9.27999973297119
0.3034367,9.14999961853027
0.3190617,9.03999996185303
0.3346867,8.98999977111816
0.3503117,8.98999977111816
0.3659367,9.02000045776367
0.3815617,9.03999996185303
0.3971867,8.97000026702881
0.4128117,8.6899995803833
0.4284367,8.07999992370605
0.4440617,7.11999988555908
0.4596867,5.88000011444092
0.4753117,4.42000007629395
0.4909367,2.77999997138977
0.5065617,1.00999999046326
0.5221867,-0.720000028610229
0.5378117,-2.24000000953674
0.5534367,-3.36999988555908
0.5690617,-4.1100001335144
0.5846867,-4.53000020980835
0.6003117,-4.69000005722046
0.6159367,-4.59999990463257
0.6315617,-4.28000020980835
0.6471867,-3.77999997138977
0.6628117,-3.13000011444092
0.6784367,-2.22000002861023
0.6940617,-0.689999997615814
0.7096867,1.79999995231628
0.7253117,5.34000015258789
0.7409367,9.64999961853027
0.7565617,14.3299999237061
0.7721867,19.0599994659424
0.7878117,23.5699996948242
0.8034367,27.5699996948242
0.8190617,30.6800003051758
0.8346867,32.6199989318848
0.8503117,33.4900016784668
0.8659367,33.6199989318848
0.8815617,33.4099998474121
0.8971867,33.0800018310547
0.9128117,32.689998626709
0.9284367,32.25
0.9440617,31.7299995422363
0.9596867,31.0599994659424
0.9753117,30.1000003814697
0.9909367,28.75
1.0065617,27.0
1.0221867,24.9300003051758
1.0378117,22.6299991607666
1.0534367,20.1900005340576
1.0690617,17.6700000762939
1.0846867,15.1899995803833
1.1003117,12.8699998855591
1.1159367,10.7600002288818
1.1315617,8.77000045776367
1.1471867,6.78000020980835
1.1628117,4.78999996185303
1.1784367,2.90000009536743
1.1940617,1.24000000953674
1.2096867,-0.129999995231628
1.2253117,-1.25
1.2409367,-2.07999992370605
1.2565617,-2.49000000953674
1.2721867,-2.30999994277954
1.2878117,-1.51999998092651
1.3034367,-0.150000005960464
1.3190617,1.80999994277954
1.3346867,4.38000011444092
1.3503117,7.44999980926514
1.3659367,10.7299995422363
1.3815617,13.8800001144409
1.3971867,16.6599998474121
1.4128117,19.1499996185303
1.4284367,21.4500007629395
1.4440617,23.5300006866455
1.4596867,25.1700000762939
1.4753117,26.2800006866455
1.4909367,27.0200004577637
1.5065617,27.4799995422363
1.5221867,27.7800006866455
1.5378117,27.8099994659424
1.5534367,27.4200000762939
1.5690617,26.5699996948242
1.5846867,25.3400001525879
1.6003117,23.8899993896484
1.6159367,22.3400001525879
1.6315617,20.7600002288818
1.6471867,19.2099990844727
1.6628117,17.6700000762939
1.6784367,16.0499992370605
1.6940617,14.1300001144409
1.7096867,11.6899995803833
1.7253117,8.69999980926514
1.7409367,5.26000022888184
1.7565617,1.47000002861023
1.7721867,-2.57999992370605
1.7878117,-6.78999996185303
1.8034367,-10.8900003433228
1.8190617,-14.539999961853
1.8346867,-17.4799995422363
1.8503117,-19.6800003051758
1.8659367,-21.2900009155273
1.8815617,-22.3999996185303
1.8971867,-23.0599994659424
1.9128117,-23.2999992370605
1.9284367,-23.2199993133545
1.9440617,-22.9200000762939
1.9596867,-22.3199996948242
1.9753117,-21.1000003814697
1.9909367,-18.9300003051758
2.0065617,-15.7399997711182
2.0221867,-11.7700004577637
2.0378117,-7.42000007629395
2.0534367,-3.02999997138977
2.0690617,1.13999998569489
2.0846867,4.84000015258789
2.1003117,7.71999979019165
2.1159367,9.48999977111816
2.1315617,10.1700000762939
2.1471867,10.0299997329712
2.1628117,9.42000007629395
2.1784367,8.59000015258789
2.1940617,7.71000003814697
2.2096867,6.82999992370605
2.2253117,5.98000001907349
2.2409367,5.07000017166138
2.2565617,3.97000002861023
2.2721867,2.54999995231628
2.2878117,0.779999971389771
2.3034367,-1.32000005245209
2.3190617,-3.75
2.3346867,-6.51999998092651
2.3503117,-9.56999969482422
2.3659367,-12.6599998474121
2.3815617,-15.5100002288818
2.3971867,-17.9799995422363
2.4128117,-20.1800003051758
2.4284367,-22.3700008392334
2.4440617,-24.5699996948242
2.4596867,-26.6200008392334
2.4753117,-28.2900009155273
2.4909367,-29.4099998474121
2.5065617,-30.1299991607666
2.5221867,-30.5499992370605
2.5378117,-30.75
2.5534367,-30.7199993133545
2.5690617,-30.4799995422363
2.5846867,-30.0
2.6003117,-29.2700004577637
2.6159367,-28.25
2.6315617,-26.9799995422363
2.6471867,-25.4599990844727
2.6628117,-23.6399993896484
2.6784367,-21.4699993133545
2.6940617,-18.9599990844727
2.7096867,-16.2700004577637
2.7253117,-13.6599998474121
2.7409367,-11.3699998855591
2.7565617,-9.48999977111816
2.7721867,-7.96999979019165
2.7878117,-6.69000005722046
2.8034367,-5.6100001335144
2.8190617,-4.8600001335144
2.8346867,-4.65000009536743
2.8503117,-5.03000020980835
2.8659367,-5.96000003814697
2.8815617,-7.3899998664856
2.8971867,-9.27000045776367
2.9128117,-11.4799995422363
2.9284367,-13.710000038147
2.9440617,-15.5799999237061
2.9596867,-16.9200000762939
2.9753117,-17.8899993896484
2.9909367,-18.8600006103516
3.0065617,-19.9500007629395
3.0221867,-21.0
3.0378117,-21.7700004577637
3.0534367,-22.1100006103516
3.0690617,-22.1000003814697
3.0846867,-22.1100006103516
3.1003117,-22.6900005340576
3.1159367,-24.3400001525879
3.1315617,-27.1299991607666
3.1471867,-30.8500003814697
3.1628117,-35.2400016784668
3.1784367,-40.1199989318848
3.1940617,-45.189998626709
3.2096867,-49.8300018310547
3.2253117,-53.0800018310547
3.2409367,-54.1500015258789
3.2565617,-53.0099983215332
3.2721867,-50.2200012207031
3.2878117,-46.4700012207031
3.3034367,-42.2000007629395
3.3190617,-37.6699981689453
3.3346867,-33.0200004577637
3.3503117,-28.3999996185303
3.3659367,-23.9899997711182
3.3815617,-19.9699993133545
3.3971867,-16.4699993133545
3.4128117,-13.5299997329712
3.4284367,-11.1499996185303
3.4440617,-9.40999984741211
3.4596867,-8.39000034332275
3.4753117,-8.02999973297119
3.4909367,-7.96000003814697
3.5065617,-7.65000009536743
3.5221867,-6.80000019073486
3.5378117,-5.53000020980835
3.5534367,-4.21000003814697
3.5690617,-3.00999999046326
3.5846867,-1.76999998092651
3.6003117,-0.25
3.6159367,1.62999999523163
3.6315617,3.78999996185303
3.6471867,5.96000003814697
3.6628117,7.80000019073486
3.6784367,9.0600004196167
3.6940617,9.69999980926514
3.7096867,9.71000003814697
3.7253117,9.0
3.7409367,7.46999979019165
3.7565617,5.21999979019165
3.7721867,2.78999996185303
3.7878117,1.00999999046326
3.8034367,0.509999990463257
3.8190617,1.27999997138977
3.8346867,2.85999989509583
3.8503117,4.90000009536743
3.8659367,7.3600001335144
3.8815617,10.3299999237061
3.8971867,13.8299999237061
3.9128117,17.7299995422363
3.9284367,21.8799991607666
3.9440617,26.2900009155273
3.9596867,31.0799999237061
3.9753117,36.3699989318848
3.9909367,42.0499992370605
4.0065617,47.8300018310547
4.0221867,53.3199996948242
4.0378117,58.2400016784668
4.0534367,62.5200004577637
4.0690617,66.25
4.0846867,69.5299987792969
4.1003117,72.4100036621094
4.1159367,74.8600006103516
4.1315617,76.870002746582
4.1471867,78.4700012207031
4.1628117,79.7099990844727
4.1784367,80.6500015258789
4.1940617,81.3300018310547
4.2096867,81.8099975585938
4.2253117,82.0800018310547
4.2409367,82.0699996948242
4.2565617,81.6699981689453
4.2721867,80.8000030517578
4.2878117,79.5299987792969
4.3034367,78.0199966430664
4.3190617,76.4599990844727
4.3346867,74.9599990844727
4.3503117,73.5199966430664
4.3659367,72.0100021362305
4.3815617,70.1800003051758
4.3971867,67.8099975585938
4.4128117,64.8600006103516
4.4284367,61.4500007629395
4.4440617,57.689998626709
4.4596867,53.7000007629395
4.4753117,49.6100006103516
4.4909367,45.5299987792969
4.5065617,42.0999984741211
4.5221867,39.7200012207031
4.5378117,38.5499992370605
4.5534367,38.4900016784668
4.5690617,39.2400016784668
4.5846867,40.439998626709
4.6003117,41.7900009155273
4.6159367,43.0400009155273
4.6315617,44.0699996948242
4.6471867,44.9599990844727
4.6628117,45.8800010681152
4.6784367,47.0499992370605
4.6940617,48.5299987792969
4.7096867,50.2099990844727
4.7253117,51.9199981689453
4.7409367,53.5099983215332
4.7565617,54.8600006103516
4.7721867,55.7999992370605
4.7878117,56.060001373291
4.8034367,55.4199981689453
4.8190617,53.9000015258789
4.8346867,51.75
4.8503117,49.2900009155273
4.8659367,46.75
4.8815617,44.2700004577637
4.8971867,41.8600006103516
4.9128117,39.4900016784668
4.9284367,37.0800018310547
4.9440617,34.5299987792969
4.9596867,31.7900009155273
4.9753117,28.8400001525879
4.9909367,25.7299995422363
5.0065617,22.5100002288818
5.0221867,19.1700000762939
5.0378117,15.7600002288818
5.0534367,12.3699998855591
5.0690617,9.10999965667725
5.0846867,6.03000020980835
5.1003117,3.0699999332428
5.1159367,0.119999997317791
5.1315617,-2.82999992370605
5.1471867,-5.71000003814697
5.1628117,-8.42000007629395
5.1784367,-10.9200000762939
5.1940617,-13.1800003051758
5.2096867,-15.1000003814697
5.2253117,-16.4200000762939
5.2409367,-16.8799991607666
5.2565617,-16.4500007629395
5.2721867,-15.2399997711182
5.2878117,-13.4200000762939
5.3034367,-11.1000003814697
5.3190617,-8.46000003814697
5.3346867,-5.82000017166138
5.3503117,-3.61999988555908
5.3659367,-2.14000010490417
5.3815617,-1.35000002384186
5.3971867,-1.02999997138977
5.4128117,-1.05999994277954
5.4284367,-1.51999998092651
5.4440617,-2.45000004768372
5.4596867,-3.80999994277954
5.4753117,-5.42999982833862
5.4909367,-7.17000007629395
5.5065617,-8.97999954223633
5.5221867,-10.8900003433228
5.5378117,-12.9200000762939
5.5534367,-15.0900001525879
5.5690617,-17.3899993896484
5.5846867,-19.7900009155273
5.6003117,-22.2700004577637
5.6159367,-24.7900009155273
5.6315617,-27.3600006103516
5.6471867,-30.0499992370605
5.6628117,-32.9500007629395
5.6784367,-36.0900001525879
5.6940617,-39.3400001525879
5.7096867,-42.4900016784668
5.7253117,-45.3600006103516
5.7409367,-47.9000015258789
5.7565617,-50.1500015258789
5.7721867,-52.2599983215332
5.7878117,-54.4300003051758
5.8034367,-56.8300018310547
5.8190617,-59.4599990844727
5.8346867,-62.1800003051758
5.8503117,-64.7699966430664
5.8659367,-67.0400009155273
5.8815617,-68.9000015258789
5.8971867,-70.2600021362305
5.9128117,-70.9899978637695
5.9284367,-70.8899993896484
5.9440617,-69.870002746582
5.9596867,-68.0299987792969
5.9753117,-65.6699981689453
5.9909367,-63.1100006103516
6.0065617,-60.5299987792969
6.0221867,-57.9300003051758
6.0378117,-55.2799987792969
6.0534367,-52.6500015258789
6.0690617,-50.2200012207031
6.0846867,-48.2599983215332
6.1003117,-46.9000015258789
6.1159367,-46.2000007629395
6.1315617,-46.0900001525879
6.1471867,-46.4500007629395
6.1628117,-47.1300010681152
6.1784367,-48.0999984741211
6.1940617,-49.4799995422363
6.2096867,-51.4300003051758
6.2253117,-53.9799995422363
6.2409367,-57.2099990844727
6.2565617,-61.5800018310547
6.2721867,-67.75
6.2878117,-76.120002746582
6.3034367,-86.3600006103516
6.3190617,-97.3300018310547
6.3346867,-107.639999389648
6.3503117,-116.339996337891
6.3659367,-123.139999389648
6.3815617,-128.279998779297
6.3971867,-132.029998779297
6.4128117,-134.429992675781
6.4284367,-135.350006103516
6.4440617,-134.830001831055
6.4596867,-133.199996948242
6.4753117,-130.940002441406
6.4909367,-128.389999389648
6.5065617,-125.639999389648
6.5221867,-122.580001831055
6.5378117,-119.110000610352
6.5534367,-115.23999786377
6.5690617,-111.040000915527
6.5846867,-106.650001525879
6.6003117,-102.110000610352
6.6159367,-97.2600021362305
6.6315617,-91.5699996948242
6.6471867,-84.4000015258789
6.6628117,-75.370002746582
6.6784367,-64.620002746582
6.6940617,-52.8400001525879
6.7096867,-40.9300003051758
6.7253117,-29.6100006103516
6.7409367,-19.2399997711182
6.7565617,-9.72000026702881
6.7721867,-0.509999990463257
6.7878117,9.25
6.8034367,20.3199996948242
6.8190617,32.8199996948242
6.8346867,46.4099998474121
6.8503117,60.6599998474121
6.8659367,75.2699966430664
6.8815617,89.8300018310547
6.8971867,103.459999084473
6.9128117,114.819999694824
6.9284367,122.870002746582
6.9440617,127.629997253418
6.9596867,129.929992675781
6.9753117,130.710006713867
6.9909367,130.509994506836
7.0065617,129.589996337891
7.0221867,128.110000610352
7.0378117,126.290000915527
7.0534367,124.349998474121
7.0690617,122.529998779297
7.0846867,120.98999786377
7.1003117,119.730003356934
7.1159367,118.620002746582
7.1315617,117.5
7.1471867,116.230003356934
7.1628117,114.790000915527
7.1784367,113.23999786377
7.1940617,111.769996643066
7.2096867,110.559997558594
7.2253117,109.699996948242
7.2409367,109.430000305176
7.2565617,110.230003356934
7.2721867,112.540000915527
7.2878117,116.290000915527
7.3034367,120.680000305176
7.3190617,124.48999786377
7.3346867,126.980003356934
7.3503117,128.449996948242
7.3659367,129.669998168945
7.3815617,130.919998168945
7.3971867,132.020004272461
7.4128117,132.940002441406
7.4284367,134.0
7.4440617,135.460006713867
7.4596867,136.919998168945
7.4753117,137.419998168945
7.4909367,135.820007324219
7.5065617,132.399993896484
7.5221867,127.790000915527
7.5378117,122.449996948242
7.5534367,116.419998168945
7.5690617,109.629997253418
7.5846867,102.180000305176
7.6003117,94.3899993896484
7.6159367,86.5999984741211
7.6315617,79.0899963378906
7.6471867,71.9599990844727
7.6628117,65.1999969482422
7.6784367,58.7999992370605
7.6940617,52.8300018310547
7.7096867,47.4000015258789
7.7253117,42.4799995422363
7.7409367,37.7200012207031
7.7565617,32.5400009155273
7.7721867,26.3500003814697
7.7878117,18.9699993133545
7.8034367,10.6300001144409
7.8190617,1.76999998092651
7.8346867,-7.23000001907349
7.8503117,-16.0699996948242
7.8659367,-24.5400009155273
7.8815617,-32.5400009155273
7.8971867,-39.9199981689453
7.9128117,-46.4799995422363
7.9284367,-52.0299987792969
7.9440617,-56.5499992370605
7.9596867,-60.0200004577637
7.9753117,-62.2999992370605
7.9909367,-63.2400016784668
8.0065617,-62.9500007629395
8.0221867,-61.9199981689453
8.0378117,-60.8600006103516
8.0534367,-60.2400016784668
8.0690617,-60.0800018310547
8.0846867,-60.2099990844727
8.1003117,-60.6800003051758
8.1159367,-61.7900009155273
8.1315617,-63.7099990844727
8.1471867,-66.3399963378906
8.1628117,-69.3099975585938
8.1784367,-72.1900024414063
8.1940617,-74.6500015258789
8.2096867,-76.5599975585938
8.2253117,-77.9499969482422
8.2409367,-78.9300003051758
8.2565617,-79.5100021362305
8.2721867,-79.6699981689453
8.2878117,-79.4599990844727
8.3034367,-79.129997253418
8.3190617,-79.1600036621094
8.3346867,-79.9199981689453
8.3503117,-81.4800033569336
8.3659367,-83.5599975585938
8.3815617,-85.870002746582
8.3971867,-88.2200012207031
8.4128117,-90.5299987792969
8.4284367,-92.75
8.4440617,-94.8399963378906
8.4596867,-96.7799987792969
8.4753117,-98.6100006103516
8.4909367,-99.620002746582
8.5065617,-100.470001220703
8.5221867,-101.069999694824
8.5378117,-101.319999694824
8.5534367,-101.220001220703
8.5690617,-100.830001831055
8.5846867,-100.23999786377
8.6003117,-99.5100021362305
8.6159367,-98.620002746582
8.6315617,-97.4199981689453
8.6471867,-95.7600021362305
8.6628117,-93.620002746582
8.6784367,-91.1800003051758
8.6940617,-88.7200012207031
8.7096867,-86.5
8.7253117,-84.6500015258789
8.7409367,-83.1900024414063
8.7565617,-82.3000030517578
8.7721867,-82.5800018310547
8.7878117,-85.0899963378906
8.8034367,-90.6100006103516
8.8190617,-98.9100036621094
8.8346867,-108.730003356934
8.8503117,-118.519996643066
8.8659367,-127.139999389648
8.8815617,-134.5
8.8971867,-142.539993286133
8.9128117,-155.169998168945
8.9284367,-175.970001220703
8.9440617,-205.399993896484
8.9596867,-240.360000610352
8.9753117,-276.0
8.9909367,-308.170013427734
9.0065617,-327.679992675781
9.0221867,-327.679992675781
9.0378117,-327.679992675781
9.0534367,-327.679992675781
9.0690617,-327.679992675781
9.0846867,-292.880004882813
9.1003117,-249.990005493164
9.1159367,-206.339996337891
9.1315617,-166.220001220703
9.1471867,-131.119995117188
9.1628117,-100.339996337891
9.1784367,-72.2799987792969
9.1940617,-45.6199989318848
9.2096867,-19.7900009155273
9.2253117,5.23000001907349
9.2409367,29.5200004577637
9.2565617,53.5800018310547
9.2721867,78.0
9.2878117,102.819999694824
9.3034367,126.830001831055
9.3190617,147.960006713867
9.3346867,164.770004272461
9.3503117,177.850006103516
9.3659367,189.119995117188
9.3815617,199.970001220703
9.3971867,210.529998779297
9.4128117,220.169998168945
9.4284367,228.309997558594
9.4440617,234.850006103516
9.4596867,240.119995117188
9.4753117,244.679992675781
9.4909367,245.080001831055
9.5065617,245.600006103516
9.5221867,246.490005493164
9.5378117,248.25
9.5534367,251.289993286133
9.5690617,255.429992675781
9.5846867,259.459991455078
9.6003117,261.519989013672
9.6159367,260.329986572266
9.6315617,256.239990234375
9.6471867,250.619995117188
9.6628117,244.559997558594
9.6784367,238.300003051758
9.6940617,231.619995117188
9.7096867,224.369995117188
9.7253117,216.660003662109
9.7409367,208.990005493164
9.7565617,202.020004272461
9.7721867,196.309997558594
9.7878117,191.990005493164
9.8034367,189.119995117188
9.8190617,188.009994506836
9.8346867,188.949996948242
9.8503117,191.669998168945
9.8659367,194.860000610352
9.8815617,196.679992675781
9.8971867,196.330001831055
9.9128117,195.119995117188
9.9284367,195.210006713867
9.9440617,197.429992675781
9.9596867,200.770004272461
9.9753117,203.479995727539
9.9909367,204.339996337891
10.0065617,203.009994506836
10.0221867,199.490005493164
10.0378117,193.470001220703
10.0534367,184.559997558594
10.0690617,172.929992675781
10.0846867,159.630004882813
10.1003117,146.169998168945
10.1159367,133.869995117188
10.1315617,123.209999084473
10.1471867,113.589996337891
10.1628117,103.690002441406
10.1784367,92.4000015258789
10.1940617,79.5699996948242
10.2096867,65.9300003051758
10.2253117,52.310001373291
10.2409367,39.2999992370605
10.2565617,27.3099994659424
10.2721867,16.5900001525879
10.2878117,7.07000017166138
10.3034367,-1.6599999666214
10.3190617,-10.2799997329712
10.3346867,-19.2399997711182
10.3503117,-28.4500007629395
10.3659367,-37.5400009155273
10.3815617,-46.3400001525879
10.3971867,-54.9700012207031
10.4128117,-63.6100006103516
10.4284367,-72.3099975585938
10.4440617,-80.9100036621094
10.4596867,-89.0899963378906
10.4753117,-96.5100021362305
10.4909367,-100.870002746582
10.5065617,-104.099998474121
10.5221867,-106.23999786377
10.5378117,-107.190002441406
10.5534367,-106.830001831055
10.5690617,-105.330001831055
10.5846867,-103.309997558594
10.6003117,-101.669998168945
10.6159367,-101.019996643066
10.6315617,-101.339996337891
10.6471867,-102.209999084473
10.6628117,-103.379997253418
10.6784367,-104.900001525879
10.6940617,-106.819999694824
10.7096867,-109.069999694824
10.7253117,-111.419998168945
10.7409367,-113.629997253418
10.7565617,-115.540000915527
10.7721867,-117.099998474121
10.7878117,-118.339996337891
10.8034367,-119.25
10.8190617,-119.730003356934
10.8346867,-119.669998168945
10.8503117,-119.080001831055
10.8659367,-118.209999084473
10.8815617,-117.440002441406
10.8971867,-117.040000915527
10.9128117,-116.940002441406
10.9284367,-116.870002746582
10.9440617,-116.650001525879
10.9596867,-116.290000915527
10.9753117,-115.900001525879
10.9909367,-115.529998779297
11.0065617,-115.139999389648
11.0221867,-114.449996948242
11.0378117,-112.940002441406
11.0534367,-110.190002441406
11.0690617,-106.129997253418
11.0846867,-100.940002441406
11.1003117,-94.8000030517578
11.1159367,-87.8300018310547
11.1315617,-80.3000030517578
11.1471867,-72.879997253418
11.1628117,-66.4899978637695
11.1784367,-61.8199996948242
11.1940617,-58.7400016784668
11.2096867,-56.6199989318848
11.2253117,-54.9799995422363
11.2409367,-53.7000007629395
11.2565617,-52.8499984741211
11.2721867,-52.439998626709
11.2878117,-52.3199996948242
11.3034367,-52.2799987792969
11.3190617,-52.1500015258789
11.3346867,-51.8400001525879
11.3503117,-51.3499984741211
11.3659367,-50.7299995422363
11.3815617,-50.0200004577637
11.3971867,-49.2400016784668
11.4128117,-48.4300003051758
11.4284367,-47.7599983215332
11.4440617,-47.5200004577637
11.4596867,-48.0200004577637
