Time(s),Value(μS)
1142.0024319,0.0020000000949949
1142.0180569,0.0020000000949949
1142.0336819,0.0020000000949949
1142.0493069,0.0020000000949949
1142.0649319,0.0020000000949949
1142.0805569,0.0020000000949949
1142.0961819,0.0020000000949949
1142.1118069,0.0020000000949949
1142.1274319,0.0020000000949949
1142.1430569,0.0020000000949949
1142.1586819,0.0020000000949949
1142.1743069,0.0020000000949949
1142.1899319,0.0020000000949949
1142.2055569,0.006000000052154
1142.2211819,0.0120000001043081
1142.2368069,0.0219999998807907
1142.2524319,0.0379999987781048
1142.2680569,0.0579999983310699
1142.2836819,0.0799999982118607
1142.2993069,0.103000000119209
1142.3149319,0.123000003397465
1142.3305569,0.136999994516373
1142.3461819,0.142000004649162
1142.3618069,0.138999998569489
1142.3774319,0.128000006079674
1142.3930569,0.112999998033047
1142.4086819,0.0970000028610229
1142.4243069,0.0820000022649765
1142.4399319,0.0689999982714653
1142.4555569,0.0579999983310699
1142.4711819,0.0480000004172325
1142.4868069,0.0399999991059303
1142.5024319,0.034000001847744
1142.5180569,0.028999999165535
1142.5336819,0.0240000002086163
1142.5493069,0.0199999995529652
1142.5649319,0.017000000923872
1142.5805569,0.0149999996647239
1142.5961819,0.0120000001043081
1142.6118069,0.0109999999403954
1142.6274319,0.0089999996125698
1142.6430569,0.0080000003799796
1142.6586819,0.0070000002160668
1142.6743069,0.006000000052154
1142.6899319,0.0049999998882412
1142.7055569,0.0049999998882412
1142.7211819,0.0040000001899898
1142.7368069,0.0040000001899898
1142.7524319,0.003000000026077
1142.7680569,0.003000000026077
1142.7836819,0.003000000026077
1142.7993069,0.003000000026077
1142.8149319,0.003000000026077
1142.8305569,0.0020000000949949
1142.8461819,0.0020000000949949
1142.8618069,0.0020000000949949
1142.8774319,0.0020000000949949
1142.8930569,0.0020000000949949
1142.9086819,0.0020000000949949
1142.9243069,0.0020000000949949
1142.9399319,0.0020000000949949
1142.9555569,0.0020000000949949
1142.9711819,0.0020000000949949
1142.9868069,0.0020000000949949
1143.0024319,0.0020000000949949
1143.0180569,0.0020000000949949
1143.0336819,0.0020000000949949
1143.0493069,0.0020000000949949
1143.0649319,0.0020000000949949
1143.0805569,0.0020000000949949
1143.0961819,0.0020000000949949
1143.1118069,0.0020000000949949
1143.1274319,0.0020000000949949
1143.1430569,0.0020000000949949
1143.1586819,0.0020000000949949
1143.1743069,0.0020000000949949
1143.1899319,0.0020000000949949
1143.2055569,0.0020000000949949
1143.2211819,0.0020000000949949
1143.2368069,0.0020000000949949
1143.2524319,0.0020000000949949
1143.2680569,0.0020000000949949
1143.2836819,0.0020000000949949
1143.2993069,0.0020000000949949
1143.3149319,0.0020000000949949
1143.3305569,0.0020000000949949
1143.3461819,0.0020000000949949
1143.3618069,0.0020000000949949
1143.3774319,0.0020000000949949
1143.3930569,0.0020000000949949
1143.4086819,0.0020000000949949
1143.4243069,0.0020000000949949
1143.4399319,0.0020000000949949
1143.4555569,0.0020000000949949
1143.4711819,0.0020000000949949
1143.4868069,0.0020000000949949
1143.5024319,0.0020000000949949
1143.5180569,0.0020000000949949
1143.5336819,0.0020000000949949
1143.5493069,0.0020000000949949
1143.5649319,0.0020000000949949
1143.5805569,0.0020000000949949
1143.5961819,0.0020000000949949
1143.6118069,0.0020000000949949
1143.6274319,0.0020000000949949
1143.6430569,0.0020000000949949
1143.6586819,0.0020000000949949
1143.6743069,0.0020000000949949
1143.6899319,0.0020000000949949
1143.7055569,0.0020000000949949
1143.7211819,0.0020000000949949
1143.7368069,0.0020000000949949
1143.7524319,0.0020000000949949
1143.7680569,0.0020000000949949
1143.7836819,0.0020000000949949
1143.7993069,0.0020000000949949
1143.8149319,0.0020000000949949
1143.8305569,0.0020000000949949
1143.8461819,0.0020000000949949
1143.8618069,0.0020000000949949
1143.8774319,0.0020000000949949
1143.8930569,0.0020000000949949
1143.9086819,0.0020000000949949
1143.9243069,0.0020000000949949
1143.9399319,0.0020000000949949
1143.9555569,0.0020000000949949
1143.9711819,0.0020000000949949
1143.9868069,0.0020000000949949
1144.0024319,0.0020000000949949
1144.0180569,0.0020000000949949
1144.0336819,0.0020000000949949
1144.0493069,0.0020000000949949
1144.0649319,0.0020000000949949
1144.0805569,0.0020000000949949
1144.0961819,0.0020000000949949
1144.1118069,0.0020000000949949
1144.1274319,0.0020000000949949
1144.1430569,0.0020000000949949
1144.1586819,0.0020000000949949
1144.1743069,0.0020000000949949
1144.1899319,0.0020000000949949
1144.2055569,0.0020000000949949
1144.2211819,0.0020000000949949
1144.2368069,0.0020000000949949
1144.2524319,0.0020000000949949
1144.2680569,0.0020000000949949
1144.2836819,0.0020000000949949
1144.2993069,0.0020000000949949
1144.3149319,0.0020000000949949
1144.3305569,0.0020000000949949
1144.3461819,0.0020000000949949
1144.3618069,0.0020000000949949
1144.3774319,0.0020000000949949
1144.3930569,0.0020000000949949
1144.4086819,0.0020000000949949
1144.4243069,0.0020000000949949
1144.4399319,0.0020000000949949
1144.4555569,0.0020000000949949
1144.4711819,0.0020000000949949
1144.4868069,0.0020000000949949
1144.5024319,0.0020000000949949
1144.5180569,0.0020000000949949
1144.5336819,0.0020000000949949
1144.5493069,0.0020000000949949
1144.5649319,0.0020000000949949
1144.5805569,0.0020000000949949
1144.5961819,0.0020000000949949
1144.6118069,0.0020000000949949
1144.6274319,0.0020000000949949
1144.6430569,0.0020000000949949
1144.6586819,0.0020000000949949
1144.6743069,0.0020000000949949
1144.6899319,0.0020000000949949
1144.7055569,0.0020000000949949
1144.7211819,0.0020000000949949
1144.7368069,0.0020000000949949
1144.7524319,0.0020000000949949
1144.7680569,0.0020000000949949
1144.7836819,0.0020000000949949
1144.7993069,0.0020000000949949
1144.8149319,0.0020000000949949
1144.8305569,0.0020000000949949
1144.8461819,0.0020000000949949
1144.8618069,0.0020000000949949
1144.8774319,0.0020000000949949
1144.8930569,0.0020000000949949
1144.9086819,0.0020000000949949
1144.9243069,0.0020000000949949
1144.9399319,0.0020000000949949
1144.9555569,0.0020000000949949
1144.9711819,0.0020000000949949
1144.9868069,0.0020000000949949
1145.0024319,0.0020000000949949
1145.0180569,0.0020000000949949
1145.0336819,0.0020000000949949
1145.0493069,0.0020000000949949
1145.0649319,0.0020000000949949
1145.0805569,0.0020000000949949
1145.0961819,0.0020000000949949
1145.1118069,0.0020000000949949
1145.1274319,0.0020000000949949
1145.1430569,0.0020000000949949
1145.1586819,0.0020000000949949
1145.1743069,0.0020000000949949
1145.1899319,0.0020000000949949
1145.2055569,0.0020000000949949
1145.2211819,0.0020000000949949
1145.2368069,0.0020000000949949
1145.2524319,0.0020000000949949
1145.2680569,0.0020000000949949
1145.2836819,0.0020000000949949
1145.2993069,0.0020000000949949
1145.3149319,0.0020000000949949
1145.3305569,0.0020000000949949
1145.3461819,0.0020000000949949
1145.3618069,0.0020000000949949
1145.3774319,0.0020000000949949
1145.3930569,0.0020000000949949
1145.4086819,0.0020000000949949
1145.4243069,0.0020000000949949
1145.4399319,0.0020000000949949
1145.4555569,0.0020000000949949
1145.4711819,0.0020000000949949
1145.4868069,0.0020000000949949
1145.5024319,0.0020000000949949
1145.5180569,0.0020000000949949
1145.5336819,0.0020000000949949
1145.5493069,0.0020000000949949
1145.5649319,0.0020000000949949
1145.5805569,0.0020000000949949
1145.5961819,0.0020000000949949
1145.6118069,0.0020000000949949
1145.6274319,0.0020000000949949
1145.6430569,0.0020000000949949
1145.6586819,0.0020000000949949
1145.6743069,0.0020000000949949
1145.6899319,0.0020000000949949
1145.7055569,0.0020000000949949
1145.7211819,0.0020000000949949
1145.7368069,0.0020000000949949
1145.7524319,0.0020000000949949
1145.7680569,0.0020000000949949
1145.7836819,0.0020000000949949
1145.7993069,0.0020000000949949
1145.8149319,0.0020000000949949
1145.8305569,0.0020000000949949
1145.8461819,0.0020000000949949
1145.8618069,0.0020000000949949
1145.8774319,0.0020000000949949
1145.8930569,0.0020000000949949
1145.9086819,0.0020000000949949
1145.9243069,0.0020000000949949
1145.9399319,0.0020000000949949
1145.9555569,0.0020000000949949
1145.9711819,0.0020000000949949
1145.9868069,0.0020000000949949
1146.0024319,0.0020000000949949
1146.0180569,0.0020000000949949
1146.0336819,0.0020000000949949
1146.0493069,0.0020000000949949
1146.0649319,0.0020000000949949
1146.0805569,0.0020000000949949
1146.0961819,0.0020000000949949
1146.1118069,0.0020000000949949
1146.1274319,0.0020000000949949
1146.1430569,0.0020000000949949
1146.1586819,0.0020000000949949
1146.1743069,0.0020000000949949
1146.1899319,0.0020000000949949
1146.2055569,0.0020000000949949
1146.2211819,0.0020000000949949
1146.2368069,0.0020000000949949
1146.2524319,0.0020000000949949
1146.2680569,0.0020000000949949
1146.2836819,0.0020000000949949
1146.2993069,0.0020000000949949
1146.3149319,0.0020000000949949
1146.3305569,0.0020000000949949
1146.3461819,0.0020000000949949
1146.3618069,0.0020000000949949
1146.3774319,0.0020000000949949
1146.3930569,0.0020000000949949
1146.4086819,0.0020000000949949
1146.4243069,0.0020000000949949
1146.4399319,0.0020000000949949
1146.4555569,0.0020000000949949
1146.4711819,0.0020000000949949
1146.4868069,0.0020000000949949
1146.5024319,0.0020000000949949
1146.5180569,0.0020000000949949
1146.5336819,0.0020000000949949
1146.5493069,0.0020000000949949
1146.5649319,0.0020000000949949
1146.5805569,0.0020000000949949
1146.5961819,0.0020000000949949
1146.6118069,0.0020000000949949
1146.6274319,0.0020000000949949
1146.6430569,0.0020000000949949
1146.6586819,0.0020000000949949
1146.6743069,0.0020000000949949
1146.6899319,0.0020000000949949
1146.7055569,0.0020000000949949
1146.7211819,0.0020000000949949
1146.7368069,0.0020000000949949
1146.7524319,0.0020000000949949
1146.7680569,0.0020000000949949
1146.7836819,0.0020000000949949
1146.7993069,0.0020000000949949
1146.8149319,0.0020000000949949
1146.8305569,0.0020000000949949
1146.8461819,0.0020000000949949
1146.8618069,0.0020000000949949
1146.8774319,0.0020000000949949
1146.8930569,0.0020000000949949
1146.9086819,0.0020000000949949
1146.9243069,0.0020000000949949
1146.9399319,0.0020000000949949
1146.9555569,0.0020000000949949
1146.9711819,0.0020000000949949
1146.9868069,0.0020000000949949
1147.0024319,0.0020000000949949
1147.0180569,0.0020000000949949
1147.0336819,0.0020000000949949
1147.0493069,0.0020000000949949
1147.0649319,0.0020000000949949
1147.0805569,0.0020000000949949
1147.0961819,0.0020000000949949
1147.1118069,0.0020000000949949
1147.1274319,0.0020000000949949
1147.1430569,0.0020000000949949
1147.1586819,0.0020000000949949
1147.1743069,0.0020000000949949
1147.1899319,0.0020000000949949
1147.2055569,0.0020000000949949
1147.2211819,0.0020000000949949
1147.2368069,0.0020000000949949
1147.2524319,0.0020000000949949
1147.2680569,0.0020000000949949
1147.2836819,0.0020000000949949
1147.2993069,0.0020000000949949
1147.3149319,0.0020000000949949
1147.3305569,0.0020000000949949
1147.3461819,0.0020000000949949
1147.3618069,0.0020000000949949
1147.3774319,0.0020000000949949
1147.3930569,0.0020000000949949
1147.4086819,0.0020000000949949
1147.4243069,0.0020000000949949
1147.4399319,0.0020000000949949
1147.4555569,0.0020000000949949
1147.4711819,0.0020000000949949
1147.4868069,0.0020000000949949
1147.5024319,0.0020000000949949
1147.5180569,0.0020000000949949
1147.5336819,0.0020000000949949
1147.5493069,0.0020000000949949
1147.5649319,0.0020000000949949
1147.5805569,0.0020000000949949
1147.5961819,0.0020000000949949
1147.6118069,0.0020000000949949
1147.6274319,0.0020000000949949
1147.6430569,0.0020000000949949
1147.6586819,0.0020000000949949
1147.6743069,0.0020000000949949
1147.6899319,0.0020000000949949
1147.7055569,0.0020000000949949
1147.7211819,0.0020000000949949
1147.7368069,0.0020000000949949
1147.7524319,0.0020000000949949
1147.7680569,0.0020000000949949
1147.7836819,0.0020000000949949
1147.7993069,0.0020000000949949
1147.8149319,0.0020000000949949
1147.8305569,0.0020000000949949
1147.8461819,0.0020000000949949
1147.8618069,0.0020000000949949
1147.8774319,0.0020000000949949
1147.8930569,0.0020000000949949
1147.9086819,0.0020000000949949
1147.9243069,0.0020000000949949
1147.9399319,0.0020000000949949
1147.9555569,0.0020000000949949
1147.9711819,0.0020000000949949
1147.9868069,0.0020000000949949
1148.0024319,0.0020000000949949
1148.0180569,0.0020000000949949
1148.0336819,0.0020000000949949
1148.0493069,0.0020000000949949
1148.0649319,0.0020000000949949
1148.0805569,0.0020000000949949
1148.0961819,0.0020000000949949
1148.1118069,0.0020000000949949
1148.1274319,0.0020000000949949
1148.1430569,0.0020000000949949
1148.1586819,0.0020000000949949
1148.1743069,0.0020000000949949
1148.1899319,0.0020000000949949
1148.2055569,0.0020000000949949
1148.2211819,0.0020000000949949
1148.2368069,0.0020000000949949
1148.2524319,0.0020000000949949
1148.2680569,0.0020000000949949
1148.2836819,0.0020000000949949
1148.2993069,0.0020000000949949
1148.3149319,0.0020000000949949
1148.3305569,0.0020000000949949
1148.3461819,0.0020000000949949
1148.3618069,0.0020000000949949
1148.3774319,0.0020000000949949
1148.3930569,0.0020000000949949
1148.4086819,0.0020000000949949
1148.4243069,0.0020000000949949
1148.4399319,0.0020000000949949
1148.4555569,0.0020000000949949
1148.4711819,0.0020000000949949
1148.4868069,0.0020000000949949
1148.5024319,0.0020000000949949
1148.5180569,0.0020000000949949
1148.5336819,0.0020000000949949
1148.5493069,0.0020000000949949
1148.5649319,0.0020000000949949
1148.5805569,0.0020000000949949
1148.5961819,0.0020000000949949
1148.6118069,0.0020000000949949
1148.6274319,0.0020000000949949
1148.6430569,0.0020000000949949
1148.6586819,0.0020000000949949
1148.6743069,0.0020000000949949
1148.6899319,0.0020000000949949
1148.7055569,0.0020000000949949
1148.7211819,0.0020000000949949
1148.7368069,0.0020000000949949
1148.7524319,0.0020000000949949
1148.7680569,0.0020000000949949
1148.7836819,0.0020000000949949
1148.7993069,0.0020000000949949
1148.8149319,0.0020000000949949
1148.8305569,0.0020000000949949
1148.8461819,0.0020000000949949
1148.8618069,0.0020000000949949
1148.8774319,0.0020000000949949
1148.8930569,0.0020000000949949
1148.9086819,0.0020000000949949
1148.9243069,0.0020000000949949
1148.9399319,0.0020000000949949
1148.9555569,0.0020000000949949
1148.9711819,0.0020000000949949
1148.9868069,0.0020000000949949
1149.0024319,0.0020000000949949
1149.0180569,0.0020000000949949
1149.0336819,0.0020000000949949
1149.0493069,0.0020000000949949
1149.0649319,0.0020000000949949
1149.0805569,0.0020000000949949
1149.0961819,0.0020000000949949
1149.1118069,0.0020000000949949
1149.1274319,0.0020000000949949
1149.1430569,0.0020000000949949
1149.1586819,0.0020000000949949
1149.1743069,0.0020000000949949
1149.1899319,0.0020000000949949
1149.2055569,0.0020000000949949
1149.2211819,0.0020000000949949
1149.2368069,0.0020000000949949
1149.2524319,0.0020000000949949
1149.2680569,0.0020000000949949
1149.2836819,0.0020000000949949
1149.2993069,0.0020000000949949
1149.3149319,0.0020000000949949
1149.3305569,0.0020000000949949
1149.3461819,0.0020000000949949
1149.3618069,0.0020000000949949
1149.3774319,0.0020000000949949
1149.3930569,0.0020000000949949
1149.4086819,0.0020000000949949
1149.4243069,0.0020000000949949
1149.4399319,0.0020000000949949
1149.4555569,0.0020000000949949
1149.4711819,0.0020000000949949
1149.4868069,0.0020000000949949
1149.5024319,0.0020000000949949
1149.5180569,0.0020000000949949
1149.5336819,0.0020000000949949
1149.5493069,0.0020000000949949
1149.5649319,0.0020000000949949
1149.5805569,0.0020000000949949
1149.5961819,0.0020000000949949
1149.6118069,0.0020000000949949
1149.6274319,0.0020000000949949
1149.6430569,0.0020000000949949
1149.6586819,0.0020000000949949
1149.6743069,0.0020000000949949
1149.6899319,0.0020000000949949
1149.7055569,0.0020000000949949
1149.7211819,0.0020000000949949
1149.7368069,0.0020000000949949
1149.7524319,0.0020000000949949
1149.7680569,0.0020000000949949
1149.7836819,0.0020000000949949
1149.7993069,0.0020000000949949
1149.8149319,0.0020000000949949
1149.8305569,0.0020000000949949
1149.8461819,0.0020000000949949
1149.8618069,0.0020000000949949
1149.8774319,0.0020000000949949
1149.8930569,0.0020000000949949
1149.9086819,0.0020000000949949
1149.9243069,0.0020000000949949
1149.9399319,0.0020000000949949
1149.9555569,0.0020000000949949
1149.9711819,0.0020000000949949
1149.9868069,0.0020000000949949
1150.0024319,0.0020000000949949
1150.0180569,0.0020000000949949
1150.0336819,0.0020000000949949
1150.0493069,0.0020000000949949
1150.0649319,0.0020000000949949
1150.0805569,0.0020000000949949
1150.0961819,0.0020000000949949
1150.1118069,0.0020000000949949
1150.1274319,0.0020000000949949
1150.1430569,0.0020000000949949
1150.1586819,0.0020000000949949
1150.1743069,0.0020000000949949
1150.1899319,0.0020000000949949
1150.2055569,0.0020000000949949
1150.2211819,0.0020000000949949
1150.2368069,0.0020000000949949
1150.2524319,0.0020000000949949
1150.2680569,0.0020000000949949
1150.2836819,0.0020000000949949
1150.2993069,0.0020000000949949
1150.3149319,0.0020000000949949
1150.3305569,0.0020000000949949
1150.3461819,0.0020000000949949
1150.3618069,0.0020000000949949
1150.3774319,0.0020000000949949
1150.3930569,0.0020000000949949
1150.4086819,0.0020000000949949
1150.4243069,0.0020000000949949
1150.4399319,0.0020000000949949
1150.4555569,0.0020000000949949
1150.4711819,0.0020000000949949
1150.4868069,0.0020000000949949
1150.5024319,0.0020000000949949
1150.5180569,0.0020000000949949
1150.5336819,0.0020000000949949
1150.5493069,0.0020000000949949
1150.5649319,0.0020000000949949
1150.5805569,0.0020000000949949
1150.5961819,0.0020000000949949
1150.6118069,0.0020000000949949
1150.6274319,0.0020000000949949
1150.6430569,0.0020000000949949
1150.6586819,0.0020000000949949
1150.6743069,0.0020000000949949
1150.6899319,0.0020000000949949
1150.7055569,0.0020000000949949
1150.7211819,0.0020000000949949
1150.7368069,0.0020000000949949
1150.7524319,0.0020000000949949
1150.7680569,0.0020000000949949
1150.7836819,0.0020000000949949
1150.7993069,0.0020000000949949
1150.8149319,0.0020000000949949
1150.8305569,0.0020000000949949
1150.8461819,0.0020000000949949
1150.8618069,0.0020000000949949
1150.8774319,0.0020000000949949
1150.8930569,0.0020000000949949
1150.9086819,0.0020000000949949
1150.9243069,0.0020000000949949
1150.9399319,0.0020000000949949
1150.9555569,0.0020000000949949
1150.9711819,0.0020000000949949
1150.9868069,0.0020000000949949
1151.0024319,0.0020000000949949
1151.0180569,0.0020000000949949
1151.0336819,0.0020000000949949
1151.0493069,0.0020000000949949
1151.0649319,0.0020000000949949
1151.0805569,0.0020000000949949
1151.0961819,0.0020000000949949
1151.1118069,0.0020000000949949
1151.1274319,0.0020000000949949
1151.1430569,0.0020000000949949
1151.1586819,0.0020000000949949
1151.1743069,0.0020000000949949
1151.1899319,0.0020000000949949
1151.2055569,0.0020000000949949
1151.2211819,0.0020000000949949
1151.2368069,0.0020000000949949
1151.2524319,0.0020000000949949
1151.2680569,0.0020000000949949
1151.2836819,0.0020000000949949
1151.2993069,0.0020000000949949
1151.3149319,0.0020000000949949
1151.3305569,0.0020000000949949
1151.3461819,0.0020000000949949
1151.3618069,0.0020000000949949
1151.3774319,0.0020000000949949
1151.3930569,0.0020000000949949
1151.4086819,0.0020000000949949
1151.4243069,0.0020000000949949
1151.4399319,0.0020000000949949
1151.4555569,0.0020000000949949
1151.4711819,0.0020000000949949
1151.4868069,0.0020000000949949
1151.5024319,0.0020000000949949
1151.5180569,0.0020000000949949
1151.5336819,0.0020000000949949
1151.5493069,0.0020000000949949
1151.5649319,0.0020000000949949
1151.5805569,0.0020000000949949
1151.5961819,0.0020000000949949
1151.6118069,0.0020000000949949
1151.6274319,0.0020000000949949
1151.6430569,0.0020000000949949
1151.6586819,0.0020000000949949
1151.6743069,0.0020000000949949
1151.6899319,0.0020000000949949
1151.7055569,0.0020000000949949
1151.7211819,0.0020000000949949
1151.7368069,0.0020000000949949
