Time(s),Value(%)
61.0024319,101.580001831055
61.0180569,102.949996948242
61.0336819,105.599998474121
61.0493069,109.769996643066
61.0649319,114.150001525879
61.0805569,116.269996643066
61.0961819,114.029998779297
61.1118069,107.110000610352
61.1274319,96.8399963378906
61.1430569,84.8899993896484
61.1586819,72.5299987792969
61.1743069,60.4700012207031
61.1899319,49.1100006103516
61.2055569,38.5299987792969
61.2211819,28.4500007629395
61.2368069,18.3999996185303
61.2524319,7.92000007629395
61.2680569,-3.03999996185303
61.2836819,-14.2700004577637
61.2993069,-25.4699993133545
61.3149319,-36.4500007629395
61.3305569,-47.1100006103516
61.3461819,-57.3499984741211
61.3618069,-67.0199966430664
61.3774319,-75.7200012207031
61.3930569,-82.7300033569336
61.4086819,-87.4400024414063
61.4243069,-89.6600036621094
61.4399319,-89.1900024414063
61.4555569,-85.379997253418
61.4711819,-77.5599975585938
61.4868069,-66.0400009155273
61.5024319,-52.5900001525879
61.5180569,-39.6199989318848
61.5336819,-28.5799999237061
61.5493069,-18.9400005340576
61.5649319,-9.48999977111816
61.5805569,-0.259999990463257
61.5961819,7.30000019073486
61.6118069,11.8500003814697
61.6274319,13.1499996185303
61.6430569,12.0799999237061
61.6586819,9.77999973297119
61.6743069,6.92999982833862
61.6899319,3.70000004768372
61.7055569,0.0299999993294477
61.7211819,-3.9300000667572
61.7368069,-7.80000019073486
61.7524319,-11.0900001525879
61.7680569,-13.6700000762939
61.7836819,-16.2099990844727
61.7993069,-20.0499992370605
61.8149319,-26.4699993133545
61.8305569,-35.7799987792969
61.8461819,-47.2299995422363
61.8618069,-59.6199989318848
61.8774319,-71.9100036621094
61.8930569,-83.4499969482422
61.9086819,-94.0299987792969
61.9243069,-103.720001220703
61.9399319,-112.800003051758
61.9555569,-121.699996948242
61.9711819,-130.779998779297
61.9868069,-140.070007324219
62.0024319,-149.360000610352
62.0180569,-158.369995117188
62.0336819,-166.899993896484
62.0493069,-174.779998779297
62.0649319,-181.779998779297
62.0805569,-187.5
62.0961819,-191.25
62.1118069,-192.270004272461
62.1274319,-190.080001831055
62.1430569,-184.800003051758
62.1586819,-176.789993286133
62.1743069,-166.080001831055
62.1899319,-152.600006103516
62.2055569,-136.839996337891
62.2211819,-120.220001220703
62.2368069,-104.690002441406
62.2524319,-91.6100006103516
62.2680569,-80.9800033569336
62.2836819,-72.120002746582
62.2993069,-64.8199996948242
62.3149319,-59.4799995422363
62.3305569,-56.4199981689453
62.3461819,-55.3199996948242
62.3618069,-55.3800010681152
62.3774319,-55.8899993896484
62.3930569,-56.6399993896484
62.4086819,-57.7999992370605
62.4243069,-59.5699996948242
62.4399319,-62.060001373291
62.4555569,-65.3300018310547
62.4711819,-69.4100036621094
62.4868069,-74.0899963378906
62.5024319,-79.1100006103516
62.5180569,-84.3000030517578
62.5336819,-89.6900024414063
62.5493069,-95.4300003051758
62.5649319,-101.440002441406
62.5805569,-107.180000305176
62.5961819,-111.889999389648
62.6118069,-115.110000610352
62.6274319,-116.879997253418
62.6430569,-117.809997558594
62.6586819,-119.559997558594
62.6743069,-123.98999786377
62.6899319,-133.990005493164
62.7055569,-149.710006713867
62.7211819,-169.589996337891
62.7368069,-191.649993896484
62.7524319,-214.339996337891
62.7680569,-236.309997558594
62.7836819,-255.520004272461
62.7993069,-268.959991455078
62.8149319,-274.149993896484
62.8305569,-270.760009765625
62.8461819,-260.549987792969
62.8618069,-245.889999389648
62.8774319,-228.75
62.8930569,-210.529998779297
62.9086819,-192.149993896484
62.9243069,-174.179992675781
62.9399319,-156.729995727539
62.9555569,-139.570007324219
62.9711819,-122.360000610352
62.9868069,-104.959999084473
63.0024319,-87.5100021362305
63.0180569,-70.3099975585938
63.0336819,-53.6100006103516
63.0493069,-37.6399993896484
63.0649319,-22.5699996948242
63.0805569,-8.81999969482422
63.0961819,2.74000000953674
63.1118069,10.8100004196167
63.1274319,14.4499998092651
63.1430569,13.9099998474121
63.1586819,10.6099996566772
63.1743069,6.44000005722046
63.1899319,2.90000009536743
63.2055569,0.400000005960464
63.2211819,-2.58999991416931
63.2368069,-9.4399995803833
63.2524319,-23.2800006866455
63.2680569,-44.9199981689453
63.2836819,-73.2799987792969
63.2993069,-107.139999389648
63.3149319,-145.630004882813
63.3305569,-186.860000610352
63.3461819,-226.330001831055
63.3618069,-257.649993896484
63.3774319,-277.029998779297
63.3930569,-286.869995117188
63.4086819,-293.130004882813
63.4243069,-299.609985351563
63.4399319,-305.920013427734
63.4555569,-309.609985351563
63.4711819,-308.940002441406
63.4868069,-303.5
63.5024319,-292.720001220703
63.5180569,-274.420013427734
63.5336819,-246.220001220703
63.5493069,-208.110000610352
63.5649319,-162.779998779297
63.5805569,-113.959999084473
63.5961819,-64.8000030517578
63.6118069,-17.25
63.6274319,27.7700004577637
63.6430569,70.2399978637695
63.6586819,111.220001220703
63.6743069,150.479995727539
63.6899319,190.520004272461
63.7055569,230.809997558594
63.7211819,269.269989013672
63.7368069,303.820007324219
63.7524319,327.670013427734
63.7680569,327.670013427734
63.7836819,327.670013427734
63.7993069,327.670013427734
63.8149319,327.670013427734
63.8305569,327.670013427734
63.8461819,327.670013427734
63.8618069,327.670013427734
63.8774319,327.670013427734
63.8930569,327.670013427734
63.9086819,327.670013427734
63.9243069,327.670013427734
63.9399319,327.670013427734
63.9555569,327.670013427734
63.9711819,327.670013427734
63.9868069,327.670013427734
64.0024319,327.670013427734
64.0180569,327.670013427734
64.0336819,327.670013427734
64.0493069,327.670013427734
64.0649319,327.670013427734
64.0805569,327.670013427734
64.0961819,327.670013427734
64.1118069,327.670013427734
64.1274319,327.670013427734
64.1430569,327.670013427734
64.1586819,327.670013427734
64.1743069,327.670013427734
64.1899319,327.670013427734
64.2055569,327.670013427734
64.2211819,324.440002441406
64.2368069,320.390014648438
64.2524319,317.070007324219
64.2680569,314.220001220703
64.2836819,311.279998779297
64.2993069,307.700012207031
64.3149319,303.25
64.3305569,297.950012207031
64.3461819,291.739990234375
64.3618069,284.25
64.3774319,275.059997558594
64.3930569,264.119995117188
64.4086819,251.809997558594
64.4243069,238.660003662109
64.4399319,225.119995117188
64.4555569,211.539993286133
64.4711819,198.270004272461
64.4868069,185.669998168945
64.5024319,173.830001831055
64.5180569,162.440002441406
64.5336819,151.050003051758
64.5493069,139.479995727539
64.5649319,127.779998779297
64.5805569,115.940002441406
64.5961819,103.839996337891
64.6118069,91.4599990844727
64.6274319,79.129997253418
64.6430569,67.4400024414063
64.6586819,56.7999992370605
64.6743069,46.3899993896484
64.6899319,36.7900009155273
64.7055569,27.7600002288818
64.7211819,19.3999996185303
64.7368069,11.8999996185303
64.7524319,5.26000022888184
64.7680569,-0.649999976158142
64.7836819,-6.05000019073486
64.7993069,-11.039999961853
64.8149319,-15.6199998855591
64.8305569,-19.7999992370605
64.8461819,-23.5900001525879
64.8618069,-26.9899997711182
64.8774319,-30.0100002288818
64.8930569,-32.689998626709
64.9086819,-35.0400009155273
64.9243069,-36.9700012207031
64.9399319,-38.3600006103516
64.9555569,-39.2200012207031
64.9711819,-39.7299995422363
64.9868069,-40.189998626709
65.0024319,-40.9199981689453
65.0180569,-42.0400009155273
65.0336819,-43.5
65.0493069,-45.189998626709
65.0649319,-47.0200004577637
65.0805569,-49.0699996948242
65.0961819,-51.4599990844727
65.1118069,-54.2599983215332
65.1274319,-57.4599990844727
65.1430569,-61.060001373291
65.1586819,-65.0500030517578
65.1743069,-69.3499984741211
65.1899319,-73.6800003051758
65.2055569,-77.7300033569336
65.2211819,-81.3000030517578
65.2368069,-84.4800033569336
65.2524319,-87.4700012207031
65.2680569,-90.3199996948242
65.2836819,-76.3899993896484
65.2993069,34.2200012207031
65.3149319,327.670013427734
65.3305569,327.670013427734
65.3461819,327.670013427734
65.3618069,327.670013427734
65.3774319,327.670013427734
65.3930569,327.670013427734
65.4086819,327.670013427734
65.4243069,327.670013427734
65.4399319,327.670013427734
65.4555569,327.670013427734
65.4711819,-327.679992675781
65.4868069,-327.679992675781
65.5024319,-327.679992675781
65.5180569,-327.679992675781
65.5336819,-327.679992675781
65.5493069,-327.679992675781
65.5649319,-327.679992675781
65.5805569,-327.679992675781
65.5961819,-327.679992675781
65.6118069,-327.679992675781
65.6274319,-327.679992675781
65.6430569,-327.679992675781
65.6586819,-327.679992675781
65.6743069,-327.679992675781
65.6899319,-327.679992675781
65.7055569,-327.679992675781
65.7211819,-327.679992675781
65.7368069,-327.679992675781
65.7524319,-327.679992675781
65.7680569,-327.679992675781
65.7836819,-327.679992675781
65.7993069,-327.679992675781
65.8149319,-327.679992675781
65.8305569,-327.679992675781
65.8461819,-327.679992675781
65.8618069,-327.679992675781
65.8774319,-327.679992675781
65.8930569,-327.679992675781
65.9086819,-327.679992675781
65.9243069,-327.679992675781
65.9399319,-327.679992675781
65.9555569,-327.679992675781
65.9711819,-327.679992675781
65.9868069,-327.679992675781
66.0024319,-327.679992675781
66.0180569,-327.679992675781
66.0336819,-327.679992675781
66.0493069,-321.790008544922
66.0649319,-301.619995117188
66.0805569,-280.920013427734
66.0961819,-259.799987792969
66.1118069,-238.440002441406
66.1274319,-216.949996948242
66.1430569,-195.479995727539
66.1586819,-174.240005493164
66.1743069,-153.429992675781
66.1899319,-133.029998779297
66.2055569,-112.720001220703
66.2211819,-92.1500015258789
66.2368069,-71.1999969482422
66.2524319,-50.0499992370605
66.2680569,-29.0
66.2836819,-8.27999973297119
66.2993069,11.8500003814697
66.3149319,31.0499992370605
66.3305569,48.7799987792969
66.3461819,64.5500030517578
66.3618069,78.120002746582
66.3774319,89.6100006103516
66.3930569,99.3399963378906
66.4086819,107.73999786377
66.4243069,115.26000213623
66.4399319,122.269996643066
66.4555569,129.0
66.4711819,135.509994506836
66.4868069,141.740005493164
66.5024319,147.580001831055
66.5180569,152.970001220703
66.5336819,157.830001831055
66.5493069,162.039993286133
66.5649319,165.520004272461
66.5805569,168.320007324219
66.5961819,170.729995727539
66.6118069,173.149993896484
66.6274319,175.839996337891
66.6430569,178.679992675781
66.6586819,181.320007324219
66.6743069,187.309997558594
66.6899319,192.679992675781
66.7055569,197.339996337891
66.7211819,201.119995117188
66.7368069,203.990005493164
66.7524319,206.240005493164
66.7680569,208.419998168945
66.7836819,211.089996337891
66.7993069,214.490005493164
66.8149319,218.600006103516
66.8305569,223.320007324219
66.8461819,228.580001831055
66.8618069,234.210006713867
66.8774319,239.919998168945
66.8930569,245.470001220703
66.9086819,251.009994506836
66.9243069,257.200012207031
66.9399319,264.820007324219
66.9555569,274.059997558594
66.9711819,284.459991455078
66.9868069,295.290008544922
67.0024319,305.899993896484
67.0180569,315.760009765625
67.0336819,324.239990234375
67.0493069,327.670013427734
67.0649319,327.670013427734
67.0805569,327.670013427734
67.0961819,327.670013427734
67.1118069,327.670013427734
67.1274319,326.029998779297
67.1430569,322.029998779297
67.1586819,317.739990234375
67.1743069,313.190002441406
67.1899319,308.450012207031
67.2055569,303.640014648438
67.2211819,298.890014648438
67.2368069,294.230010986328
67.2524319,289.619995117188
67.2680569,284.959991455078
67.2836819,280.170013427734
67.2993069,275.179992675781
67.3149319,269.850006103516
67.3305569,263.980010986328
67.3461819,257.440002441406
67.3618069,250.330001831055
67.3774319,242.940002441406
67.3930569,235.559997558594
67.4086819,228.330001831055
67.4243069,221.229995727539
67.4399319,214.190002441406
67.4555569,207.139999389648
67.4711819,200.210006713867
67.4868069,193.729995727539
67.5024319,188.020004272461
67.5180569,183.229995727539
67.5336819,179.580001831055
67.5493069,177.529998779297
67.5649319,177.550003051758
67.5805569,179.479995727539
67.5961819,182.350006103516
67.6118069,184.779998779297
67.6274319,185.899993896484
67.6430569,185.960006713867
67.6586819,185.610000610352
67.6743069,188.309997558594
67.6899319,189.600006103516
67.7055569,188.710006713867
67.7211819,185.529998779297
67.7368069,180.570007324219
67.7524319,174.559997558594
67.7680569,167.970001220703
67.7836819,160.970001220703
67.7993069,153.550003051758
67.8149319,145.889999389648
67.8305569,138.429992675781
67.8461819,131.660003662109
67.8618069,125.709999084473
67.8774319,119.980003356934
67.8930569,113.26000213623
67.9086819,104.529998779297
67.9243069,93.6399993896484
67.9399319,81.1900024414063
67.9555569,67.870002746582
67.9711819,54.1100006103516
67.9868069,40.1199989318848
68.0024319,26.0599994659424
68.0180569,12.1000003814697
68.0336819,-1.63999998569489
68.0493069,-15.1400003433228
68.0649319,-28.4300003051758
68.0805569,-41.4799995422363
68.0961819,-54.060001373291
68.1118069,-65.7099990844727
68.1274319,-76.0199966430664
68.1430569,-84.8899993896484
68.1586819,-92.6999969482422
68.1743069,-100.089996337891
68.1899319,-107.690002441406
68.2055569,-115.930000305176
68.2211819,-125.029998779297
68.2368069,-135.089996337891
68.2524319,-146.029998779297
68.2680569,-157.539993286133
68.2836819,-169.130004882813
68.2993069,-180.199996948242
68.3149319,-189.940002441406
68.3305569,-197.309997558594
68.3461819,-201.479995727539
68.3618069,-202.490005493164
68.3774319,-201.289993286133
68.3930569,-199.190002441406
68.4086819,-197.270004272461
68.4243069,-196.130004882813
68.4399319,-196.160003662109
68.4555569,-197.839996337891
68.4711819,-201.539993286133
68.4868069,-207.020004272461
68.5024319,-213.479995727539
68.5180569,-219.899993896484
68.5336819,-225.570007324219
68.5493069,-230.229995727539
68.5649319,-233.990005493164
68.5805569,-237.199996948242
68.5961819,-240.389999389648
68.6118069,-244.169998168945
68.6274319,-248.990005493164
68.6430569,-254.889999389648
68.6586819,-261.670013427734
68.6743069,-269.260009765625
68.6899319,-277.649993896484
68.7055569,-286.630004882813
68.7211819,-295.510009765625
68.7368069,-303.359985351563
68.7524319,-309.600006103516
68.7680569,-314.440002441406
68.7836819,-318.390014648438
68.7993069,-321.600006103516
68.8149319,-323.769989013672
68.8305569,-324.660003662109
68.8461819,-324.390014648438
68.8618069,-323.279998779297
68.8774319,-321.429992675781
68.8930569,-318.5
68.9086819,-313.720001220703
68.9243069,-306.350006103516
68.9399319,-296.079986572266
68.9555569,-283.329986572266
68.9711819,-269.049987792969
68.9868069,-254.330001831055
69.0024319,-240.029998779297
69.0180569,-226.539993286133
69.0336819,-213.779998779297
69.0493069,-201.350006103516
69.0649319,-188.880004882813
69.0805569,-176.199996948242
69.0961819,-163.419998168945
69.1118069,-150.800003051758
69.1274319,-138.570007324219
69.1430569,-126.940002441406
69.1586819,-116.330001831055
69.1743069,-107.48999786377
69.1899319,-101.150001525879
69.2055569,-97.5500030517578
69.2211819,-96.2099990844727
69.2368069,-96.1600036621094
69.2524319,-96.3899993896484
69.2680569,-96.1999969482422
69.2836819,-95.3300018310547
69.2993069,-93.8899993896484
69.3149319,-92.3199996948242
69.3305569,-91.1999969482422
69.3461819,-90.9499969482422
69.3618069,-91.6100006103516
69.3774319,-92.7900009155273
69.3930569,-93.9000015258789
69.4086819,-94.4499969482422
69.4243069,-94.1999969482422
69.4399319,-92.9300003051758
69.4555569,-90.2900009155273
69.4711819,-86.1900024414063
69.4868069,-81.0999984741211
69.5024319,-75.9499969482422
69.5180569,-71.5400009155273
69.5336819,-68.1500015258789
69.5493069,-65.5699996948242
69.5649319,-63.2799987792969
69.5805569,-60.8499984741211
69.5961819,-58.0299987792969
69.6118069,-54.810001373291
69.6274319,-51.3199996948242
69.6430569,-47.6500015258789
69.6586819,-43.6500015258789
69.6743069,-38.3699989318848
69.6899319,-31.9500007629395
69.7055569,-24.3299999237061
69.7211819,-15.7200002670288
69.7368069,-6.30000019073486
69.7524319,4.1100001335144
69.7680569,15.9799995422363
69.7836819,29.4200000762939
69.7993069,43.6399993896484
69.8149319,57.3199996948242
69.8305569,69.3899993896484
69.8461819,79.4599990844727
69.8618069,88.0100021362305
69.8774319,96.3300018310547
69.8930569,106.339996337891
69.9086819,119.540000915527
69.9243069,136.039993286133
69.9399319,154.570007324219
69.9555569,173.369995117188
69.9711819,191.009994506836
69.9868069,206.570007324219
70.0024319,218.979995727539
70.0180569,226.520004272461
70.0336819,227.699996948242
70.0493069,222.5
70.0649319,212.589996337891
70.0805569,200.440002441406
70.0961819,188.169998168945
70.1118069,177.009994506836
70.1274319,167.199996948242
70.1430569,158.399993896484
70.1586819,150.039993286133
70.1743069,141.589996337891
70.1899319,132.809997558594
70.2055569,123.75
70.2211819,114.610000610352
70.2368069,105.580001831055
70.2524319,96.7399978637695
70.2680569,88.1500015258789
70.2836819,80.0299987792969
70.2993069,72.7600021362305
70.3149319,66.9599990844727
70.3305569,63.3300018310547
70.3461819,62.25
70.3618069,63.5099983215332
70.3774319,66.379997253418
70.3930569,69.8600006103516
70.4086819,73.1600036621094
70.4243069,75.8499984741211
70.4399319,78.0100021362305
70.4555569,80.0299987792969
70.4711819,82.3399963378906
70.4868069,85.1600036621094
70.5024319,88.5299987792969
70.5180569,92.5500030517578
70.5336819,97.2699966430664
70.5493069,102.48999786377
70.5649319,107.410003662109
70.5805569,110.76000213623
70.5961819,111.400001525879
70.6118069,108.98999786377
70.6274319,104.019996643066
70.6430569,97.2900009155273
70.6586819,89.5400009155273
70.6743069,80.0400009155273
70.6899319,70.870002746582
70.7055569,62.2700004577637
70.7211819,54.2200012207031
70.7368069,46.4900016784668
70.7524319,38.8300018310547
70.7680569,31.1100006103516
70.7836819,23.2999992370605
70.7993069,15.3599996566772
70.8149319,7.23999977111816
70.8305569,-0.939999997615814
70.8461819,-8.85000038146973
70.8618069,-15.9499998092651
70.8774319,-21.7600002288818
70.8930569,-26.0699996948242
70.9086819,-28.8799991607666
70.9243069,-30.2700004577637
70.9399319,-30.1299991607666
70.9555569,-28.1399993896484
70.9711819,-24.0900001525879
70.9868069,-18.2800006866455
71.0024319,-11.5600004196167
71.0180569,-4.88000011444092
71.0336819,1.32000005245209
71.0493069,7.36999988555908
71.0649319,13.6800003051758
71.0805569,20.0400009155273
71.0961819,25.6599998474121
71.1118069,29.8199996948242
71.1274319,32.4000015258789
71.1430569,33.7400016784668
71.1586819,34.2999992370605
71.1743069,34.2599983215332
71.1899319,33.5499992370605
71.2055569,32.1100006103516
71.2211819,30.1000003814697
71.2368069,27.7700004577637
71.2524319,25.3899993896484
71.2680569,23.1100006103516
71.2836819,20.8199996948242
71.2993069,18.1700000762939
71.3149319,14.7200002670288
71.3305569,10.2299995422363
71.3461819,4.78000020980835
71.3618069,-1.19000005722046
71.3774319,-7.21000003814697
71.3930569,-12.8500003814697
71.4086819,-17.9400005340576
71.4243069,-22.5
71.4399319,-26.75
71.4555569,-30.9899997711182
71.4711819,-35.4300003051758
71.4868069,-40.1199989318848
71.5024319,-45.0200004577637
71.5180569,-50.060001373291
71.5336819,-55.2400016784668
71.5493069,-60.4500007629395
71.5649319,-65.379997253418
71.5805569,-69.4499969482422
71.5961819,-72.0
71.6118069,-72.4300003051758
71.6274319,-70.5199966430664
71.6430569,-66.4899978637695
71.6586819,-60.9900016784668
71.6743069,-53.9500007629395
71.6899319,-47.2299995422363
71.7055569,-41.1399993896484
71.7211819,-35.5400009155273
71.7368069,-29.8700008392334
71.7524319,-23.5699996948242
71.7680569,-16.4799995422363
71.7836819,-8.85999965667725
71.7993069,-1.12999999523163
71.8149319,6.34999990463257
71.8305569,13.3000001907349
71.8461819,19.2000007629395
71.8618069,23.2399997711182
71.8774319,24.7700004577637
71.8930569,23.8199996948242
71.9086819,21.0900001525879
71.9243069,17.5
71.9399319,13.8100004196167
71.9555569,10.4099998474121
71.9711819,7.40999984741211
71.9868069,4.71000003814697
72.0024319,2.09999990463257
72.0180569,-0.660000026226044
72.0336819,-3.77999997138977
72.0493069,-7.26999998092651
