Time(s),Value(%)
1675.010146,-33.2999992370605
1675.025771,-35.6699981689453
1675.041396,-38.0200004577637
1675.057021,-40.3199996948242
1675.072646,-42.5299987792969
1675.088271,-44.5400009155273
1675.103896,-46.1100006103516
1675.119521,-47.0200004577637
1675.135146,-47.2599983215332
1675.150771,-47.0200004577637
1675.166396,-46.5499992370605
1675.182021,-46.0800018310547
1675.197646,-45.75
1675.213271,-45.6300010681152
1675.228896,-45.75
1675.244521,-46.1300010681152
1675.260146,-46.7000007629395
1675.275771,-47.3699989318848
1675.291396,-48.0800018310547
1675.307021,-48.8400001525879
1675.322646,-49.4700012207031
1675.338271,-50.1599998474121
1675.353896,-50.8800010681152
1675.369521,-51.6399993896484
1675.385146,-52.4799995422363
1675.400771,-53.439998626709
1675.416396,-54.5499992370605
1675.432021,-55.8300018310547
1675.447646,-57.2200012207031
1675.463271,-58.6800003051758
1675.478896,-60.1399993896484
1675.494521,-61.560001373291
1675.510146,-62.9000015258789
1675.525771,-64.2099990844727
1675.541396,-65.5199966430664
1675.557021,-66.879997253418
1675.572646,-68.3199996948242
1675.588271,-69.8399963378906
1675.603896,-71.4599990844727
1675.619521,-73.2200012207031
1675.635146,-75.0800018310547
1675.650771,-76.9300003051758
1675.666396,-78.629997253418
1675.682021,-80.0699996948242
1675.697646,-81.3199996948242
1675.713271,-82.4800033569336
1675.728896,-83.6100006103516
1675.744521,-84.6399993896484
1675.760146,-85.4700012207031
1675.775771,-86.0899963378906
1675.791396,-86.4899978637695
1675.807021,-86.6399993896484
1675.822646,-86.4199981689453
1675.838271,-85.6999969482422
1675.853896,-84.4499969482422
1675.869521,-82.7600021362305
1675.885146,-80.7200012207031
1675.900771,-78.4000015258789
1675.916396,-75.9100036621094
1675.932021,-73.4000015258789
1675.947646,-71.0500030517578
1675.963271,-68.9800033569336
1675.978896,-67.1500015258789
1675.994521,-65.4700012207031
1676.010146,-63.939998626709
1676.025771,-62.6100006103516
1676.041396,-61.5499992370605
1676.057021,-60.7200012207031
1676.072646,-60.060001373291
1676.088271,-59.439998626709
1676.103896,-58.7900009155273
1676.119521,-58.0999984741211
1676.135146,-57.3499984741211
1676.150771,-56.5699996948242
1676.166396,-55.7599983215332
1676.182021,-54.8899993896484
1676.197646,-53.9700012207031
1676.213271,-53.060001373291
1676.228896,-52.2700004577637
1676.244521,-51.7000007629395
1676.260146,-51.3499984741211
1676.275771,-51.1699981689453
1676.291396,-51.0699996948242
1676.307021,-50.9900016784668
1676.322646,-50.8800010681152
1676.338271,-50.7299995422363
1676.353896,-50.5400009155273
1676.369521,-50.3199996948242
1676.385146,-50.1300010681152
1676.400771,-49.9900016784668
1676.416396,-49.9300003051758
1676.432021,-49.9099998474121
1676.447646,-49.9500007629395
1676.463271,-50.0400009155273
1676.478896,-50.1500015258789
1676.494521,-50.2299995422363
1676.510146,-50.2099990844727
1676.525771,-49.9599990844727
1676.541396,-49.3800010681152
1676.557021,-48.3800010681152
1676.572646,-46.9500007629395
1676.588271,-45.0900001525879
1676.603896,-42.75
1676.619521,-39.9300003051758
1676.635146,-36.7099990844727
1676.650771,-33.3300018310547
1676.666396,-30.0900001525879
1676.682021,-27.1800003051758
1676.697646,-24.5300006866455
1676.713271,-22.0100002288818
1676.728896,-19.6100006103516
1676.744521,-17.4599990844727
1676.760146,-15.6899995803833
1676.775771,-14.3100004196167
1676.791396,-13.210000038147
1676.807021,-12.2399997711182
1676.822646,-11.3299999237061
1676.838271,-10.4700002670288
1676.853896,-9.64999961853027
1676.869521,-8.85000038146973
1676.885146,-7.96000003814697
1676.900771,-6.90000009536743
1676.916396,-5.65000009536743
1676.932021,-4.32000017166138
1676.947646,-3.13000011444092
1676.963271,-2.25999999046326
1676.978896,-1.77999997138977
1676.994521,-1.62000000476837
1677.010146,-1.70000004768372
1677.025771,-1.94000005722046
1677.041396,-2.28999996185303
1677.057021,-2.69000005722046
1677.072646,-3.07999992370605
1677.088271,-3.4300000667572
1677.103896,-3.75999999046326
1677.119521,-4.07999992370605
1677.135146,-4.40999984741211
1677.150771,-4.78999996185303
1677.166396,-5.23999977111816
1677.182021,-5.78999996185303
1677.197646,-6.44000005722046
1677.213271,-7.1100001335144
1677.228896,-7.73000001907349
1677.244521,-8.21000003814697
1677.260146,-8.5
1677.275771,-8.57999992370605
1677.291396,-8.39999961853027
1677.307021,-7.96999979019165
1677.322646,-7.34000015258789
1677.338271,-6.57000017166138
1677.353896,-5.73000001907349
1677.369521,-4.76999998092651
1677.385146,-3.50999999046326
1677.400771,-1.75
1677.416396,0.560000002384186
1677.432021,3.36999988555908
1677.447646,6.57999992370605
1677.463271,10.1499996185303
1677.478896,13.9399995803833
1677.494521,17.6599998474121
1677.510146,20.9300003051758
1677.525771,23.4400005340576
1677.541396,25.2000007629395
1677.557021,26.4300003051758
1677.572646,27.2800006866455
1677.588271,27.8099994659424
1677.603896,28.0100002288818
1677.619521,27.9300003051758
1677.635146,27.6800003051758
1677.650771,27.3799991607666
1677.666396,27.0900001525879
1677.682021,26.8299999237061
1677.697646,26.6000003814697
1677.713271,26.3799991607666
1677.728896,26.1599998474121
1677.744521,25.9699993133545
1677.760146,25.7900009155273
1677.775771,25.5799999237061
1677.791396,25.2299995422363
1677.807021,24.6299991607666
1677.822646,23.7000007629395
1677.838271,22.4899997711182
1677.853896,21.1000003814697
1677.869521,19.6700000762939
1677.885146,18.2999992370605
1677.900771,17.0400009155273
1677.916396,15.8999996185303
1677.932021,14.8199996948242
1677.947646,13.6899995803833
1677.963271,12.4099998474121
1677.978896,10.9700002670288
1677.994521,9.40999984741211
1678.010146,7.76999998092651
1678.025771,6.09000015258789
1678.041396,4.42999982833862
1678.057021,2.89000010490417
1678.072646,1.63999998569489
1678.088271,0.879999995231628
1678.103896,0.720000028610229
1678.119521,1.16999995708466
1678.135146,2.13000011444092
1678.150771,3.42000007629395
1678.166396,4.86999988555908
1678.182021,6.32000017166138
1678.197646,7.69000005722046
1678.213271,9.05000019073486
1678.228896,10.6300001144409
1678.244521,12.6099996566772
1678.260146,15.0600004196167
1678.275771,17.8999996185303
1678.291396,21.0200004577637
1678.307021,24.3199996948242
1678.322646,27.7700004577637
1678.338271,31.0300006866455
1678.353896,33.7000007629395
1678.369521,35.4599990844727
1678.385146,36.2700004577637
1678.400771,36.3499984741211
1678.416396,35.9799995422363
1678.432021,35.3199996948242
1678.447646,34.4799995422363
1678.463271,33.5099983215332
1678.478896,32.5
1678.494521,31.4799995422363
1678.510146,30.5
1678.525771,29.5400009155273
1678.541396,28.6000003814697
1678.557021,27.6599998474121
1678.572646,26.6599998474121
1678.588271,25.5799999237061
1678.603896,24.4099998474121
1678.619521,23.1599998474121
1678.635146,21.8400001525879
1678.650771,20.4099998474121
1678.666396,18.7999992370605
1678.682021,17.0
1678.697646,15.0600004196167
1678.713271,13.1099996566772
1678.728896,11.1700000762939
1678.744521,9.22999954223633
1678.760146,7.28000020980835
1678.775771,5.3600001335144
1678.791396,3.60999989509583
1678.807021,2.13000011444092
1678.822646,0.899999976158142
1678.838271,-0.170000001788139
1678.853896,-1.12000000476837
1678.869521,-1.91999995708466
1678.885146,-2.53999996185303
1678.900771,-2.97000002861023
1678.916396,-3.23000001907349
1678.932021,-3.23000001907349
1678.947646,-2.73000001907349
1678.963271,-1.5
1678.978896,0.5
1678.994521,3.13000011444092
1679.010146,6.17999982833862
1679.025771,9.44999980926514
1679.041396,12.8000001907349
1679.057021,15.960000038147
1679.072646,18.6200008392334
1679.088271,20.5799999237061
1679.103896,21.8899993896484
1679.119521,22.7700004577637
1679.135146,23.3899993896484
1679.150771,23.7800006866455
1679.166396,23.9200000762939
1679.182021,23.8199996948242
1679.197646,23.5599994659424
1679.213271,23.2600002288818
1679.228896,23.0400009155273
1679.244521,22.9899997711182
1679.260146,23.1100006103516
1679.275771,23.3299999237061
1679.291396,23.5300006866455
1679.307021,23.6299991607666
1679.322646,23.5900001525879
1679.338271,23.3199996948242
1679.353896,22.7099990844727
1679.369521,21.6399993896484
1679.385146,20.1100006103516
1679.400771,18.25
1679.416396,16.2900009155273
1679.432021,14.4099998474121
1679.447646,12.7399997711182
1679.463271,11.2600002288818
1679.478896,9.92000007629395
1679.494521,8.60000038146973
1679.510146,7.15999984741211
1679.525771,5.5
1679.541396,3.60999989509583
1679.557021,1.55999994277954
1679.572646,-0.600000023841858
1679.588271,-2.86999988555908
1679.603896,-5.17000007629395
1679.619521,-7.40000009536743
1679.635146,-9.36999988555908
1679.650771,-10.9300003051758
1679.666396,-12.1000003814697
1679.682021,-12.9300003051758
1679.697646,-13.5299997329712
1679.713271,-13.9099998474121
1679.728896,-14.1000003814697
1679.744521,-14.1300001144409
1679.760146,-14.0299997329712
1679.775771,-13.6700000762939
1679.791396,-12.710000038147
1679.807021,-10.8299999237061
1679.822646,-7.98000001907349
1679.838271,-4.32999992370605
1679.853896,-0.159999996423721
1679.869521,4.32000017166138
1679.885146,8.89999961853027
1679.900771,13.2299995422363
1679.916396,16.8099994659424
1679.932021,19.3099994659424
1679.947646,20.7600002288818
1679.963271,21.4599990844727
1679.978896,21.6900005340576
1679.994521,21.5599994659424
1680.010146,21.1100006103516
1680.025771,20.3899993896484
1680.041396,19.5
1680.057021,18.5499992370605
1680.072646,17.6200008392334
1680.088271,16.7299995422363
1680.103896,15.8900003433228
1680.119521,15.0600004196167
1680.135146,14.2600002288818
1680.150771,13.4899997711182
1680.166396,12.7399997711182
1680.182021,11.9499998092651
1680.197646,10.9899997711182
1680.213271,9.71000003814697
1680.228896,8.05000019073486
1680.244521,6.03000020980835
1680.260146,3.77999997138977
1680.275771,1.48000001907349
1680.291396,-0.720000028610229
1680.307021,-2.77999997138977
1680.322646,-4.67999982833862
1680.338271,-6.5
1680.353896,-8.36999988555908
1680.369521,-10.4099998474121
1680.385146,-12.6700000762939
1680.400771,-15.0699996948242
1680.416396,-17.5900001525879
1680.432021,-20.1599998474121
1680.447646,-22.7299995422363
1680.463271,-25.1499996185303
1680.478896,-27.1599998474121
1680.494521,-28.5699996948242
1680.510146,-29.3099994659424
1680.525771,-29.4699993133545
1680.541396,-29.1800003051758
1680.557021,-28.5799999237061
1680.572646,-27.7900009155273
1680.588271,-26.9200000762939
1680.603896,-26.0
1680.619521,-24.9400005340576
1680.635146,-23.4200000762939
1680.650771,-21.1700000762939
1680.666396,-18.1200008392334
1680.682021,-14.3999996185303
1680.697646,-10.1599998474121
1680.713271,-5.51999998092651
1680.728896,-0.670000016689301
1680.744521,4.01000022888184
1680.760146,8.02000045776367
1680.775771,10.960000038147
1680.791396,12.8000001907349
1680.807021,13.8199996948242
1680.822646,14.2600002288818
1680.838271,14.2200002670288
1680.853896,13.7799997329712
1680.869521,13.0200004577637
1680.885146,12.1000003814697
1680.900771,11.1400003433228
1680.916396,10.2200002670288
1680.932021,9.35000038146973
1680.947646,8.5
1680.963271,7.63000011444092
1680.978896,6.69999980926514
1680.994521,5.67999982833862
1681.010146,4.57999992370605
1681.025771,3.40000009536743
1681.041396,2.09999990463257
1681.057021,0.610000014305115
1681.072646,-1.11000001430511
1681.088271,-3.02999997138977
1681.103896,-5.03999996185303
1681.119521,-7.03000020980835
1681.135146,-9.01000022888184
1681.150771,-11.039999961853
1681.166396,-13.1800003051758
1681.182021,-15.3599996566772
1681.197646,-17.4400005340576
1681.213271,-19.3299999237061
1681.228896,-21.0599994659424
1681.244521,-22.7199993133545
1681.260146,-24.2999992370605
1681.275771,-25.7000007629395
1681.291396,-26.7900009155273
1681.307021,-27.5499992370605
1681.322646,-28.0400009155273
1681.338271,-28.2999992370605
1681.353896,-28.2800006866455
1681.369521,-27.8999996185303
1681.385146,-27.1299991607666
1681.400771,-25.9200000762939
1681.416396,-24.1800003051758
1681.432021,-21.8099994659424
1681.447646,-18.8700008392334
1681.463271,-15.5799999237061
1681.478896,-12.2200002670288
1681.494521,-8.90999984741211
1681.510146,-5.53999996185303
1681.525771,-2.0
1681.541396,1.54999995231628
1681.557021,4.76999998092651
1681.572646,7.36999988555908
1681.588271,9.28999996185303
1681.603896,10.6899995803833
1681.619521,11.8299999237061
1681.635146,12.8599996566772
1681.650771,13.8599996566772
1681.666396,14.8100004196167
1681.682021,15.710000038147
1681.697646,16.6000003814697
1681.713271,17.5400009155273
1681.728896,18.5400009155273
1681.744521,19.4500007629395
1681.760146,19.9799995422363
1681.775771,19.8999996185303
1681.791396,19.1700000762939
1681.807021,17.9599990844727
1681.822646,16.5300006866455
1681.838271,15.0299997329712
1681.853896,13.5699996948242
1681.869521,12.1700000762939
1681.885146,10.8100004196167
1681.900771,9.40999984741211
1681.916396,7.78000020980835
1681.932021,5.78000020980835
1681.947646,3.39000010490417
1681.963271,0.699999988079071
1681.978896,-2.19000005722046
1681.994521,-5.19999980926514
1682.010146,-8.23999977111816
1682.025771,-11.1400003433228
1682.041396,-13.6899995803833
1682.057021,-15.7700004577637
1682.072646,-17.4599990844727
1682.088271,-18.9400005340576
1682.103896,-20.3099994659424
1682.119521,-21.5300006866455
1682.135146,-22.5300006866455
1682.150771,-23.2700004577637
1682.166396,-23.75
1682.182021,-23.8799991607666
1682.197646,-23.4300003051758
1682.213271,-22.1399993896484
1682.228896,-19.9899997711182
1682.244521,-17.1700000762939
1682.260146,-13.9300003051758
1682.275771,-10.5200004577637
1682.291396,-7.09999990463257
1682.307021,-3.89000010490417
1682.322646,-1.14999997615814
1682.338271,0.990000009536743
1682.353896,2.64000010490417
1682.369521,4.03000020980835
1682.385146,5.30999994277954
1682.400771,6.48000001907349
1682.416396,7.46000003814697
1682.432021,8.22000026702881
1682.447646,8.80000019073486
1682.463271,9.27000045776367
1682.478896,9.75
1682.494521,10.3100004196167
1682.510146,10.9700002670288
1682.525771,11.6800003051758
1682.541396,12.3699998855591
1682.557021,12.9899997711182
1682.572646,13.5100002288818
1682.588271,13.8400001525879
1682.603896,13.8199996948242
1682.619521,13.289999961853
1682.635146,12.1599998474121
1682.650771,10.5200004577637
1682.666396,8.57999992370605
1682.682021,6.57999992370605
1682.697646,4.71999979019165
1682.713271,3.04999995231628
1682.728896,1.58000004291534
1682.744521,0.200000002980232
1682.760146,-1.25
1682.775771,-2.90000009536743
1682.791396,-4.76000022888184
1682.807021,-6.76999998092651
1682.822646,-8.85000038146973
1682.838271,-10.9399995803833
1682.853896,-12.9799995422363
1682.869521,-14.8299999237061
1682.885146,-16.2600002288818
1682.900771,-17.0
1682.916396,-16.8299999237061
1682.932021,-15.7200002670288
1682.947646,-13.8199996948242
1682.963271,-11.4200000762939
1682.978896,-8.85000038146973
1682.994521,-6.3899998664856
1683.010146,-4.13000011444092
1683.025771,-1.98000001907349
1683.041396,0.319999992847443
1683.057021,3.04999995231628
1683.072646,6.28000020980835
1683.088271,9.93000030517578
1683.103896,13.8800001144409
1683.119521,18.0300006866455
1683.135146,22.2199993133545
1683.150771,26.1100006103516
1683.166396,29.1700000762939
1683.182021,31.0100002288818
1683.197646,31.6399993896484
1683.213271,31.4500007629395
1683.228896,30.8299999237061
1683.244521,29.9899997711182
1683.260146,29.0200004577637
1683.275771,27.9400005340576
1683.291396,26.7600002288818
1683.307021,25.4699993133545
1683.322646,23.9799995422363
1683.338271,22.2199993133545
1683.353896,20.2099990844727
1683.369521,18.0100002288818
1683.385146,15.7299995422363
1683.400771,13.460000038147
1683.416396,11.25
1683.432021,9.14000034332275
1683.447646,7.13000011444092
1683.463271,5.19999980926514
1683.478896,3.30999994277954
1683.494521,1.44000005722046
1683.510146,-0.370000004768372
1683.525771,-2.07999992370605
1683.541396,-3.63000011444092
1683.557021,-5.0
1683.572646,-6.23999977111816
1683.588271,-7.40000009536743
1683.603896,-8.59000015258789
1683.619521,-9.85999965667725
1683.635146,-11.1899995803833
1683.650771,-12.3800001144409
1683.666396,-13.0500001907349
1683.682021,-12.8699998855591
1683.697646,-11.7799997329712
1683.713271,-10.0
1683.728896,-7.78000020980835
1683.744521,-5.17000007629395
1683.760146,-1.92999994754791
1683.775771,2.09999990463257
1683.791396,6.69000005722046
1683.807021,11.3900003433228
1683.822646,16.0
1683.838271,20.6399993896484
1683.853896,25.4400005340576
1683.869521,30.1900005340576
1683.885146,34.2799987792969
1683.900771,37.1699981689453
1683.916396,38.8499984741211
1683.932021,39.6199989318848
1683.947646,39.7400016784668
1683.963271,39.2099990844727
1683.978896,38.0299987792969
1683.994521,36.2799987792969
1684.010146,34.2200012207031
1684.025771,32.0900001525879
1684.041396,30.0799999237061
1684.057021,28.2700004577637
1684.072646,26.6299991607666
1684.088271,25.1499996185303
1684.103896,23.8299999237061
1684.119521,22.7199993133545
1684.135146,21.7999992370605
1684.150771,20.8799991607666
1684.166396,19.6200008392334
1684.182021,17.6800003051758
1684.197646,14.9700002670288
1684.213271,11.6400003433228
1684.228896,7.96000003814697
1684.244521,4.15000009536743
1684.260146,0.400000005960464
1684.275771,-3.19000005722046
1684.291396,-6.59000015258789
1684.307021,-9.80000019073486
1684.322646,-12.8699998855591
1684.338271,-15.8500003814697
1684.353896,-18.7600002288818
1684.369521,-21.5900001525879
1684.385146,-24.3199996948242
1684.400771,-26.9400005340576
1684.416396,-29.4400005340576
1684.432021,-31.7700004577637
1684.447646,-33.8199996948242
1684.463271,-35.3499984741211
1684.478896,-35.9599990844727
1684.494521,-35.3499984741211
1684.510146,-33.5299987792969
1684.525771,-30.8600006103516
1684.541396,-27.8799991607666
1684.557021,-25.0200004577637
1684.572646,-22.4799995422363
1684.588271,-20.0699996948242
1684.603896,-17.2700004577637
1684.619521,-13.5900001525879
1684.635146,-8.85999965667725
1684.650771,-3.24000000953674
1684.666396,3.05999994277954
1684.682021,9.90999984741211
1684.697646,16.9899997711182
1684.713271,23.6000003814697
1684.728896,28.6499996185303
1684.744521,31.3199996948242
1684.760146,31.6299991607666
1684.775771,30.3199996948242
1684.791396,28.1499996185303
1684.807021,25.5699996948242
1684.822646,22.7600002288818
1684.838271,19.7800006866455
1684.853896,16.7099990844727
1684.869521,13.6300001144409
1684.885146,10.5799999237061
1684.900771,7.57999992370605
1684.916396,4.6100001335144
1684.932021,1.72000002861023
1684.947646,-1.07000005245209
1684.963271,-3.75
1684.978896,-6.28999996185303
1684.994521,-8.78999996185303
1685.010146,-11.4499998092651
1685.025771,-14.460000038147
1685.041396,-17.8799991607666
1685.057021,-21.6000003814697
1685.072646,-25.3999996185303
1685.088271,-29.0499992370605
1685.103896,-32.4000015258789
1685.119521,-35.4099998474121
1685.135146,-38.1300010681152
1685.150771,-40.6800003051758
1685.166396,-43.2200012207031
1685.182021,-45.8600006103516
1685.197646,-48.6100006103516
1685.213271,-51.3199996948242
1685.228896,-53.7299995422363
1685.244521,-55.6199989318848
1685.260146,-56.9199981689453
1685.275771,-57.6500015258789
1685.291396,-57.7999992370605
1685.307021,-57.1399993896484
1685.322646,-55.2200012207031
1685.338271,-51.7700004577637
1685.353896,-46.9799995422363
1685.369521,-41.5299987792969
1685.385146,-36.1500015258789
1685.400771,-31.3299999237061
1685.416396,-27.1800003051758
1685.432021,-23.5100002288818
1685.447646,-20.0200004577637
1685.463271,-16.4599990844727
1685.478896,-12.7200002670288
1685.494521,-8.84000015258789
1685.510146,-4.82000017166138
1685.525771,-0.709999978542328
1685.541396,3.39000010490417
1685.557021,7.07999992370605
1685.572646,9.64999961853027
1685.588271,10.539999961853
1685.603896,9.77999973297119
1685.619521,7.94999980926514
1685.635146,5.75
1685.650771,3.61999988555908
1685.666396,1.73000001907349
1685.682021,0.0399999991059303
1685.697646,-1.55999994277954
1685.713271,-3.27999997138977
1685.728896,-5.36999988555908
