Time(s),Value(%)
1675.010146,-26.2900009155273
1675.025771,-27.8700008392334
1675.041396,-29.0200004577637
1675.057021,-29.6800003051758
1675.072646,-29.8899993896484
1675.088271,-29.5499992370605
1675.103896,-28.4899997711182
1675.119521,-26.8899993896484
1675.135146,-25.3600006103516
1675.150771,-24.4699993133545
1675.166396,-24.2800006866455
1675.182021,-24.4099998474121
1675.197646,-24.5699996948242
1675.213271,-24.8199996948242
1675.228896,-25.1599998474121
1675.244521,-25.2900009155273
1675.260146,-24.9099998474121
1675.275771,-23.8899993896484
1675.291396,-21.8400001525879
1675.307021,-17.2900009155273
1675.322646,-8.01000022888184
1675.338271,7.30000019073486
1675.353896,27.4400005340576
1675.369521,48.6800003051758
1675.385146,66.5599975585938
1675.400771,77.9300003051758
1675.416396,82.1900024414063
1675.432021,80.9800033569336
1675.447646,76.7600021362305
1675.463271,71.5800018310547
1675.478896,66.4700012207031
1675.494521,61.5
1675.510146,56.060001373291
1675.525771,49.4500007629395
1675.541396,41.3400001525879
1675.557021,31.8600006103516
1675.572646,21.5300006866455
1675.588271,11.3800001144409
1675.603896,2.70000004768372
1675.619521,-3.60999989509583
1675.635146,-7.78999996185303
1675.650771,-10.7600002288818
1675.666396,-13.2600002288818
1675.682021,-15.4499998092651
1675.697646,-17.2900009155273
1675.713271,-18.8799991607666
1675.728896,-20.1700000762939
1675.744521,-20.9099998474121
1675.760146,-20.9400005340576
1675.775771,-20.6700000762939
1675.791396,-20.8500003814697
1675.807021,-22.0599994659424
1675.822646,-24.3500003814697
1675.838271,-27.3099994659424
1675.853896,-30.1599998474121
1675.869521,-32.1300010681152
1675.885146,-32.9199981689453
1675.900771,-32.810001373291
1675.916396,-32.4199981689453
1675.932021,-31.9899997711182
1675.947646,-31.1100006103516
1675.963271,-29.2700004577637
1675.978896,-26.4699993133545
1675.994521,-23.3099994659424
1676.010146,-20.5400009155273
1676.025771,-18.5100002288818
1676.041396,-16.4500007629395
1676.057021,-12.4399995803833
1676.072646,-4.3899998664856
1676.088271,8.51000022888184
1676.103896,24.9400005340576
1676.119521,41.5900001525879
1676.135146,54.5299987792969
1676.150771,60.939998626709
1676.166396,60.2599983215332
1676.182021,54.1500015258789
1676.197646,45.3499984741211
1676.213271,36.4099998474121
1676.228896,28.9699993133545
1676.244521,23.6299991607666
1676.260146,19.9799995422363
1676.275771,16.8899993896484
1676.291396,13.1700000762939
1676.307021,8.25
1676.322646,2.26999998092651
1676.338271,-4.17000007629395
1676.353896,-10.3900003433228
1676.369521,-15.6300001144409
1676.385146,-19.3299999237061
1676.400771,-21.3899993896484
1676.416396,-22.2900009155273
1676.432021,-22.6900005340576
1676.447646,-23.0699996948242
1676.463271,-23.6599998474121
1676.478896,-24.6900005340576
1676.494521,-26.3899993896484
1676.510146,-28.6200008392334
1676.525771,-30.6800003051758
1676.541396,-31.8600006103516
1676.557021,-32.1699981689453
1676.572646,-32.3199996948242
1676.588271,-32.8499984741211
1676.603896,-33.5299987792969
1676.619521,-33.5400009155273
1676.635146,-32.2700004577637
1676.650771,-29.8799991607666
1676.666396,-26.9799995422363
1676.682021,-24.1499996185303
1676.697646,-21.6599998474121
1676.713271,-19.5200004577637
1676.728896,-17.5699996948242
1676.744521,-15.6000003814697
1676.760146,-13.6000003814697
1676.775771,-11.9300003051758
1676.791396,-10.9499998092651
1676.807021,-10.0299997329712
1676.822646,-7.1399998664856
1676.838271,0.219999998807907
1676.853896,13.1899995803833
1676.869521,30.3199996948242
1676.885146,47.9900016784668
1676.900771,61.9500007629395
1676.916396,69.0899963378906
1676.932021,68.7799987792969
1676.947646,63.0
1676.963271,55.1399993896484
1676.978896,48.189998626709
1676.994521,43.5200004577637
1677.010146,40.7599983215332
1677.025771,38.7000007629395
1677.041396,36.1100006103516
1677.057021,32.0900001525879
1677.072646,26.1499996185303
1677.088271,18.4300003051758
1677.103896,9.89000034332275
1677.119521,1.87999999523163
1677.135146,-4.5
1677.150771,-8.77000045776367
1677.166396,-10.8299999237061
1677.182021,-11.0200004577637
1677.197646,-10.289999961853
1677.213271,-10.1400003433228
1677.228896,-11.7700004577637
1677.244521,-15.3599996566772
1677.260146,-20.1100006103516
1677.275771,-24.8799991607666
1677.291396,-28.7099990844727
1677.307021,-31.0300006866455
1677.322646,-31.75
1677.338271,-31.2099990844727
1677.353896,-29.9400005340576
1677.369521,-28.2099990844727
1677.385146,-26.1499996185303
1677.400771,-24.0200004577637
1677.416396,-22.3199996948242
1677.432021,-21.3600006103516
1677.447646,-20.9200000762939
1677.463271,-20.4200000762939
1677.478896,-19.6599998474121
1677.494521,-19.0900001525879
1677.510146,-19.1900005340576
1677.525771,-19.7999992370605
1677.541396,-20.2600002288818
1677.557021,-19.8899993896484
1677.572646,-18.4500007629395
1677.588271,-15.8000001907349
1677.603896,-11.3299999237061
1677.619521,-3.78999996185303
1677.635146,7.92000007629395
1677.650771,23.6599998474121
1677.666396,41.3899993896484
1677.682021,57.5999984741211
1677.697646,68.5500030517578
1677.713271,71.9899978637695
1677.728896,68.2399978637695
1677.744521,59.9000015258789
1677.760146,50.3199996948242
1677.775771,41.8699989318848
1677.791396,35.3899993896484
1677.807021,30.4899997711182
1677.822646,26.1399993896484
1677.838271,21.1599998474121
1677.853896,14.9200000762939
1677.869521,7.82000017166138
1677.885146,1.1599999666214
1677.900771,-3.72000002861023
1677.916396,-6.28999996185303
1677.932021,-6.92999982833862
1677.947646,-6.53999996185303
1677.963271,-5.98999977111816
1677.978896,-6.03999996185303
1677.994521,-7.13000011444092
1678.010146,-9.19999980926514
1678.025771,-11.8400001525879
1678.041396,-14.6499996185303
1678.057021,-17.6100006103516
1678.072646,-20.7800006866455
1678.088271,-23.9699993133545
1678.103896,-26.8700008392334
1678.119521,-29.3799991607666
1678.135146,-31.5900001525879
1678.150771,-33.5200004577637
1678.166396,-34.7700004577637
1678.182021,-34.7700004577637
1678.197646,-33.3699989318848
1678.213271,-31.1299991607666
1678.228896,-28.8500003814697
1678.244521,-27.0100002288818
1678.260146,-25.7399997711182
1678.275771,-25.0699996948242
1678.291396,-24.9400005340576
1678.307021,-24.9200000762939
1678.322646,-24.3400001525879
1678.338271,-22.8400001525879
1678.353896,-20.6700000762939
1678.369521,-18.2999992370605
1678.385146,-15.710000038147
1678.400771,-11.789999961853
1678.416396,-4.71000003814697
1678.432021,6.82999992370605
1678.447646,22.4099998474121
1678.463271,39.3800010681152
1678.478896,53.7799987792969
1678.494521,62.0900001525879
1678.510146,62.939998626709
1678.525771,57.6800003051758
1678.541396,49.4799995422363
1678.557021,41.5299987792969
1678.572646,35.6699981689453
1678.588271,32.0800018310547
1678.603896,29.7900009155273
1678.619521,27.4699993133545
1678.635146,24.1200008392334
1678.650771,19.2600002288818
1678.666396,13.0600004196167
1678.682021,6.44999980926514
1678.697646,0.730000019073486
1678.713271,-3.05999994277954
1678.728896,-4.63000011444092
1678.744521,-4.46000003814697
1678.760146,-3.60999989509583
1678.775771,-3.47000002861023
1678.791396,-5.07999992370605
1678.807021,-8.39000034332275
1678.822646,-12.4099998474121
1678.838271,-16.1100006103516
1678.853896,-18.9799995422363
1678.869521,-20.9899997711182
1678.885146,-22.1900005340576
1678.900771,-22.7700004577637
1678.916396,-23.0300006866455
1678.932021,-23.25
1678.947646,-23.4699993133545
1678.963271,-23.3899993896484
1678.978896,-22.8199996948242
1678.994521,-21.9500007629395
1679.010146,-21.1000003814697
1679.025771,-20.4799995422363
1679.041396,-20.1299991607666
1679.057021,-20.0100002288818
1679.072646,-20.0799999237061
1679.088271,-20.3199996948242
1679.103896,-20.7700004577637
1679.119521,-21.4400005340576
1679.135146,-22.3199996948242
1679.150771,-23.2999992370605
1679.166396,-24.0499992370605
1679.182021,-23.9400005340576
1679.197646,-22.1800003051758
1679.213271,-17.8799991607666
1679.228896,-9.96000003814697
1679.244521,2.26999998092651
1679.260146,18.2099990844727
1679.275771,35.2700004577637
1679.291396,49.7799987792969
1679.307021,58.6599998474121
1679.322646,60.7200012207031
1679.338271,56.9500007629395
1679.353896,49.8199996948242
1679.369521,42.1300010681152
1679.385146,36.060001373291
1679.400771,32.5099983215332
1679.416396,30.8099994659424
1679.432021,29.4599990844727
1679.447646,27.0499992370605
1679.463271,22.7900009155273
1679.478896,16.5
1679.494521,8.81999969482422
1679.510146,1.26999998092651
1679.525771,-4.46000003814697
1679.541396,-7.67000007629395
1679.557021,-9.15999984741211
1679.572646,-10.4799995422363
1679.588271,-12.6999998092651
1679.603896,-15.7299995422363
1679.619521,-18.7800006866455
1679.635146,-20.9699993133545
1679.650771,-21.6599998474121
1679.666396,-20.4899997711182
1679.682021,-17.6000003814697
1679.697646,-13.8199996948242
1679.713271,-10.3400001525879
1679.728896,-8.10999965667725
1679.744521,-7.48999977111816
1679.760146,-8.35999965667725
1679.775771,-10.5100002288818
1679.791396,-13.6599998474121
1679.807021,-17.25
1679.822646,-20.5400009155273
1679.838271,-22.9699993133545
1679.853896,-24.3500003814697
1679.869521,-24.7800006866455
1679.885146,-24.3199996948242
1679.900771,-22.9200000762939
1679.916396,-20.7000007629395
1679.932021,-18.1800003051758
1679.947646,-16.1599998474121
1679.963271,-15.2299995422363
1679.978896,-15.539999961853
1679.994521,-16.7900009155273
1680.010146,-18.3999996185303
1680.025771,-19.6000003814697
1680.041396,-19.2399997711182
1680.057021,-15.8000001907349
1680.072646,-7.90000009536743
1680.088271,4.69000005722046
1680.103896,20.2800006866455
1680.119521,35.3899993896484
1680.135146,46.4099998474121
1680.150771,51.5999984741211
1680.166396,51.7900009155273
1680.182021,49.25
1680.197646,46.0200004577637
1680.213271,43.2900009155273
1680.228896,41.5099983215332
1680.244521,40.4900016784668
1680.260146,39.2700004577637
1680.275771,36.5800018310547
1680.291396,31.7999992370605
1680.307021,25.4099998474121
1680.322646,18.5300006866455
1680.338271,12.1300001144409
1680.353896,6.76999998092651
1680.369521,2.79999995231628
1680.385146,0.430000007152557
1680.400771,-0.629999995231628
1680.416396,-1.30999994277954
1680.432021,-2.42000007629395
1680.447646,-4.15000009536743
1680.463271,-6.30000019073486
1680.478896,-8.71000003814697
1680.494521,-11.2600002288818
1680.510146,-13.6800003051758
1680.525771,-15.6999998092651
1680.541396,-17.2999992370605
1680.557021,-18.7600002288818
1680.572646,-20.2700004577637
1680.588271,-21.6100006103516
1680.603896,-22.3199996948242
1680.619521,-22.1200008392334
1680.635146,-21.2900009155273
1680.650771,-20.3700008392334
1680.666396,-19.7900009155273
1680.682021,-19.9099998474121
1680.697646,-20.7800006866455
1680.713271,-21.8299999237061
1680.728896,-22.0100002288818
1680.744521,-20.7000007629395
1680.760146,-18.2600002288818
1680.775771,-15.6199998855591
1680.791396,-13.7399997711182
1680.807021,-13.1099996566772
1680.822646,-13.6099996566772
1680.838271,-14.6400003433228
1680.853896,-15.1999998092651
1680.869521,-13.6899995803833
1680.885146,-8.1899995803833
1680.900771,2.45000004768372
1680.916396,17.4699993133545
1680.932021,34.0900001525879
1680.947646,48.7299995422363
1680.963271,58.4099998474121
1680.978896,61.7000007629395
1680.994521,58.9199981689453
1681.010146,51.9500007629395
1681.025771,43.4799995422363
1681.041396,35.8600006103516
1681.057021,30.2299995422363
1681.072646,26.4300003051758
1681.088271,23.6900005340576
1681.103896,21.1299991607666
1681.119521,17.9500007629395
1681.135146,13.789999961853
1681.150771,9.09000015258789
1681.166396,4.78000020980835
1681.182021,1.52999997138977
1681.197646,-0.600000023841858
1681.213271,-2.07999992370605
1681.228896,-3.53999996185303
1681.244521,-5.65000009536743
1681.260146,-8.78999996185303
1681.275771,-12.7399997711182
1681.291396,-16.8400001525879
1681.307021,-20.4599990844727
1681.322646,-23.1499996185303
1681.338271,-24.5799999237061
1681.353896,-24.6100006103516
1681.369521,-23.5599994659424
1681.385146,-22.3199996948242
1681.400771,-21.7800006866455
1681.416396,-22.25
1681.432021,-23.3799991607666
1681.447646,-24.5300006866455
1681.463271,-25.2199993133545
1681.478896,-25.3500003814697
1681.494521,-25.0599994659424
1681.510146,-24.4400005340576
1681.525771,-23.4500007629395
1681.541396,-22.2399997711182
1681.557021,-21.3799991607666
1681.572646,-21.4899997711182
1681.588271,-22.5699996948242
1681.603896,-23.7800006866455
1681.619521,-24.1499996185303
1681.635146,-23.3799991607666
1681.650771,-21.6599998474121
1681.666396,-18.9300003051758
1681.682021,-14.4399995803833
1681.697646,-7.05000019073486
1681.713271,3.8199999332428
1681.728896,17.3999996185303
1681.744521,31.2700004577637
1681.760146,42.4199981689453
1681.775771,48.689998626709
1681.791396,49.7200012207031
1681.807021,46.689998626709
1681.822646,41.3300018310547
1681.838271,35.0099983215332
1681.853896,28.7299995422363
1681.869521,23.4400005340576
1681.885146,19.9400005340576
1681.900771,18.1000003814697
1681.916396,16.7399997711182
1681.932021,14.5500001907349
1681.947646,11.0900001525879
1681.963271,7.0
1681.978896,3.13000011444092
1681.994521,-0.0900000035762787
1682.010146,-2.66000008583069
1682.025771,-4.73000001907349
1682.041396,-6.5
1682.057021,-8.22000026702881
1682.072646,-10.0100002288818
1682.088271,-11.7799997329712
1682.103896,-13.3999996185303
1682.119521,-14.9700002670288
1682.135146,-16.6700000762939
1682.150771,-18.4400005340576
1682.166396,-19.9200000762939
1682.182021,-20.7000007629395
1682.197646,-20.6499996185303
1682.213271,-19.9799995422363
1682.228896,-19.0300006866455
1682.244521,-18.0699996948242
1682.260146,-17.3099994659424
1682.275771,-16.9799995422363
1682.291396,-17.0599994659424
1682.307021,-17.1299991607666
1682.322646,-16.7099990844727
1682.338271,-15.7399997711182
1682.353896,-14.6800003051758
1682.369521,-14.1099996566772
1682.385146,-14.3400001525879
1682.400771,-15.1499996185303
1682.416396,-15.6300001144409
1682.432021,-14.0
1682.447646,-8.17000007629395
1682.463271,2.67000007629395
1682.478896,17.0100002288818
1682.494521,31.3799991607666
1682.510146,42.2599983215332
1682.525771,47.8199996948242
1682.541396,48.4099998474121
1682.557021,45.810001373291
1682.572646,42.0800018310547
1682.588271,38.6399993896484
1682.603896,35.939998626709
1682.619521,33.6100006103516
1682.635146,31.0799999237061
1682.650771,28.0100002288818
1682.666396,24.25
1682.682021,19.5100002288818
1682.697646,13.6099996566772
1682.713271,6.94999980926514
1682.728896,0.639999985694885
1682.744521,-4.28999996185303
1682.760146,-7.6399998664856
1682.775771,-9.97000026702881
1682.791396,-11.8900003433228
1682.807021,-13.5600004196167
1682.822646,-14.8299999237061
1682.838271,-15.6999998092651
1682.853896,-16.4300003051758
1682.869521,-17.25
1682.885146,-18.2199993133545
1682.900771,-19.2999992370605
1682.916396,-20.3099994659424
1682.932021,-21.1700000762939
1682.947646,-21.9300003051758
1682.963271,-22.7800006866455
1682.978896,-23.75
1682.994521,-24.6499996185303
1683.010146,-25.0900001525879
1683.025771,-24.8600006103516
1683.041396,-24.1100006103516
1683.057021,-23.2399997711182
1683.072646,-22.4799995422363
1683.088271,-21.7299995422363
1683.103896,-20.6800003051758
1683.119521,-19.25
1683.135146,-17.6800003051758
1683.150771,-16.2800006866455
1683.166396,-15.0299997329712
1683.182021,-13.4799995422363
1683.197646,-10.5299997329712
1683.213271,-4.69000005722046
1683.228896,4.84000015258789
1683.244521,17.2700004577637
1683.260146,30.1700000762939
1683.275771,40.7099990844727
1683.291396,46.9900016784668
1683.307021,48.6199989318848
1683.322646,46.4799995422363
1683.338271,42.1199989318848
1683.353896,37.2099990844727
1683.369521,33.1199989318848
1683.385146,30.4400005340576
1683.400771,28.6299991607666
1683.416396,26.4899997711182
1683.432021,23.1299991607666
1683.447646,18.5300006866455
1683.463271,13.2299995422363
1683.478896,7.73999977111816
1683.494521,2.38000011444092
1683.510146,-2.42000007629395
1683.525771,-6.26000022888184
1683.541396,-9.09000015258789
1683.557021,-11.3000001907349
1683.572646,-13.4499998092651
1683.588271,-15.9099998474121
1683.603896,-18.6100006103516
1683.619521,-21.0900001525879
1683.635146,-22.8400001525879
1683.650771,-23.6000003814697
1683.666396,-23.3899993896484
1683.682021,-22.6200008392334
1683.697646,-21.9400005340576
1683.713271,-21.7900009155273
1683.728896,-22.0
1683.744521,-22.0699996948242
1683.760146,-21.8099994659424
1683.775771,-21.4899997711182
1683.791396,-21.3700008392334
1683.807021,-21.2700004577637
1683.822646,-20.8099994659424
1683.838271,-19.6800003051758
1683.853896,-17.9099998474121
1683.869521,-15.8100004196167
1683.885146,-14.039999961853
1683.900771,-13.4300003051758
1683.916396,-14.4899997711182
1683.932021,-16.8199996948242
1683.947646,-19.1200008392334
1683.963271,-19.8700008392334
1683.978896,-18.0300006866455
1683.994521,-13.0299997329712
1684.010146,-4.6100001335144
1684.025771,6.90000009536743
1684.041396,20.1000003814697
1684.057021,32.560001373291
1684.072646,41.9300003051758
1684.088271,47.0499992370605
1684.103896,48.2999992370605
1684.119521,46.8400001525879
1684.135146,43.8400001525879
1684.150771,40.2299995422363
1684.166396,36.6199989318848
1684.182021,33.1500015258789
1684.197646,29.5699996948242
1684.213271,25.6000003814697
1684.228896,21.1700000762939
1684.244521,16.2700004577637
1684.260146,10.8800001144409
1684.275771,5.07999992370605
1684.291396,-0.689999997615814
1684.307021,-5.67999982833862
1684.322646,-9.22999954223633
1684.338271,-11.2700004577637
1684.353896,-12.2299995422363
1684.369521,-12.6300001144409
1684.385146,-12.8999996185303
1684.400771,-13.4499998092651
1684.416396,-14.5100002288818
1684.432021,-15.8800001144409
1684.447646,-17.0599994659424
1684.463271,-17.7800006866455
1684.478896,-18.2999992370605
1684.494521,-19.0200004577637
1684.510146,-19.8500003814697
1684.525771,-20.3299999237061
1684.541396,-20.3199996948242
1684.557021,-20.1800003051758
1684.572646,-20.2399997711182
1684.588271,-20.2800006866455
1684.603896,-19.7600002288818
1684.619521,-18.3799991607666
1684.635146,-16.3299999237061
1684.650771,-13.9899997711182
1684.666396,-11.7799997329712
1684.682021,-10.1599998474121
1684.697646,-9.47999954223633
1684.713271,-9.59000015258789
1684.728896,-9.77999973297119
1684.744521,-9.38000011444092
1684.760146,-8.22000026702881
1684.775771,-6.32000017166138
1684.791396,-3.38000011444092
1684.807021,1.4099999666214
1684.822646,8.78999996185303
1684.838271,18.5699996948242
1684.853896,29.2900009155273
1684.869521,38.7000007629395
1684.885146,44.7200012207031
1684.900771,46.3499984741211
1684.916396,43.9000015258789
1684.932021,38.7799987792969
1684.947646,32.939998626709
1684.963271,28.0799999237061
1684.978896,25.0200004577637
1684.994521,23.7600002288818
1685.010146,23.8199996948242
1685.025771,24.3299999237061
1685.041396,23.9899997711182
1685.057021,21.4899997711182
1685.072646,16.5599994659424
1685.088271,10.4499998092651
1685.103896,5.11999988555908
1685.119521,1.75999999046326
1685.135146,0.300000011920929
1685.150771,0.119999997317791
1685.166396,0.579999983310699
1685.182021,0.990000009536743
1685.197646,0.670000016689301
1685.213271,-0.660000026226044
1685.228896,-2.69000005722046
1685.244521,-4.96000003814697
1685.260146,-7.30999994277954
1685.275771,-9.72000026702881
1685.291396,-11.9700002670288
1685.307021,-13.6700000762939
1685.322646,-14.6800003051758
1685.338271,-15.1499996185303
1685.353896,-15.2700004577637
1685.369521,-15.1400003433228
1685.385146,-14.8800001144409
1685.400771,-14.7399997711182
1685.416396,-14.8800001144409
1685.432021,-15.1800003051758
1685.447646,-15.2600002288818
1685.463271,-14.75
1685.478896,-13.5100002288818
1685.494521,-11.6000003814697
1685.510146,-9.17000007629395
1685.525771,-6.65999984741211
1685.541396,-4.8899998664856
1685.557021,-4.55999994277954
1685.572646,-5.71999979019165
1685.588271,-7.73999977111816
1685.603896,-9.52000045776367
1685.619521,-9.86999988555908
1685.635146,-7.46999979019165
