Time(s),Value(%)
1248.0039563,10.7600002288818
1248.0195813,10.0200004577637
1248.0352063,9.19999980926514
1248.0508313,8.34000015258789
1248.0664563,7.44999980926514
1248.0820813,6.53999996185303
1248.0977063,5.59000015258789
1248.1133313,4.55000019073486
1248.1289563,3.34999990463257
1248.1445813,1.99000000953674
1248.1602063,0.479999989271164
1248.1758313,-1.1599999666214
1248.1914563,-2.94000005722046
1248.2070813,-4.80999994277954
1248.2227063,-6.73999977111816
1248.2383313,-8.59000015258789
1248.2539563,-10.3599996566772
1248.2695813,-12.1400003433228
1248.2852063,-14.039999961853
1248.3008313,-16.0599994659424
1248.3164563,-18.0300006866455
1248.3320813,-19.7999992370605
1248.3477063,-21.2800006866455
1248.3633313,-22.4899997711182
1248.3789563,-23.4799995422363
1248.3945813,-24.3199996948242
1248.4102063,-25.0400009155273
1248.4258313,-25.6200008392334
1248.4414563,-25.9799995422363
1248.4570813,-25.9300003051758
1248.4727063,-25.3400001525879
1248.4883313,-24.1800003051758
1248.5039563,-22.5499992370605
1248.5195813,-20.5300006866455
1248.5352063,-18.0200004577637
1248.5508313,-14.7299995422363
1248.5664563,-10.4799995422363
1248.5820813,-5.51999998092651
1248.5977063,-0.449999988079071
1248.6133313,4.15999984741211
1248.6289563,8.03999996185303
1248.6445813,11.1700000762939
1248.6602063,13.5699996948242
1248.6758313,15.039999961853
1248.6914563,15.3100004196167
1248.7070813,14.3299999237061
1248.7227063,12.2600002288818
1248.7383313,9.21000003814697
1248.7539563,5.30999994277954
1248.7695813,0.759999990463257
1248.7852063,-4.07999992370605
1248.8008313,-8.85999965667725
1248.8164563,-13.4799995422363
1248.8320813,-18.2000007629395
1248.8477063,-23.2700004577637
1248.8633313,-28.5100002288818
1248.8789563,-33.3300018310547
1248.8945813,-37.2299995422363
1248.9102063,-40.060001373291
1248.9258313,-42.1100006103516
1248.9414563,-44.1800003051758
1248.9570813,-47.3400001525879
1248.9727063,-52.4900016784668
1248.9883313,-59.7999992370605
1249.0039563,-69.0599975585938
1249.0195813,-80.2799987792969
1249.0352063,-93.5299987792969
1249.0508313,-108.370002746582
1249.0664563,-123.25
1249.0820813,-135.970001220703
1249.0977063,-145.169998168945
1249.1133313,-151.539993286133
1249.1289563,-156.809997558594
1249.1445813,-161.880004882813
1249.1602063,-166.240005493164
1249.1758313,-168.940002441406
1249.1914563,-169.520004272461
1249.2070813,-168.25
1249.2227063,-165.720001220703
1249.2383313,-162.559997558594
1249.2539563,-159.059997558594
1249.2695813,-155.380004882813
1249.2852063,-151.990005493164
1249.3008313,-149.850006103516
1249.3164563,-149.869995117188
1249.3320813,-152.080001831055
1249.3477063,-155.130004882813
1249.3633313,-156.740005493164
1249.3789563,-155.330001831055
1249.3945813,-151.139999389648
1249.4102063,-145.630004882813
1249.4258313,-140.070007324219
1249.4414563,-135.979995727539
1249.4570813,-136.050003051758
1249.4727063,-142.949996948242
1249.4883313,-157.149993896484
1249.5039563,-175.940002441406
1249.5195813,-195.639999389648
1249.5352063,-216.529998779297
1249.5508313,-245.210006713867
1249.5664563,-288.790008544922
1249.5820813,-327.679992675781
1249.5977063,-327.679992675781
1249.6133313,-327.679992675781
1249.6289563,-327.679992675781
1249.6445813,-327.679992675781
1249.6602063,-327.679992675781
1249.6758313,-327.679992675781
1249.6914563,-327.679992675781
1249.7070813,-327.679992675781
1249.7227063,-327.679992675781
1249.7383313,-327.679992675781
1249.7539563,-327.679992675781
1249.7695813,-327.679992675781
1249.7852063,-327.679992675781
1249.8008313,-327.679992675781
1249.8164563,-327.679992675781
1249.8320813,-327.679992675781
1249.8477063,-327.679992675781
1249.8633313,-327.679992675781
1249.8789563,-327.679992675781
1249.8945813,-327.679992675781
1249.9102063,-327.679992675781
1249.9258313,-327.679992675781
1249.9414563,-327.679992675781
1249.9570813,-327.679992675781
1249.9727063,-327.679992675781
1249.9883313,-327.679992675781
1250.0039563,-327.679992675781
1250.0195813,-327.679992675781
1250.0352063,-327.679992675781
1250.0508313,-327.679992675781
1250.0664563,-327.679992675781
1250.0820813,-327.679992675781
1250.0977063,-284.390014648438
1250.1133313,-198.839996337891
1250.1289563,-102.430000305176
1250.1445813,-1.33000004291534
1250.1602063,99.5299987792969
1250.1758313,197.220001220703
1250.1914563,290.390014648438
1250.2070813,327.670013427734
1250.2227063,327.670013427734
1250.2383313,327.670013427734
1250.2539563,327.670013427734
1250.2695813,327.670013427734
1250.2852063,327.670013427734
1250.3008313,327.670013427734
1250.3164563,327.670013427734
1250.3320813,327.670013427734
1250.3477063,327.670013427734
1250.3633313,327.670013427734
1250.3789563,327.670013427734
1250.3945813,327.670013427734
1250.4102063,327.670013427734
1250.4258313,327.670013427734
1250.4414563,327.670013427734
1250.4570813,327.670013427734
1250.4727063,327.670013427734
1250.4883313,327.670013427734
1250.5039563,327.670013427734
1250.5195813,327.670013427734
1250.5352063,327.670013427734
1250.5508313,327.670013427734
1250.5664563,327.670013427734
1250.5820813,327.670013427734
1250.5977063,327.670013427734
1250.6133313,327.670013427734
1250.6289563,327.670013427734
1250.6445813,327.670013427734
1250.6602063,327.670013427734
1250.6758313,327.670013427734
1250.6914563,327.670013427734
1250.7070813,327.670013427734
1250.7227063,327.670013427734
1250.7383313,327.670013427734
1250.7539563,327.670013427734
1250.7695813,327.670013427734
1250.7852063,327.670013427734
1250.8008313,327.670013427734
1250.8164563,327.670013427734
1250.8320813,327.670013427734
1250.8477063,327.670013427734
1250.8633313,327.670013427734
1250.8789563,327.670013427734
1250.8945813,327.670013427734
1250.9102063,327.670013427734
1250.9258313,327.670013427734
1250.9414563,327.670013427734
1250.9570813,327.670013427734
1250.9727063,327.670013427734
1250.9883313,327.670013427734
1251.0039563,327.670013427734
1251.0195813,327.670013427734
1251.0352063,327.670013427734
1251.0508313,327.670013427734
1251.0664563,327.670013427734
1251.0820813,327.670013427734
1251.0977063,327.670013427734
1251.1133313,327.670013427734
1251.1289563,327.670013427734
1251.1445813,327.670013427734
1251.1602063,327.670013427734
1251.1758313,327.670013427734
1251.1914563,327.670013427734
1251.2070813,327.670013427734
1251.2227063,327.670013427734
1251.2383313,327.670013427734
1251.2539563,316.149993896484
1251.2695813,278.890014648438
1251.2852063,242.130004882813
1251.3008313,205.759994506836
1251.3164563,169.779998779297
1251.3320813,134.360000610352
1251.3477063,99.8300018310547
1251.3633313,66.5899963378906
1251.3789563,34.9500007629395
1251.3945813,4.94000005722046
1251.4102063,-23.4400005340576
1251.4258313,-50.0999984741211
1251.4414563,-74.879997253418
1251.4570813,-97.9400024414063
1251.4727063,-119.98999786377
1251.4883313,-142.080001831055
1251.5039563,-164.889999389648
1251.5195813,-188.240005493164
1251.5352063,-211.449996948242
1251.5508313,-234.169998168945
1251.5664563,-256.420013427734
1251.5820813,-278.239990234375
1251.5977063,-299.440002441406
1251.6133313,-319.839996337891
1251.6289563,-327.679992675781
1251.6445813,-327.679992675781
1251.6602063,-327.679992675781
1251.6758313,-327.679992675781
1251.6914563,-327.679992675781
1251.7070813,-327.679992675781
1251.7227063,-327.679992675781
1251.7383313,-327.679992675781
1251.7539563,-327.679992675781
1251.7695813,-327.679992675781
1251.7852063,-327.679992675781
1251.8008313,-327.679992675781
1251.8164563,-327.679992675781
1251.8320813,-327.679992675781
1251.8477063,-327.679992675781
1251.8633313,-327.679992675781
1251.8789563,-327.679992675781
1251.8945813,-327.679992675781
1251.9102063,-327.679992675781
1251.9258313,-327.679992675781
1251.9414563,-327.679992675781
1251.9570813,-327.679992675781
1251.9727063,-327.679992675781
1251.9883313,-327.679992675781
1252.0039563,-327.679992675781
1252.0195813,-327.679992675781
1252.0352063,-327.679992675781
1252.0508313,-327.679992675781
1252.0664563,-327.679992675781
1252.0820813,-327.679992675781
1252.0977063,-327.679992675781
1252.1133313,-327.679992675781
1252.1289563,-327.679992675781
1252.1445813,-327.679992675781
1252.1602063,-327.679992675781
1252.1758313,-327.679992675781
1252.1914563,-327.679992675781
1252.2070813,-327.679992675781
1252.2227063,-327.679992675781
1252.2383313,-327.679992675781
1252.2539563,-327.679992675781
1252.2695813,-327.679992675781
1252.2852063,-327.679992675781
1252.3008313,-327.679992675781
1252.3164563,-327.679992675781
1252.3320813,-327.679992675781
1252.3477063,-327.679992675781
1252.3633313,-327.679992675781
1252.3789563,-327.679992675781
1252.3945813,-327.679992675781
1252.4102063,-327.679992675781
1252.4258313,-327.679992675781
1252.4414563,-327.679992675781
1252.4570813,-327.679992675781
1252.4727063,-327.679992675781
1252.4883313,-327.679992675781
1252.5039563,-327.679992675781
1252.5195813,-327.679992675781
1252.5352063,-327.679992675781
1252.5508313,-327.679992675781
1252.5664563,-327.679992675781
1252.5820813,-327.679992675781
1252.5977063,-327.679992675781
1252.6133313,-327.679992675781
1252.6289563,-327.679992675781
1252.6445813,-327.679992675781
1252.6602063,-327.679992675781
1252.6758313,-327.679992675781
1252.6914563,-327.679992675781
1252.7070813,-327.679992675781
1252.7227063,-327.679992675781
1252.7383313,-327.679992675781
1252.7539563,-327.679992675781
1252.7695813,-327.679992675781
1252.7852063,-327.679992675781
1252.8008313,-327.679992675781
1252.8164563,-327.679992675781
1252.8320813,-327.679992675781
1252.8477063,-327.679992675781
1252.8633313,-327.679992675781
1252.8789563,-327.679992675781
1252.8945813,-327.679992675781
1252.9102063,-327.679992675781
1252.9258313,-324.450012207031
1252.9414563,-313.359985351563
1252.9570813,-301.779998779297
1252.9727063,-289.850006103516
1252.9883313,-277.75
1253.0039563,-265.600006103516
1253.0195813,-253.470001220703
1253.0352063,-241.449996948242
1253.0508313,-229.649993896484
1253.0664563,-218.139999389648
1253.0820813,-206.839996337891
1253.0977063,-195.570007324219
1253.1133313,-184.190002441406
1253.1289563,-172.660003662109
1253.1445813,-161.039993286133
1253.1602063,-149.429992675781
1253.1758313,-137.880004882813
1253.1914563,-126.349998474121
1253.2070813,-114.680000305176
1253.2227063,-102.720001220703
1253.2383313,-90.4400024414063
1253.2539563,-78.0699996948242
1253.2695813,-65.9800033569336
1253.2852063,-54.4799995422363
1253.3008313,-43.7200012207031
1253.3164563,-33.7000007629395
1253.3320813,-24.4099998474121
1253.3477063,-15.8299999237061
1253.3633313,-7.8600001335144
1253.3789563,-0.209999993443489
1253.3945813,7.53999996185303
1253.4102063,15.7399997711182
1253.4258313,24.5
1253.4414563,33.6599998474121
1253.4570813,42.939998626709
1253.4727063,52.0099983215332
1253.4883313,60.6199989318848
1253.5039563,68.620002746582
1253.5195813,76.0400009155273
1253.5352063,83.0100021362305
1253.5508313,89.6399993896484
1253.5664563,95.9499969482422
1253.5820813,102.01000213623
1253.5977063,107.959999084473
1253.6133313,114.029998779297
1253.6289563,120.400001525879
1253.6445813,127.099998474121
1253.6602063,134.039993286133
1253.6758313,141.149993896484
1253.6914563,148.389999389648
1253.7070813,155.740005493164
1253.7227063,163.160003662109
1253.7383313,170.570007324219
1253.7539563,177.860000610352
1253.7695813,184.979995727539
1253.7852063,192.0
1253.8008313,199.050003051758
1253.8164563,206.259994506836
1253.8320813,213.600006103516
1253.8477063,220.880004882813
1253.8633313,227.880004882813
1253.8789563,234.460006713867
1253.8945813,240.589996337891
1253.9102063,246.380004882813
1253.9258313,252.039993286133
1253.9414563,257.739990234375
1253.9570813,263.519989013672
1253.9727063,269.299987792969
1253.9883313,274.940002441406
1254.0039563,280.339996337891
1254.0195813,285.390014648438
1254.0352063,289.920013427734
1254.0508313,293.630004882813
1254.0664563,296.309997558594
1254.0820813,298.0
1254.0977063,299.0
1254.1133313,299.640014648438
1254.1289563,300.130004882813
1254.1445813,300.549987792969
1254.1602063,300.859985351563
1254.1758313,301.0
1254.1914563,300.920013427734
1254.2070813,300.589996337891
1254.2227063,300.019989013672
1254.2383313,299.230010986328
1254.2539563,298.299987792969
1254.2695813,297.320007324219
1254.2852063,296.380004882813
1254.3008313,295.5
1254.3164563,294.579986572266
1254.3320813,293.5
1254.3477063,292.140014648438
1254.3633313,290.529998779297
1254.3789563,288.720001220703
1254.3945813,286.730010986328
1254.4102063,284.549987792969
1254.4258313,282.149993896484
1254.4414563,279.540008544922
1254.4570813,276.769989013672
1254.4727063,273.929992675781
1254.4883313,271.160003662109
1254.5039563,268.579986572266
1254.5195813,266.190002441406
1254.5352063,263.910003662109
1254.5508313,261.619995117188
1254.5664563,259.209991455078
1254.5820813,256.630004882813
1254.5977063,253.800003051758
1254.6133313,250.570007324219
1254.6289563,246.889999389648
1254.6445813,242.850006103516
1254.6602063,238.639999389648
1254.6758313,234.460006713867
1254.6914563,230.389999389648
1254.7070813,226.389999389648
1254.7227063,222.380004882813
1254.7383313,218.309997558594
1254.7539563,214.199996948242
1254.7695813,210.119995117188
1254.7852063,206.179992675781
1254.8008313,202.429992675781
1254.8164563,198.830001831055
1254.8320813,195.339996337891
1254.8477063,191.899993896484
1254.8633313,188.460006713867
1254.8789563,184.880004882813
1254.8945813,180.960006713867
1254.9102063,176.5
1254.9258313,171.490005493164
1254.9414563,166.059997558594
1254.9570813,160.369995117188
1254.9727063,154.580001831055
1254.9883313,148.809997558594
1255.0039563,143.089996337891
1255.0195813,137.449996948242
1255.0352063,131.869995117188
1255.0508313,126.339996337891
1255.0664563,120.839996337891
1255.0820813,115.339996337891
1255.0977063,109.830001831055
1255.1133313,104.269996643066
1255.1289563,98.6100006103516
1255.1445813,92.8600006103516
1255.1602063,87.0899963378906
1255.1758313,81.4000015258789
1255.1914563,75.8600006103516
1255.2070813,70.4599990844727
1255.2227063,64.2600021362305
1255.2383313,58.3800010681152
1255.2539563,52.8600006103516
1255.2695813,47.7400016784668
1255.2852063,42.9900016784668
1255.3008313,38.5299987792969
1255.3164563,34.2400016784668
1255.3320813,29.9699993133545
1255.3477063,25.6100006103516
1255.3633313,21.1599998474121
1255.3789563,16.7299995422363
1255.3945813,12.4700002670288
1255.4102063,8.5
1255.4258313,4.86999988555908
1255.4414563,1.62000000476837
1255.4570813,-1.17999994754791
1255.4727063,-3.5
1255.4883313,-5.30000019073486
1255.5039563,-6.69000005722046
1255.5195813,-7.84000015258789
1255.5352063,-8.97000026702881
1255.5508313,-10.1999998092651
1255.5664563,-11.5699996948242
1255.5820813,-13.0299997329712
1255.5977063,-14.5299997329712
1255.6133313,-16.0400009155273
1255.6289563,-17.5799999237061
1255.6445813,-19.1599998474121
1255.6602063,-20.7600002288818
1255.6758313,-22.3500003814697
1255.6914563,-23.9099998474121
1255.7070813,-25.4200000762939
1255.7227063,-26.8799991607666
1255.7383313,-28.3099994659424
1255.7539563,-29.7600002288818
1255.7695813,-31.25
1255.7852063,-32.7799987792969
1255.8008313,-34.3499984741211
1255.8164563,-35.9000015258789
1255.8320813,-37.4000015258789
1255.8477063,-38.810001373291
1255.8633313,-40.1399993896484
1255.8789563,-41.3699989318848
1255.8945813,-42.5099983215332
1255.9102063,-43.5699996948242
1255.9258313,-44.6199989318848
1255.9414563,-45.7000007629395
1255.9570813,-46.8600006103516
1255.9727063,-48.0699996948242
1255.9883313,-49.2799987792969
1256.0039563,-50.4500007629395
1256.0195813,-51.5400009155273
1256.0352063,-52.5499992370605
1256.0508313,-53.5299987792969
1256.0664563,-54.5200004577637
1256.0820813,-55.5400009155273
1256.0977063,-56.5900001525879
1256.1133313,-57.6699981689453
1256.1289563,-58.7799987792969
1256.1445813,-59.8899993896484
1256.1602063,-60.9300003051758
1256.1758313,-61.7700004577637
1256.1914563,-62.25
1256.2070813,-62.2400016784668
1256.2227063,-60.939998626709
1256.2383313,-59.2400016784668
1256.2539563,-57.2799987792969
1256.2695813,-55.2599983215332
1256.2852063,-53.3199996948242
1256.3008313,-51.5400009155273
1256.3164563,-49.9000015258789
1256.3320813,-48.2999992370605
1256.3477063,-46.6699981689453
1256.3633313,-44.9599990844727
1256.3789563,-43.1800003051758
1256.3945813,-41.3300018310547
1256.4102063,-39.4300003051758
1256.4258313,-37.5099983215332
1256.4414563,-35.7099990844727
1256.4570813,-34.2200012207031
1256.4727063,-33.1599998474121
1256.4883313,-32.4500007629395
1256.5039563,-31.8899993896484
1256.5195813,-31.3299999237061
1256.5352063,-30.7399997711182
1256.5508313,-30.1599998474121
1256.5664563,-29.6399993896484
1256.5820813,-29.2299995422363
1256.5977063,-28.9300003051758
1256.6133313,-28.7999992370605
1256.6289563,-28.8700008392334
1256.6445813,-29.1200008392334
1256.6602063,-29.5100002288818
1256.6758313,-29.9699993133545
1256.6914563,-30.4500007629395
1256.7070813,-30.9300003051758
1256.7227063,-31.3899993896484
1256.7383313,-31.8600006103516
1256.7539563,-32.3400001525879
1256.7695813,-32.8499984741211
1256.7852063,-33.3699989318848
1256.8008313,-33.8300018310547
1256.8164563,-34.1800003051758
1256.8320813,-34.4099998474121
1256.8477063,-34.5099983215332
1256.8633313,-34.5400009155273
1256.8789563,-34.5499992370605
1256.8945813,-34.6100006103516
1256.9102063,-34.75
1256.9258313,-34.9799995422363
1256.9414563,-35.25
1256.9570813,-35.5
1256.9727063,-35.6699981689453
1256.9883313,-35.7599983215332
1257.0039563,-35.7299995422363
1257.0195813,-35.5499992370605
1257.0352063,-35.1500015258789
1257.0508313,-34.4599990844727
1257.0664563,-33.4300003051758
1257.0820813,-32.1199989318848
1257.0977063,-30.6499996185303
1257.1133313,-29.1700000762939
1257.1289563,-27.7600002288818
1257.1445813,-26.4599990844727
1257.1602063,-25.2399997711182
1257.1758313,-24.0200004577637
1257.1914563,-22.7600002288818
1257.2070813,-21.4200000762939
1257.2227063,-20.0
1257.2383313,-18.4699993133545
1257.2539563,-16.8400001525879
1257.2695813,-15.1099996566772
1257.2852063,-13.4200000762939
1257.3008313,-11.9300003051758
1257.3164563,-10.7700004577637
1257.3320813,-9.89000034332275
1257.3477063,-9.10999965667725
1257.3633313,-8.34000015258789
1257.3789563,-7.57000017166138
1257.3945813,-6.84000015258789
1257.4102063,-6.21000003814697
1257.4258313,-5.67999982833862
1257.4414563,-5.17000007629395
1257.4570813,-4.53000020980835
1257.4727063,-3.64000010490417
1257.4883313,-2.48000001907349
1257.5039563,-1.05999994277954
1257.5195813,0.620000004768372
1257.5352063,2.57999992370605
1257.5508313,4.75
1257.5664563,6.8899998664856
1257.5820813,8.6899995803833
1257.5977063,9.89999961853027
1257.6133313,10.5299997329712
1257.6289563,10.7799997329712
1257.6445813,10.8199996948242
1257.6602063,10.6899995803833
1257.6758313,10.3999996185303
1257.6914563,9.96000003814697
1257.7070813,9.42000007629395
1257.7227063,8.78999996185303
1257.7383313,8.05000019073486
1257.7539563,7.15000009536743
1257.7695813,6.21000003814697
1257.7852063,5.36999988555908
1257.8008313,4.76999998092651
1257.8164563,4.40000009536743
1257.8320813,4.19000005722046
1257.8477063,4.05999994277954
1257.8633313,3.98000001907349
1257.8789563,3.9300000667572
1257.8945813,3.82999992370605
1257.9102063,3.50999999046326
1257.9258313,2.88000011444092
1257.9414563,1.89999997615814
1257.9570813,0.660000026226044
1257.9727063,-0.740000009536743
1257.9883313,-2.24000000953674
1258.0039563,-3.79999995231628
1258.0195813,-5.3899998664856
1258.0352063,-6.92000007629395
1258.0508313,-8.3100004196167
1258.0664563,-9.43000030517578
1258.0820813,-10.25
1258.0977063,-10.8000001907349
1258.1133313,-11.1499996185303
1258.1289563,-11.4099998474121
1258.1445813,-11.6400003433228
1258.1602063,-11.8800001144409
1258.1758313,-12.1599998474121
1258.1914563,-12.4700002670288
1258.2070813,-12.8100004196167
1258.2227063,-13.4700002670288
1258.2383313,-14.210000038147
1258.2539563,-15.0900001525879
1258.2695813,-16.1100006103516
1258.2852063,-17.2099990844727
1258.3008313,-18.2800006866455
1258.3164563,-19.2700004577637
