Time(s),Value(%)
1449.012673,26.4599990844727
1449.028298,27.2299995422363
1449.043923,27.8700008392334
1449.059548,28.2999992370605
1449.075173,28.3700008392334
1449.090798,27.9200000762939
1449.106423,26.9099998474121
1449.122048,25.3899993896484
1449.137673,23.3700008392334
1449.153298,20.8799991607666
1449.168923,18.0100002288818
1449.184548,15.0699996948242
1449.200173,12.4399995803833
1449.215798,10.3900003433228
1449.231423,8.82999992370605
1449.247048,7.48999977111816
1449.262673,6.19000005722046
1449.278298,5.0
1449.293923,4.01000022888184
1449.309548,3.26999998092651
1449.325173,2.71000003814697
1449.340798,2.11999988555908
1449.356423,1.24000000953674
1449.372048,-0.239999994635582
1449.387673,-2.4300000667572
1449.403298,-5.28000020980835
1449.418923,-8.76000022888184
1449.434548,-12.8800001144409
1449.450173,-17.5
1449.465798,-22.2000007629395
1449.481423,-26.2399997711182
1449.497048,-29.1100006103516
1449.512673,-30.8600006103516
1449.528298,-31.9799995422363
1449.543923,-32.8499984741211
1449.559548,-33.5299987792969
1449.575173,-33.939998626709
1449.590798,-33.9900016784668
1449.606423,-33.7700004577637
1449.622048,-33.5099983215332
1449.637673,-33.560001373291
1449.653298,-34.2000007629395
1449.668923,-35.4599990844727
1449.684548,-37.0999984741211
1449.700173,-38.7000007629395
1449.715798,-39.9300003051758
1449.731423,-40.5900001525879
1449.747048,-40.5
1449.762673,-39.3199996948242
1449.778298,-36.6399993896484
1449.793923,-32.2999992370605
1449.809548,-26.6200008392334
1449.825173,-20.2999992370605
1449.840798,-14.1400003433228
1449.856423,-8.69999980926514
1449.872048,-4.1399998664856
1449.887673,-0.28999999165535
1449.903298,3.07999992370605
1449.918923,6.15000009536743
1449.934548,8.97999954223633
1449.950173,11.5299997329712
1449.965798,13.7600002288818
1449.981423,15.6800003051758
1449.997048,17.2700004577637
1450.012673,18.5599994659424
1450.028298,19.5200004577637
1450.043923,20.0400009155273
1450.059548,19.9599990844727
1450.075173,19.2600002288818
1450.090798,18.0400009155273
1450.106423,16.5400009155273
1450.122048,15.0
1450.137673,13.5799999237061
1450.153298,12.289999961853
1450.168923,11.0799999237061
1450.184548,9.78999996185303
1450.200173,8.19999980926514
1450.215798,6.17000007629395
1450.231423,3.67000007629395
1450.247048,0.779999971389771
1450.262673,-2.4300000667572
1450.278298,-5.96000003814697
1450.293923,-9.69999980926514
1450.309548,-13.4099998474121
1450.325173,-16.7800006866455
1450.340798,-19.5900001525879
1450.356423,-22.3799991607666
1450.372048,-25.0699996948242
1450.387673,-27.8199996948242
1450.403298,-30.6499996185303
1450.418923,-33.6599998474121
1450.434548,-36.9799995422363
1450.450173,-40.6300010681152
1450.465798,-44.4199981689453
1450.481423,-47.9199981689453
1450.497048,-50.8400001525879
1450.512673,-53.2700004577637
1450.528298,-55.5099983215332
1450.543923,-57.6800003051758
1450.559548,-59.6300010681152
1450.575173,-61.1300010681152
1450.590798,-62.0900001525879
1450.606423,-62.560001373291
1450.622048,-62.5200004577637
1450.637673,-61.7000007629395
1450.653298,-59.7999992370605
1450.668923,-56.7200012207031
1450.684548,-52.5699996948242
1450.700173,-47.439998626709
1450.715798,-41.4000015258789
1450.731423,-34.6500015258789
1450.747048,-27.6499996185303
1450.762673,-20.9200000762939
1450.778298,-14.75
1450.793923,-9.0
1450.809548,-3.45000004768372
1450.825173,1.76999998092651
1450.840798,6.26000022888184
1450.856423,9.64000034332275
1450.872048,11.9300003051758
1450.887673,13.4300003051758
1450.903298,14.5100002288818
1450.918923,15.4300003051758
1450.934548,16.2600002288818
1450.950173,16.9799995422363
1450.965798,17.5799999237061
1450.981423,18.1299991607666
1450.997048,18.7299995422363
1451.012673,19.4099998474121
1451.028298,19.9699993133545
1451.043923,20.0200004577637
1451.059548,19.2099990844727
1451.075173,17.4599990844727
1451.090798,14.9899997711182
1451.106423,12.1099996566772
1451.122048,9.10000038146973
1451.137673,6.09999990463257
1451.153298,3.20000004768372
1451.168923,0.46000000834465
1451.184548,-1.85000002384186
1451.200173,-3.26999998092651
1451.215798,-3.32999992370605
1451.231423,-1.98000001907349
1451.247048,0.449999988079071
1451.262673,3.51999998092651
1451.278298,6.82000017166138
1451.293923,10.0600004196167
1451.309548,12.8000001907349
1451.325173,14.4300003051758
1451.340798,14.4300003051758
1451.356423,12.8000001907349
1451.372048,9.77999973297119
1451.387673,5.88000011444092
1451.403298,1.51999998092651
1451.418923,-2.95000004768372
1451.434548,-7.3600001335144
1451.450173,-11.6000003814697
1451.465798,-15.6800003051758
1451.481423,-19.6700000762939
1451.497048,-23.6900005340576
1451.512673,-27.7600002288818
1451.528298,-31.9200000762939
1451.543923,-36.2200012207031
1451.559548,-40.7200012207031
1451.575173,-45.3899993896484
1451.590798,-50.0099983215332
1451.606423,-54.3400001525879
1451.622048,-58.2599983215332
1451.637673,-61.9700012207031
1451.653298,-65.75
1451.668923,-69.629997253418
1451.684548,-73.4000015258789
1451.700173,-76.7600021362305
1451.715798,-79.5400009155273
1451.731423,-81.7799987792969
1451.747048,-83.6999969482422
1451.762673,-85.5999984741211
1451.778298,-87.75
1451.793923,-90.2099990844727
1451.809548,-93.0199966430664
1451.825173,-96.2799987792969
1451.840798,-100.089996337891
1451.856423,-104.370002746582
1451.872048,-108.589996337891
1451.887673,-111.949996948242
1451.903298,-113.930000305176
1451.918923,-114.699996948242
1451.934548,-114.830001831055
1451.950173,-114.699996948242
1451.965798,-114.26000213623
1451.981423,-113.300003051758
1451.997048,-111.699996948242
1452.012673,-109.580001831055
1452.028298,-107.279998779297
1452.043923,-105.25
1452.059548,-103.849998474121
1452.075173,-103.139999389648
1452.090798,-102.849998474121
1452.106423,-102.599998474121
1452.122048,-102.089996337891
1452.137673,-101.059997558594
1452.153298,-98.9499969482422
1452.168923,-94.7399978637695
1452.184548,-87.5100021362305
1452.200173,-77.1600036621094
1452.215798,-64.2600021362305
1452.231423,-49.4500007629395
1452.247048,-33.2099990844727
1452.262673,-16.1399993896484
1452.278298,0.819999992847443
1452.293923,16.6000003814697
1452.309548,30.5900001525879
1452.325173,43.1599998474121
1452.340798,54.9900016784668
1452.356423,66.2799987792969
1452.372048,76.5400009155273
1452.387673,85.6100006103516
1452.403298,93.8099975585938
1452.418923,101.599998474121
1452.434548,108.959999084473
1452.450173,115.199996948242
1452.465798,119.620002746582
1452.481423,122.220001220703
1452.497048,123.51000213623
1452.512673,124.0
1452.528298,123.919998168945
1452.543923,123.440002441406
1452.559548,122.790000915527
1452.575173,122.120002746582
1452.590798,121.349998474121
1452.606423,120.059997558594
1452.622048,117.809997558594
1452.637673,114.470001220703
1452.653298,110.230003356934
1452.668923,105.389999389648
1452.684548,100.180000305176
1452.700173,94.8199996948242
1452.715798,89.4499969482422
1452.731423,84.1900024414063
1452.747048,79.0100021362305
1452.762673,73.7600021362305
1452.778298,68.2699966430664
1452.793923,62.4599990844727
1452.809548,56.3600006103516
1452.825173,49.9700012207031
1452.840798,43.2700004577637
1452.856423,36.3800010681152
1452.872048,29.5699996948242
1452.887673,23.1800003051758
1452.903298,17.4099998474121
1452.918923,12.1099996566772
1452.934548,7.01000022888184
1452.950173,2.02999997138977
1452.965798,-2.60999989509583
1452.981423,-6.71000003814697
1452.997048,-10.1800003051758
1453.012673,-13.1099996566772
1453.028298,-15.8100004196167
1453.043923,-18.6399993896484
1453.059548,-21.8799991607666
1453.075173,-25.5599994659424
1453.090798,-29.4799995422363
1453.106423,-33.3199996948242
1453.122048,-36.8199996948242
1453.137673,-39.7400016784668
1453.153298,-41.4199981689453
1453.168923,-40.6500015258789
1453.184548,-36.3199996948242
1453.200173,-28.2700004577637
1453.215798,-17.1599998474121
1453.231423,-3.75999999046326
1453.247048,11.3500003814697
1453.262673,27.4699993133545
1453.278298,43.3499984741211
1453.293923,57.4099998474121
1453.309548,68.6500015258789
1453.325173,77.3899993896484
1453.340798,84.5899963378906
1453.356423,90.5699996948242
1453.372048,95.3600006103516
1453.387673,98.9599990844727
1453.403298,101.830001831055
1453.418923,104.449996948242
1453.434548,106.809997558594
1453.450173,108.220001220703
1453.465798,107.959999084473
1453.481423,105.98999786377
1453.497048,102.849998474121
1453.512673,99.0400009155273
1453.528298,94.7399978637695
1453.543923,89.9599990844727
1453.559548,84.8000030517578
1453.575173,79.4100036621094
1453.590798,73.9199981689453
1453.606423,68.370002746582
1453.622048,62.6699981689453
1453.637673,56.7999992370605
1453.653298,50.7900009155273
1453.668923,44.7099990844727
1453.684548,38.6199989318848
1453.700173,32.5699996948242
1453.715798,26.5599994659424
1453.731423,20.4599990844727
1453.747048,14.0900001525879
1453.762673,7.30999994277954
1453.778298,0.189999997615814
1453.793923,-6.98999977111816
1453.809548,-13.8699998855591
1453.825173,-20.1900005340576
1453.840798,-25.8500003814697
1453.856423,-30.9699993133545
1453.872048,-35.810001373291
1453.887673,-40.7000007629395
1453.903298,-45.8899993896484
1453.918923,-51.4300003051758
1453.934548,-57.2599983215332
1453.950173,-63.3499984741211
1453.965798,-69.7300033569336
1453.981423,-76.2900009155273
1453.997048,-82.6100006103516
1454.012673,-88.0299987792969
1454.028298,-91.6999969482422
1454.043923,-92.8300018310547
1454.059548,-91.0100021362305
1454.075173,-86.4400024414063
1454.090798,-79.8399963378906
1454.106423,-72.2399978637695
1454.122048,-64.6100006103516
1454.137673,-57.4500007629395
1454.153298,-50.4500007629395
1454.168923,-42.5299987792969
1454.184548,-32.5800018310547
1454.200173,-20.2700004577637
1454.215798,-6.03000020980835
1454.231423,9.47000026702881
1454.247048,25.6800003051758
1454.262673,41.9000015258789
1454.278298,56.7599983215332
1454.293923,68.2399978637695
1454.309548,74.7200012207031
1454.325173,76.2399978637695
1454.340798,74.2099990844727
1454.356423,69.870002746582
1454.372048,64.7399978637695
1454.387673,59.2900009155273
1454.403298,53.75
1454.418923,48.2200012207031
1454.434548,42.7799987792969
1454.450173,37.4500007629395
1454.465798,32.2299995422363
1454.481423,27.1100006103516
1454.497048,22.1200008392334
1454.512673,17.2900009155273
1454.528298,12.6400003433228
1454.543923,8.17000007629395
1454.559548,3.75999999046326
1454.575173,-0.829999983310699
1454.590798,-5.92999982833862
1454.606423,-11.710000038147
1454.622048,-18.1399993896484
1454.637673,-24.9099998474121
1454.653298,-31.5900001525879
1454.668923,-37.8199996948242
1454.684548,-43.4500007629395
1454.700173,-48.4900016784668
1454.715798,-53.1800003051758
1454.731423,-57.8499984741211
1454.747048,-62.7799987792969
1454.762673,-68.0599975585938
1454.778298,-73.620002746582
1454.793923,-79.4700012207031
1454.809548,-85.6399993896484
1454.825173,-91.9899978637695
1454.840798,-98.0699996948242
1454.856423,-103.230003356934
1454.872048,-107.040000915527
1454.887673,-109.699996948242
1454.903298,-111.699996948242
1454.918923,-113.370002746582
1454.934548,-114.51000213623
1454.950173,-114.720001220703
1454.965798,-113.660003662109
1454.981423,-111.370002746582
1454.997048,-108.069999694824
1455.012673,-103.779998779297
1455.028298,-98.0599975585938
1455.043923,-90.0599975585938
1455.059548,-79.25
1455.075173,-66.129997253418
1455.090798,-52.0200004577637
1455.106423,-38.3800010681152
1455.122048,-26.1200008392334
1455.137673,-15.3999996185303
1455.153298,-5.84999990463257
1455.168923,3.11999988555908
1455.184548,12.0
1455.200173,20.9300003051758
1455.215798,29.9099998474121
1455.231423,38.9199981689453
1455.247048,47.9500007629395
1455.262673,56.8199996948242
1455.278298,64.8000030517578
1455.293923,70.5699996948242
1455.309548,73.0400009155273
1455.325173,72.120002746582
1455.340798,68.7900009155273
1455.356423,63.9000015258789
1455.372048,58.8899993896484
1455.387673,54.2299995422363
1455.403298,49.9900016784668
1455.418923,46.0400009155273
1455.434548,42.1399993896484
1455.450173,38.0200004577637
1455.465798,33.4599990844727
1455.481423,28.4699993133545
1455.497048,23.1700000762939
1455.512673,17.6599998474121
1455.528298,11.9700002670288
1455.543923,6.19999980926514
1455.559548,0.550000011920929
1455.575173,-4.73000001907349
1455.590798,-9.5600004196167
1455.606423,-14.1499996185303
1455.622048,-18.7299995422363
1455.637673,-23.2900009155273
1455.653298,-27.5699996948242
1455.668923,-31.2600002288818
1455.684548,-34.25
1455.700173,-36.6599998474121
1455.715798,-38.7799987792969
1455.731423,-41.0299987792969
1455.747048,-43.7000007629395
1455.762673,-46.8699989318848
1455.778298,-50.5200004577637
1455.793923,-54.7000007629395
1455.809548,-59.4900016784668
1455.825173,-64.7600021362305
1455.840798,-69.9400024414063
1455.856423,-74.129997253418
1455.872048,-76.7099990844727
1455.887673,-77.7099990844727
1455.903298,-77.629997253418
1455.918923,-76.870002746582
1455.934548,-75.4899978637695
1455.950173,-73.4599990844727
1455.965798,-70.8499984741211
1455.981423,-67.7099990844727
1455.997048,-63.6500015258789
1456.012673,-57.6199989318848
1456.028298,-48.5699996948242
1456.043923,-36.3199996948242
1456.059548,-21.6299991607666
1456.075173,-5.48999977111816
1456.090798,11.2299995422363
1456.106423,27.8199996948242
1456.122048,43.2999992370605
1456.137673,56.3699989318848
1456.153298,66.0899963378906
1456.168923,72.4800033569336
1456.184548,76.3499984741211
1456.200173,78.5199966430664
1456.215798,79.4599990844727
1456.231423,79.4499969482422
1456.247048,78.7699966430664
1456.262673,77.6999969482422
1456.278298,76.4400024414063
1456.293923,75.0100021362305
1456.309548,73.3099975585938
1456.325173,71.2799987792969
1456.340798,68.9199981689453
1456.356423,65.8300018310547
1456.372048,62.4799995422363
1456.387673,58.9500007629395
1456.403298,55.3499984741211
1456.418923,51.75
1456.434548,48.1199989318848
1456.450173,44.3199996948242
1456.465798,40.2999992370605
1456.481423,36.189998626709
1456.497048,32.2799987792969
1456.512673,28.8099994659424
1456.528298,25.8600006103516
1456.543923,23.3199996948242
1456.559548,20.9099998474121
1456.575173,18.2999992370605
1456.590798,15.2200002670288
1456.606423,11.6099996566772
1456.622048,7.57000017166138
1456.637673,3.11999988555908
1456.653298,-1.73000001907349
1456.668923,-6.8600001335144
1456.684548,-11.8400001525879
1456.700173,-16.0499992370605
1456.715798,-19.0799999237061
1456.731423,-21.0499992370605
1456.747048,-22.4400005340576
1456.762673,-23.5599994659424
1456.778298,-24.4200000762939
1456.793923,-24.8899993896484
1456.809548,-24.9099998474121
1456.825173,-24.5
1456.840798,-23.6299991607666
1456.856423,-22.0599994659424
1456.872048,-19.5300006866455
1456.887673,-15.960000038147
1456.903298,-11.3999996185303
1456.918923,-5.78000020980835
1456.934548,0.949999988079071
1456.950173,8.64000034332275
1456.965798,16.7600002288818
1456.981423,24.6700000762939
1456.997048,31.9699993133545
1457.012673,38.7200012207031
1457.028298,45.0299987792969
1457.043923,50.7000007629395
1457.059548,55.25
1457.075173,58.3699989318848
1457.090798,60.2000007629395
1457.106423,61.1500015258789
1457.122048,61.5400009155273
1457.137673,61.3199996948242
1457.153298,60.2599983215332
1457.168923,58.2599983215332
1457.184548,55.4099998474121
1457.200173,51.9199981689453
1457.215798,48.0
1457.231423,43.8899993896484
1457.247048,39.7999992370605
1457.262673,35.939998626709
1457.278298,32.3300018310547
1457.293923,28.7399997711182
1457.309548,24.9400005340576
1457.325173,20.9599990844727
1457.340798,17.0799999237061
1457.356423,13.6099996566772
1457.372048,10.6700000762939
1457.387673,8.15999984741211
1457.403298,5.75
1457.418923,2.97000002861023
1457.434548,-0.560000002384186
1457.450173,-4.94000005722046
1457.465798,-10.1000003814697
1457.481423,-16.0100002288818
1457.497048,-22.7000007629395
1457.512673,-29.9699993133545
1457.528298,-37.1599998474121
1457.543923,-43.2799987792969
1457.559548,-47.6599998474121
1457.575173,-50.4900016784668
1457.590798,-52.5099983215332
1457.606423,-54.2200012207031
1457.622048,-55.8400001525879
1457.637673,-57.6199989318848
1457.653298,-59.9099998474121
1457.668923,-62.8400001525879
1457.684548,-66.0
1457.700173,-68.5899963378906
1457.715798,-69.9800033569336
1457.731423,-70.25
1457.747048,-69.8600006103516
1457.762673,-69.0500030517578
1457.778298,-67.6600036621094
1457.793923,-65.4599990844727
1457.809548,-62.4700012207031
1457.825173,-58.8600006103516
1457.840798,-54.5699996948242
1457.856423,-49.0699996948242
1457.872048,-41.7200012207031
1457.887673,-32.4000015258789
1457.903298,-21.5699996948242
1457.918923,-9.93000030517578
1457.934548,1.89999997615814
1457.950173,13.4899997711182
1457.965798,24.3299999237061
1457.981423,33.8600006103516
1457.997048,41.7099990844727
1458.012673,47.939998626709
1458.028298,52.8699989318848
1458.043923,56.7999992370605
1458.059548,59.8699989318848
1458.075173,62.1699981689453
1458.090798,63.8600006103516
1458.106423,65.120002746582
1458.122048,66.0400009155273
1458.137673,66.5
1458.153298,66.3300018310547
1458.168923,65.4700012207031
1458.184548,63.9599990844727
1458.200173,61.8600006103516
1458.215798,59.2400016784668
1458.231423,56.2299995422363
1458.247048,53.0900001525879
1458.262673,50.1100006103516
1458.278298,47.4300003051758
1458.293923,44.8400001525879
1458.309548,42.060001373291
1458.325173,39.0400009155273
1458.340798,36.0200004577637
1458.356423,33.4199981689453
1458.372048,31.2399997711182
1458.387673,29.4400005340576
1458.403298,27.7399997711182
1458.418923,25.7600002288818
1458.434548,23.2099990844727
1458.450173,20.0100002288818
1458.465798,16.1700000762939
1458.481423,11.5900001525879
1458.497048,6.17000007629395
1458.512673,0.0500000007450581
1458.528298,-6.15999984741211
1458.543923,-11.5500001907349
1458.559548,-15.460000038147
1458.575173,-18.0599994659424
1458.590798,-19.9699993133545
1458.606423,-21.6000003814697
1458.622048,-22.8899993896484
1458.637673,-23.6200008392334
1458.653298,-23.7000007629395
1458.668923,-23.2800006866455
1458.684548,-22.7299995422363
1458.700173,-22.4799995422363
1458.715798,-22.8700008392334
1458.731423,-23.8999996185303
1458.747048,-25.2700004577637
1458.762673,-26.4899997711182
1458.778298,-27.1399993896484
1458.793923,-27.0200004577637
1458.809548,-25.9500007629395
1458.825173,-23.5200004577637
1458.840798,-19.2199993133545
1458.856423,-12.789999961853
1458.872048,-4.51000022888184
1458.887673,4.71000003814697
1458.903298,13.8100004196167
1458.918923,21.9699993133545
1458.934548,28.9300003051758
1458.950173,34.8499984741211
1458.965798,40.0299987792969
1458.981423,44.7099990844727
1458.997048,48.9599990844727
1459.012673,52.7599983215332
1459.028298,56.0900001525879
1459.043923,58.9500007629395
1459.059548,61.3600006103516
1459.075173,63.3400001525879
1459.090798,64.8399963378906
1459.106423,65.620002746582
1459.122048,65.4100036621094
1459.137673,64.0699996948242
1459.153298,61.7099990844727
1459.168923,58.7099990844727
1459.184548,55.5299987792969
1459.200173,52.5299987792969
1459.215798,49.8400001525879
1459.231423,47.4000015258789
1459.247048,44.9799995422363
1459.262673,42.2999992370605
1459.278298,39.1100006103516
1459.293923,35.3899993896484
1459.309548,31.1700000762939
1459.325173,26.3999996185303
1459.340798,21.0499992370605
1459.356423,15.3199996948242
1459.372048,9.4399995803833
1459.387673,4.01999998092651
1459.403298,-0.469999998807907
1459.418923,-4.15999984741211
1459.434548,-7.44999980926514
1459.450173,-10.5600004196167
1459.465798,-13.3699998855591
1459.481423,-15.6999998092651
1459.497048,-17.4500007629395
1459.512673,-18.7700004577637
1459.528298,-20.0
1459.543923,-21.6200008392334
1459.559548,-23.9799995422363
1459.575173,-27.1499996185303
1459.590798,-31.0499992370605
1459.606423,-35.6599998474121
1459.622048,-41.0
1459.637673,-46.8899993896484
1459.653298,-52.7000007629395
1459.668923,-57.4000015258789
1459.684548,-60.0999984741211
1459.700173,-60.5299987792969
1459.715798,-59.0
1459.731423,-56.0299987792969
1459.747048,-52.0499992370605
