Time(s),Value(%)
1449.012673,12.0699996948242
1449.028298,12.6300001144409
1449.043923,12.8999996185303
1449.059548,13.0900001525879
1449.075173,13.8900003433228
1449.090798,16.6800003051758
1449.106423,23.1700000762939
1449.122048,33.7299995422363
1449.137673,46.3199996948242
1449.153298,57.2599983215332
1449.168923,63.3600006103516
1449.184548,63.5
1449.200173,58.810001373291
1449.215798,51.4900016784668
1449.231423,43.4599990844727
1449.247048,35.5499992370605
1449.262673,27.7299995422363
1449.278298,19.7099990844727
1449.293923,11.3699998855591
1449.309548,2.85999989509583
1449.325173,-5.42999982833862
1449.340798,-13.1300001144409
1449.356423,-19.9500007629395
1449.372048,-25.7000007629395
1449.387673,-30.2199993133545
1449.403298,-33.4300003051758
1449.418923,-35.3800010681152
1449.434548,-36.3600006103516
1449.450173,-36.6399993896484
1449.465798,-36.4599990844727
1449.481423,-35.939998626709
1449.497048,-35.1500015258789
1449.512673,-34.0699996948242
1449.528298,-32.6500015258789
1449.543923,-30.8799991607666
1449.559548,-28.7600002288818
1449.575173,-26.3500003814697
1449.590798,-23.7700004577637
1449.606423,-21.25
1449.622048,-18.9899997711182
1449.637673,-16.9599990844727
1449.653298,-15.0799999237061
1449.668923,-13.3000001907349
1449.684548,-11.5699996948242
1449.700173,-9.85999965667725
1449.715798,-8.10999965667725
1449.731423,-6.32000017166138
1449.747048,-4.5
1449.762673,-2.71000003814697
1449.778298,-1.05999994277954
1449.793923,0.409999996423721
1449.809548,1.78999996185303
1449.825173,3.15000009536743
1449.840798,4.5
1449.856423,5.65000009536743
1449.872048,6.46999979019165
1449.887673,7.03999996185303
1449.903298,7.51000022888184
1449.918923,7.98000001907349
1449.934548,8.52000045776367
1449.950173,9.22999954223633
1449.965798,10.1400003433228
1449.981423,11.1000003814697
1449.997048,11.9300003051758
1450.012673,12.7700004577637
1450.028298,14.5
1450.043923,18.5300006866455
1450.059548,25.8700008392334
1450.075173,36.0200004577637
1450.090798,46.7000007629395
1450.106423,54.9500007629395
1450.122048,58.7400016784668
1450.137673,57.7200012207031
1450.153298,52.9199981689453
1450.168923,46.0
1450.184548,38.3199996948242
1450.200173,30.5499992370605
1450.215798,22.75
1450.231423,14.7600002288818
1450.247048,6.53000020980835
1450.262673,-1.73000001907349
1450.278298,-9.60999965667725
1450.293923,-16.6000003814697
1450.309548,-22.3299999237061
1450.325173,-26.6100006103516
1450.340798,-29.5400009155273
1450.356423,-31.4300003051758
1450.372048,-32.5900001525879
1450.387673,-33.1399993896484
1450.403298,-33.0200004577637
1450.418923,-32.1199989318848
1450.434548,-30.5400009155273
1450.450173,-28.6100006103516
1450.465798,-26.7299995422363
1450.481423,-25.2000007629395
1450.497048,-24.0100002288818
1450.512673,-22.8400001525879
1450.528298,-21.3600006103516
1450.543923,-19.4899997711182
1450.559548,-17.3299999237061
1450.575173,-15.1000003814697
1450.590798,-13.0299997329712
1450.606423,-11.2299995422363
1450.622048,-9.67000007629395
1450.637673,-8.22999954223633
1450.653298,-6.76999998092651
1450.668923,-5.21999979019165
1450.684548,-3.65000009536743
1450.700173,-2.17000007629395
1450.715798,-0.829999983310699
1450.731423,0.389999985694885
1450.747048,1.48000001907349
1450.762673,2.38000011444092
1450.778298,3.05999994277954
1450.793923,3.57999992370605
1450.809548,4.07999992370605
1450.825173,4.59000015258789
1450.840798,5.11999988555908
1450.856423,5.69000005722046
1450.872048,6.28000020980835
1450.887673,6.78999996185303
1450.903298,7.05000019073486
1450.918923,6.96000003814697
1450.934548,6.61999988555908
1450.950173,6.55000019073486
1450.965798,7.88000011444092
1450.981423,12.1700000762939
1450.997048,20.1399993896484
1451.012673,30.5799999237061
1451.028298,40.6199989318848
1451.043923,47.310001373291
1451.059548,49.0099983215332
1451.075173,45.939998626709
1451.090798,39.7299995422363
1451.106423,32.3300018310547
1451.122048,25.0300006866455
1451.137673,18.1499996185303
1451.153298,11.4099998474121
1451.168923,4.46999979019165
1451.184548,-2.65000009536743
1451.200173,-9.56999969482422
1451.215798,-15.8100004196167
1451.231423,-21.0499992370605
1451.247048,-25.1599998474121
1451.262673,-28.0499992370605
1451.278298,-29.7600002288818
1451.293923,-30.4400005340576
1451.309548,-30.4500007629395
1451.325173,-30.1399993896484
1451.340798,-29.6299991607666
1451.356423,-28.7600002288818
1451.372048,-27.3400001525879
1451.387673,-25.4300003051758
1451.403298,-23.2000007629395
1451.418923,-20.8400001525879
1451.434548,-18.4500007629395
1451.450173,-16.0
1451.465798,-13.3599996566772
1451.481423,-10.0799999237061
1451.497048,-5.48000001907349
1451.512673,0.75
1451.528298,7.90999984741211
1451.543923,14.3800001144409
1451.559548,18.4400005340576
1451.575173,18.9899997711182
1451.590798,15.9899997711182
1451.606423,10.3599996566772
1451.622048,3.66000008583069
1451.637673,-2.53999996185303
1451.653298,-7.07999992370605
1451.668923,-9.39999961853027
1451.684548,-9.68000030517578
1451.700173,-8.60000038146973
1451.715798,-7.01000022888184
1451.731423,-5.57999992370605
1451.747048,-4.65000009536743
1451.762673,-4.09999990463257
1451.778298,-3.64000010490417
1451.793923,-3.0699999332428
1451.809548,-2.38000011444092
1451.825173,-1.62000000476837
1451.840798,-0.800000011920929
1451.856423,0.119999997317791
1451.872048,1.0900000333786
1451.887673,1.92999994754791
1451.903298,2.45000004768372
1451.918923,2.61999988555908
1451.934548,2.66000008583069
1451.950173,2.90000009536743
1451.965798,3.52999997138977
1451.981423,4.48999977111816
1451.997048,5.5
1452.012673,6.30999994277954
1452.028298,6.84000015258789
1452.043923,7.11999988555908
1452.059548,7.28000020980835
1452.075173,7.42000007629395
1452.090798,7.53000020980835
1452.106423,7.59000015258789
1452.122048,7.65999984741211
1452.137673,7.82999992370605
1452.153298,8.14999961853027
1452.168923,8.46000003814697
1452.184548,8.52999973297119
1452.200173,8.25
1452.215798,7.78999996185303
1452.231423,7.46999979019165
1452.247048,7.44999980926514
1452.262673,7.71999979019165
1452.278298,8.14999961853027
1452.293923,8.5600004196167
1452.309548,8.77000045776367
1452.325173,8.6899995803833
1452.340798,8.42000007629395
1452.356423,8.13000011444092
1452.372048,7.88000011444092
1452.387673,7.55000019073486
1452.403298,7.01000022888184
1452.418923,6.17000007629395
1452.434548,5.05999994277954
1452.450173,3.88000011444092
1452.465798,2.88000011444092
1452.481423,2.52999997138977
1452.497048,3.63000011444092
1452.512673,7.09000015258789
1452.528298,13.1400003433228
1452.543923,20.8600006103516
1452.559548,28.3199996948242
1452.575173,33.4599990844727
1452.590798,35.0
1452.606423,32.8499984741211
1452.622048,27.7900009155273
1452.637673,20.9699993133545
1452.653298,13.4300003051758
1452.668923,5.84999990463257
1452.684548,-1.44000005722046
1452.700173,-8.31999969482422
1452.715798,-14.6300001144409
1452.731423,-20.2800006866455
1452.747048,-25.1100006103516
1452.762673,-28.9400005340576
1452.778298,-31.6499996185303
1452.793923,-33.1800003051758
1452.809548,-33.5999984741211
1452.825173,-33.1599998474121
1452.840798,-32.2400016784668
1452.856423,-31.1299991607666
1452.872048,-29.8400001525879
1452.887673,-28.2700004577637
1452.903298,-26.3500003814697
1452.918923,-24.25
1452.934548,-22.1700000762939
1452.950173,-20.2000007629395
1452.965798,-18.3199996948242
1452.981423,-16.5200004577637
1452.997048,-14.8199996948242
1453.012673,-13.210000038147
1453.028298,-11.6300001144409
1453.043923,-9.98999977111816
1453.059548,-8.3100004196167
1453.075173,-6.73999977111816
1453.090798,-5.44000005722046
1453.106423,-4.46000003814697
1453.122048,-3.63000011444092
1453.137673,-2.77999997138977
1453.153298,-1.8400000333786
1453.168923,-0.819999992847443
1453.184548,0.239999994635582
1453.200173,1.25999999046326
1453.215798,2.15000009536743
1453.231423,2.94000005722046
1453.247048,3.76999998092651
1453.262673,4.69999980926514
1453.278298,5.59999990463257
1453.293923,6.26000022888184
1453.309548,6.55999994277954
1453.325173,6.61999988555908
1453.340798,6.6399998664856
1453.356423,6.73999977111816
1453.372048,6.92999982833862
1453.387673,7.15999984741211
1453.403298,7.30000019073486
1453.418923,7.26000022888184
1453.434548,7.05999994277954
1453.450173,6.84000015258789
1453.465798,6.92000007629395
1453.481423,7.90999984741211
1453.497048,10.6199998855591
1453.512673,15.5500001907349
1453.528298,22.1299991607666
1453.543923,28.7299995422363
1453.559548,33.439998626709
1453.575173,35.1199989318848
1453.590798,33.7799987792969
1453.606423,30.1700000762939
1453.622048,25.25
1453.637673,19.6599998474121
1453.653298,13.6400003433228
1453.668923,7.28000020980835
1453.684548,0.769999980926514
1453.700173,-5.44999980926514
1453.715798,-10.789999961853
1453.731423,-14.6899995803833
1453.747048,-17.0
1453.762673,-18.0300006866455
1453.778298,-18.2399997711182
1453.793923,-17.9899997711182
1453.809548,-17.4899997711182
1453.825173,-16.8299999237061
1453.840798,-16.0699996948242
1453.856423,-15.1899995803833
1453.872048,-14.1700000762939
1453.887673,-13.0299997329712
1453.903298,-11.8400001525879
1453.918923,-10.6700000762939
1453.934548,-9.53999996185303
1453.950173,-8.36999988555908
1453.965798,-7.09999990463257
1453.981423,-5.80000019073486
1453.997048,-4.65000009536743
1454.012673,-3.77999997138977
1454.028298,-3.15000009536743
1454.043923,-2.53999996185303
1454.059548,-1.78999996185303
1454.075173,-0.910000026226044
1454.090798,-0.0199999995529652
1454.106423,0.730000019073486
1454.122048,1.35000002384186
1454.137673,1.96000003814697
1454.153298,2.59999990463257
1454.168923,3.36999988555908
1454.184548,4.30000019073486
1454.200173,5.28000020980835
1454.215798,6.01999998092651
1454.231423,6.28000020980835
1454.247048,6.05000019073486
1454.262673,5.5
1454.278298,4.82999992370605
1454.293923,4.21000003814697
1454.309548,3.69000005722046
1454.325173,3.27999997138977
1454.340798,3.03999996185303
1454.356423,3.20000004768372
1454.372048,4.26000022888184
1454.387673,6.71999979019165
1454.403298,10.8500003814697
1454.418923,16.6599998474121
1454.434548,23.5599994659424
1454.450173,30.1599998474121
1454.465798,34.8400001525879
1454.481423,36.5499992370605
1454.497048,35.1800003051758
1454.512673,31.3199996948242
1454.528298,25.8700008392334
1454.543923,19.5300006866455
1454.559548,12.6400003433228
1454.575173,5.36999988555908
1454.590798,-2.07999992370605
1454.606423,-9.39999961853027
1454.622048,-16.1399993896484
1454.637673,-21.7099990844727
1454.653298,-25.6499996185303
1454.668923,-27.8700008392334
1454.684548,-28.6800003051758
1454.700173,-28.6100006103516
1454.715798,-28.1299991607666
1454.731423,-27.4300003051758
1454.747048,-26.5
1454.762673,-25.3299999237061
1454.778298,-23.9300003051758
1454.793923,-22.3099994659424
1454.809548,-20.5499992370605
1454.825173,-18.7999992370605
1454.840798,-17.0900001525879
1454.856423,-15.3999996185303
1454.872048,-13.7200002670288
1454.887673,-12.1000003814697
1454.903298,-10.6599998474121
1454.918923,-9.42000007629395
1454.934548,-8.34000015258789
1454.950173,-7.36999988555908
1454.965798,-6.46999979019165
1454.981423,-5.55999994277954
1454.997048,-4.51999998092651
1455.012673,-3.27999997138977
1455.028298,-1.82000005245209
1455.043923,-0.239999994635582
1455.059548,1.22000002861023
1455.075173,2.36999988555908
1455.090798,3.15000009536743
1455.106423,3.71000003814697
1455.122048,4.32000017166138
1455.137673,5.15999984741211
1455.153298,6.19999980926514
1455.168923,7.21999979019165
1455.184548,8.02000045776367
1455.200173,8.55000019073486
1455.215798,8.85000038146973
1455.231423,8.93000030517578
1455.247048,8.85000038146973
1455.262673,8.71000003814697
1455.278298,8.56999969482422
1455.293923,8.39999961853027
1455.309548,8.28999996185303
1455.325173,8.85999965667725
1455.340798,11.2799997329712
1455.356423,16.6599998474121
1455.372048,25.0100002288818
1455.387673,34.7599983215332
1455.403298,43.4099998474121
1455.418923,48.7099990844727
1455.434548,49.6199989318848
1455.450173,46.5400009155273
1455.465798,40.7700004577637
1455.481423,33.6399993896484
1455.497048,26.0100002288818
1455.512673,18.2700004577637
1455.528298,10.5299997329712
1455.543923,2.74000000953674
1455.559548,-4.96999979019165
1455.575173,-12.2600002288818
1455.590798,-18.6499996185303
1455.606423,-23.7099990844727
1455.622048,-27.1900005340576
1455.637673,-29.1599998474121
1455.653298,-30.0300006866455
1455.668923,-30.2999992370605
1455.684548,-30.3099994659424
1455.700173,-30.1200008392334
1455.715798,-29.5900001525879
1455.731423,-28.6499996185303
1455.747048,-27.3199996948242
1455.762673,-25.6900005340576
1455.778298,-23.8400001525879
1455.793923,-21.8099994659424
1455.809548,-19.6900005340576
1455.825173,-17.6700000762939
1455.840798,-15.8699998855591
1455.856423,-14.289999961853
1455.872048,-12.8299999237061
1455.887673,-11.3299999237061
1455.903298,-9.69999980926514
1455.918923,-7.98000001907349
1455.934548,-6.32000017166138
1455.950173,-4.8899998664856
1455.965798,-3.76999998092651
1455.981423,-2.84999990463257
1455.997048,-1.98000001907349
1456.012673,-1.0
1456.028298,0.159999996423721
1456.043923,1.49000000953674
1456.059548,2.80999994277954
1456.075173,4.01000022888184
1456.090798,5.09999990463257
1456.106423,6.11999988555908
1456.122048,6.98999977111816
1456.137673,7.67000007629395
1456.153298,8.21000003814697
1456.168923,8.77000045776367
1456.184548,9.38000011444092
1456.200173,9.89000034332275
1456.215798,10.0900001525879
1456.231423,9.90999984741211
1456.247048,9.60999965667725
1456.262673,9.97000026702881
1456.278298,12.289999961853
1456.293923,17.7099990844727
1456.309548,26.1399993896484
1456.325173,35.9700012207031
1456.340798,44.6100006103516
1456.356423,49.7700004577637
1456.372048,50.5099983215332
1456.387673,47.439998626709
1456.403298,42.0400009155273
1456.418923,35.7599983215332
1456.434548,29.3500003814697
1456.450173,22.8999996185303
1456.465798,16.0699996948242
1456.481423,8.5600004196167
1456.497048,0.479999989271164
1456.512673,-7.59999990463257
1456.528298,-15.0500001907349
1456.543923,-21.3299999237061
1456.559548,-26.0200004577637
1456.575173,-28.9200000762939
1456.590798,-30.1900005340576
1456.606423,-30.3400001525879
1456.622048,-29.8500003814697
1456.637673,-29.1100006103516
1456.653298,-28.4599990844727
1456.668923,-28.2000007629395
1456.684548,-28.4200000762939
1456.700173,-28.9200000762939
1456.715798,-29.2600002288818
1456.731423,-29.0400009155273
1456.747048,-28.1200008392334
1456.762673,-26.6100006103516
1456.778298,-24.6399993896484
1456.793923,-22.3400001525879
1456.809548,-19.7999992370605
1456.825173,-17.2000007629395
1456.840798,-14.7799997329712
1456.856423,-12.6499996185303
1456.872048,-10.7700004577637
1456.887673,-9.02000045776367
1456.903298,-7.30000019073486
1456.918923,-5.59999990463257
1456.934548,-3.94000005722046
1456.950173,-2.32999992370605
1456.965798,-0.75
1456.981423,0.730000019073486
1456.997048,2.04999995231628
1457.012673,3.20000004768372
1457.028298,4.28999996185303
1457.043923,5.48000001907349
1457.059548,6.76999998092651
1457.075173,8.0600004196167
1457.090798,9.10999965667725
1457.106423,9.82999992370605
1457.122048,10.289999961853
1457.137673,10.9099998474121
1457.153298,12.5799999237061
1457.168923,16.9400005340576
1457.184548,25.3600006103516
1457.200173,37.3400001525879
1457.215798,50.1699981689453
1457.231423,60.2999992370605
1457.247048,65.1900024414063
1457.262673,64.370002746582
1457.278298,59.2299995422363
1457.293923,51.8699989318848
1457.309548,44.0
1457.325173,36.4900016784668
1457.340798,29.3700008392334
1457.356423,22.1399993896484
1457.372048,14.2200002670288
1457.387673,5.42999982833862
1457.403298,-3.86999988555908
1457.418923,-13.1199998855591
1457.434548,-21.8400001525879
1457.450173,-29.5900001525879
1457.465798,-35.9799995422363
1457.481423,-40.7099990844727
1457.497048,-43.7700004577637
1457.512673,-45.4500007629395
1457.528298,-46.1300010681152
1457.543923,-46.0400009155273
1457.559548,-45.2200012207031
1457.575173,-43.7000007629395
1457.590798,-41.6100006103516
1457.606423,-39.1199989318848
1457.622048,-36.3499984741211
1457.637673,-33.3800010681152
1457.653298,-30.3999996185303
1457.668923,-27.5499992370605
1457.684548,-24.7800006866455
1457.700173,-21.9699993133545
1457.715798,-19.1200008392334
1457.731423,-16.3799991607666
1457.747048,-13.8400001525879
1457.762673,-11.4099998474121
1457.778298,-8.97000026702881
1457.793923,-6.5
1457.809548,-4.0
1457.825173,-1.58000004291534
1457.840798,0.639999985694885
1457.856423,2.61999988555908
1457.872048,4.3600001335144
1457.887673,5.86999988555908
1457.903298,7.1399998664856
1457.918923,8.18000030517578
1457.934548,9.09000015258789
1457.950173,10.0200004577637
1457.965798,11.1000003814697
1457.981423,12.3000001907349
1457.997048,13.4099998474121
1458.012673,14.2299995422363
1458.028298,14.6999998092651
1458.043923,14.9300003051758
1458.059548,15.1000003814697
1458.075173,15.2600002288818
1458.090798,15.5699996948242
1458.106423,16.4200000762939
1458.122048,18.6800003051758
1458.137673,23.4799995422363
1458.153298,31.3600006103516
1458.168923,41.4500007629395
1458.184548,51.4799995422363
1458.200173,58.810001373291
1458.215798,61.6300010681152
1458.231423,59.7599983215332
1458.247048,54.439998626709
1458.262673,47.3600006103516
1458.278298,39.75
1458.293923,32.1699981689453
1458.309548,24.6499996185303
1458.325173,16.9400005340576
1458.340798,8.84000015258789
1458.356423,0.370000004768372
1458.372048,-8.02999973297119
1458.387673,-15.7200002670288
1458.403298,-21.9599990844727
1458.418923,-26.2299995422363
1458.434548,-28.5
1458.450173,-29.3700008392334
1458.465798,-29.75
1458.481423,-30.3500003814697
1458.497048,-31.4599990844727
1458.512673,-32.9900016784668
1458.528298,-34.5499992370605
1458.543923,-35.6699981689453
1458.559548,-35.9599990844727
1458.575173,-35.3199996948242
1458.590798,-33.9300003051758
1458.606423,-32.0900001525879
1458.622048,-30.0499992370605
1458.637673,-27.9099998474121
1458.653298,-25.6399993896484
1458.668923,-23.1900005340576
1458.684548,-20.5400009155273
1458.700173,-17.7900009155273
1458.715798,-15.1300001144409
1458.731423,-12.6999998092651
1458.747048,-10.4899997711182
1458.762673,-8.4399995803833
1458.778298,-6.51000022888184
1458.793923,-4.71000003814697
1458.809548,-3.07999992370605
1458.825173,-1.61000001430511
1458.840798,-0.209999993443489
1458.856423,1.20000004768372
1458.872048,2.66000008583069
1458.887673,4.1100001335144
1458.903298,5.57000017166138
1458.918923,7.01000022888184
1458.934548,8.27999973297119
1458.950173,9.19999980926514
1458.965798,9.77000045776367
1458.981423,10.1300001144409
1458.997048,10.5100002288818
1459.012673,11.0100002288818
1459.028298,11.5600004196167
1459.043923,12.0100002288818
1459.059548,12.2600002288818
1459.075173,12.4700002670288
1459.090798,13.210000038147
1459.106423,15.5699996948242
1459.122048,20.7700004577637
1459.137673,29.2099990844727
1459.153298,39.6800003051758
1459.168923,49.6300010681152
1459.184548,56.3499984741211
1459.200173,58.2599983215332
1459.215798,55.4000015258789
1459.231423,49.1500015258789
1459.247048,41.2799987792969
1459.262673,33.1599998474121
1459.278298,25.4099998474121
1459.293923,17.9699993133545
1459.309548,10.4499998092651
1459.325173,2.59999990463257
1459.340798,-5.40999984741211
1459.356423,-13.0799999237061
1459.372048,-19.8700008392334
1459.387673,-25.3400001525879
1459.403298,-29.3299999237061
1459.418923,-32.0099983215332
1459.434548,-33.7700004577637
1459.450173,-35.0499992370605
1459.465798,-36.2000007629395
1459.481423,-37.2700004577637
1459.497048,-38.060001373291
1459.512673,-38.25
1459.528298,-37.6699981689453
1459.543923,-36.3600006103516
1459.559548,-34.4799995422363
1459.575173,-32.2200012207031
1459.590798,-29.7900009155273
1459.606423,-27.2600002288818
1459.622048,-24.6499996185303
1459.637673,-21.9500007629395
1459.653298,-19.2000007629395
1459.668923,-16.4799995422363
1459.684548,-13.8900003433228
1459.700173,-11.5500001907349
1459.715798,-9.48999977111816
1459.731423,-7.6100001335144
1459.747048,-5.78000020980835
