Time(s),Value(%)
1668.0125088,-19.5100002288818
1668.0281338,-16.2399997711182
1668.0437588,-12.2799997329712
1668.0593838,-8.47999954223633
1668.0750088,-5.26999998092651
1668.0906338,-1.38999998569489
1668.1062588,6.32000017166138
1668.1218838,21.0900001525879
1668.1375088,43.5099983215332
1668.1531338,69.9199981689453
1668.1687588,93.7900009155273
1668.1843838,108.860000610352
1668.2000088,112.150001525879
1668.2156338,104.970001220703
1668.2312588,91.75
1668.2468838,77.6500015258789
1668.2625088,66.1699981689453
1668.2781338,58.189998626709
1668.2937588,52.3400001525879
1668.3093838,46.310001373291
1668.3250088,38.1599998474121
1668.3406338,27.2000007629395
1668.3562588,14.1800003051758
1668.3718838,0.939999997615814
1668.3875088,-10.4499998092651
1668.4031338,-18.5900001525879
1668.4187588,-23.3999996185303
1668.4343838,-26.0300006866455
1668.4500088,-28.1100006103516
1668.4656338,-30.8999996185303
1668.4812588,-34.8699989318848
1668.4968838,-39.8400001525879
1668.5125088,-45.25
1668.5281338,-50.4300003051758
1668.5437588,-54.7299995422363
1668.5593838,-57.6599998474121
1668.5750088,-58.8800010681152
1668.5906338,-58.060001373291
1668.6062588,-55.2099990844727
1668.6218838,-50.9099998474121
1668.6375088,-46.2000007629395
1668.6531338,-42.1100006103516
1668.6687588,-39.1699981689453
1668.6843838,-37.2900009155273
1668.7000088,-35.9199981689453
1668.7156338,-34.0800018310547
1668.7312588,-30.7099990844727
1668.7468838,-25.2000007629395
1668.7625088,-17.9400005340576
1668.7781338,-10.0699996948242
1668.7937588,-2.91000008583069
1668.8093838,2.57999992370605
1668.8250088,6.34999990463257
1668.8406338,9.67000007629395
1668.8562588,15.2799997329712
1668.8718838,26.2000007629395
1668.8875088,43.4900016784668
1668.9031338,64.5899963378906
1668.9187588,84.0699996948242
1668.9343838,96.3399963378906
1668.9500088,98.4300003051758
1668.9656338,91.0400009155273
1668.9812588,77.5800018310547
1668.9968838,62.0499992370605
1669.0125088,47.4500007629395
1669.0281338,35.1800003051758
1669.0437588,25.2199993133545
1669.0593838,16.5900001525879
1669.0750088,7.96000003814697
1669.0906338,-1.52999997138977
1669.1062588,-11.6800003051758
1669.1218838,-21.2399997711182
1669.1375088,-28.7299995422363
1669.1531338,-33.2700004577637
1669.1687588,-34.9700012207031
1669.1843838,-34.810001373291
1669.2000088,-34.2299995422363
1669.2156338,-34.5200004577637
1669.2312588,-36.2299995422363
1669.2468838,-39.0800018310547
1669.2625088,-42.2700004577637
1669.2781338,-45.0299987792969
1669.2937588,-46.8499984741211
1669.3093838,-47.4000015258789
1669.3250088,-46.6300010681152
1669.3406338,-44.9300003051758
1669.3562588,-43.0099983215332
1669.3718838,-41.3300018310547
1669.3875088,-39.560001373291
1669.4031338,-37.0699996948242
1669.4187588,-33.7299995422363
1669.4343838,-30.1299991607666
1669.4500088,-27.1100006103516
1669.4656338,-24.9899997711182
1669.4812588,-23.5300006866455
1669.4968838,-22.1100006103516
1669.5125088,-20.0599994659424
1669.5281338,-16.8700008392334
1669.5437588,-12.6000003814697
1669.5593838,-7.86999988555908
1669.5750088,-3.21000003814697
1669.5906338,1.97000002861023
1669.6062588,10.0100002288818
1669.6218838,24.1000003814697
1669.6375088,45.7900009155273
1669.6531338,72.6800003051758
1669.6687588,98.5699996948242
1669.6843838,116.169998168945
1669.7000088,120.599998474121
1669.7156338,111.459999084473
1669.7312588,92.6900024414063
1669.7468838,70.2900009155273
1669.7625088,49.6500015258789
1669.7781338,33.7700004577637
1669.7937588,22.9599990844727
1669.8093838,15.5900001525879
1669.8250088,9.40999984741211
1669.8406338,2.74000000953674
1669.8562588,-4.73000001907349
1669.8718838,-11.9899997711182
1669.8875088,-17.5599994659424
1669.9031338,-20.6599998474121
1669.9187588,-21.7099990844727
1669.9343838,-21.7900009155273
1669.9500088,-21.8899993896484
1669.9656338,-22.5400009155273
1669.9812588,-23.9599990844727
1669.9968838,-26.2299995422363
1670.0125088,-29.1499996185303
1670.0281338,-32.2200012207031
1670.0437588,-34.8300018310547
1670.0593838,-36.3800010681152
1670.0750088,-36.4000015258789
1670.0906338,-34.7200012207031
1670.1062588,-31.7299995422363
1670.1218838,-28.1900005340576
1670.1375088,-24.9300003051758
1670.1531338,-22.4899997711182
1670.1687588,-20.9400005340576
1670.1843838,-20.0799999237061
1670.2000088,-19.7099990844727
1670.2156338,-19.6800003051758
1670.2312588,-19.7700004577637
1670.2468838,-19.7800006866455
1670.2625088,-19.6499996185303
1670.2781338,-19.3199996948242
1670.2937588,-18.6499996185303
1670.3093838,-17.3799991607666
1670.3250088,-15.0600004196167
1670.3406338,-10.6599998474121
1670.3562588,-2.23000001907349
1670.3718838,12.4200000762939
1670.3875088,33.7999992370605
1670.4031338,58.8699989318848
1670.4187588,81.6100006103516
1670.4343838,95.75
1670.4500088,97.6900024414063
1670.4656338,87.870002746582
1670.4812588,70.0899963378906
1670.4968838,49.5499992370605
1670.5125088,30.7000007629395
1670.5281338,15.9399995803833
1670.5437588,5.53999996185303
1670.5593838,-1.42999994754791
1670.5750088,-6.03000020980835
1670.5906338,-8.89000034332275
1670.6062588,-10.2799997329712
1670.6218838,-10.5200004577637
1670.6375088,-10.1800003051758
1670.6531338,-10.039999961853
1670.6687588,-10.8100004196167
1670.6843838,-12.7700004577637
1670.7000088,-15.6400003433228
1670.7156338,-18.7000007629395
1670.7312588,-21.2999992370605
1670.7468838,-23.2800006866455
1670.7625088,-24.9899997711182
1670.7781338,-26.7600002288818
1670.7937588,-28.3799991607666
1670.8093838,-29.0200004577637
1670.8250088,-27.9899997711182
1670.8406338,-25.3299999237061
1670.8562588,-21.8099994659424
1670.8718838,-18.5900001525879
1670.8875088,-16.6900005340576
1670.9031338,-16.5400009155273
1670.9187588,-17.6800003051758
1670.9343838,-19.2399997711182
1670.9500088,-20.4699993133545
1670.9656338,-20.9500007629395
1670.9812588,-20.4599990844727
1670.9968838,-18.8199996948242
1671.0125088,-15.8500003814697
1671.0281338,-11.3699998855591
1671.0437588,-4.94999980926514
1671.0593838,4.53000020980835
1671.0750088,18.5300006866455
1671.0906338,37.2700004577637
1671.1062588,58.4000015258789
1671.1218838,77.0999984741211
1671.1375088,88.0800018310547
1671.1531338,88.1800003051758
1671.1687588,77.879997253418
1671.1843838,60.7599983215332
1671.2000088,41.6300010681152
1671.2156338,24.7700004577637
1671.2312588,12.6800003051758
1671.2468838,5.44000005722046
1671.2625088,1.26999998092651
1671.2781338,-2.0
1671.2937588,-5.48000001907349
1671.3093838,-8.97999954223633
1671.3250088,-11.7600002288818
1671.3406338,-13.5500001907349
1671.3562588,-14.8599996566772
1671.3718838,-16.4200000762939
1671.3875088,-18.6100006103516
1671.4031338,-21.4500007629395
1671.4187588,-24.6200008392334
1671.4343838,-27.4200000762939
1671.4500088,-28.9699993133545
1671.4656338,-28.75
1671.4812588,-27.1200008392334
1671.4968838,-25.0699996948242
1671.5125088,-23.4599990844727
1671.5281338,-22.4699993133545
1671.5437588,-21.7999992370605
1671.5593838,-21.1200008392334
1671.5750088,-20.3400001525879
1671.5906338,-19.6499996185303
1671.6062588,-19.2700004577637
1671.6218838,-19.2999992370605
1671.6375088,-19.5400009155273
1671.6531338,-19.5
1671.6687588,-18.7000007629395
1671.6843838,-17.1200008392334
1671.7000088,-15.2600002288818
1671.7156338,-13.1800003051758
1671.7312588,-9.64000034332275
1671.7468838,-2.00999999046326
1671.7625088,12.1700000762939
1671.7781338,33.060001373291
1671.7937588,57.1500015258789
1671.8093838,78.2300033569336
1671.8250088,90.3300018310547
1671.8406338,90.5299987792969
1671.8562588,80.0299987792969
1671.8718838,63.0099983215332
1671.8875088,44.4799995422363
1671.9031338,28.1900005340576
1671.9187588,15.6400003433228
1671.9343838,6.46000003814697
1671.9500088,-0.560000002384186
1671.9656338,-6.69999980926514
1671.9812588,-12.9200000762939
1671.9968838,-19.4799995422363
1672.0125088,-25.7999992370605
1672.0281338,-30.9599990844727
1672.0437588,-34.3699989318848
1672.0593838,-36.1300010681152
1672.0750088,-36.8499984741211
1672.0906338,-37.189998626709
1672.1062588,-37.5800018310547
1672.1218838,-38.2599983215332
1672.1375088,-39.3400001525879
1672.1531338,-40.6599998474121
1672.1687588,-41.7700004577637
1672.1843838,-42.3300018310547
1672.2000088,-42.3699989318848
1672.2156338,-42.1300010681152
1672.2312588,-41.5499992370605
1672.2468838,-40.1300010681152
1672.2625088,-37.3699989318848
1672.2781338,-33.3699989318848
1672.2937588,-28.9899997711182
1672.3093838,-25.3199996948242
1672.3250088,-23.0300006866455
1672.3406338,-22.1100006103516
1672.3562588,-22.0400009155273
1672.3718838,-22.0400009155273
1672.3875088,-21.2299995422363
1672.4031338,-18.7999992370605
1672.4187588,-13.9399995803833
1672.4343838,-5.32000017166138
1672.4500088,8.98999977111816
1672.4656338,30.4799995422363
1672.4812588,58.0200004577637
1672.4968838,86.8499984741211
1672.5125088,110.129997253418
1672.5281338,122.089996337891
1672.5437588,120.75
1672.5593838,108.519996643066
1672.5750088,90.5800018310547
1672.5906338,72.25
1672.6062588,56.8199996948242
1672.6218838,44.9500007629395
1672.6375088,35.4599990844727
1672.6531338,26.6000003814697
1672.6687588,16.8999996185303
1672.6843838,5.51999998092651
1672.7000088,-7.3899998664856
1672.7156338,-20.5799999237061
1672.7312588,-32.2299995422363
1672.7468838,-40.7999992370605
1672.7625088,-45.7099990844727
1672.7781338,-47.4900016784668
1672.7937588,-47.5
1672.8093838,-47.3899993896484
1672.8250088,-48.5
1672.8406338,-51.4199981689453
1672.8562588,-55.7900009155273
1672.8718838,-60.4099998474121
1672.8875088,-63.9099998474121
1672.9031338,-65.3899993896484
1672.9187588,-64.6800003051758
1672.9343838,-62.2400016784668
1672.9500088,-58.6300010681152
1672.9656338,-54.3699989318848
1672.9812588,-50.0699996948242
1672.9968838,-46.3400001525879
1673.0125088,-43.3899993896484
1673.0281338,-40.7900009155273
1673.0437588,-37.8899993896484
1673.0593838,-34.310001373291
1673.0750088,-30.1599998474121
1673.0906338,-25.8700008392334
1673.1062588,-21.8999996185303
1673.1218838,-18.1200008392334
1673.1375088,-13.3299999237061
1673.1531338,-5.01999998092651
1673.1687588,9.78999996185303
1673.1843838,32.4000015258789
1673.2000088,60.5400009155273
1673.2156338,88.6699981689453
1673.2312588,110.309997558594
1673.2468838,120.870002746582
1673.2625088,119.5
1673.2781338,108.949996948242
1673.2937588,93.9499969482422
1673.3093838,79.0800018310547
1673.3250088,67.1100006103516
1673.3406338,58.3699989318848
1673.3562588,51.2299995422363
1673.3718838,43.3499984741211
1673.3875088,32.8699989318848
1673.4031338,19.1000003814697
1673.4187588,2.83999991416931
1673.4343838,-13.7299995422363
1673.4500088,-27.9599990844727
1673.4656338,-37.9900016784668
1673.4812588,-43.5999984741211
1673.4968838,-45.8400001525879
1673.5125088,-46.2299995422363
1673.5281338,-46.2599983215332
1673.5437588,-47.189998626709
1673.5593838,-49.6800003051758
1673.5750088,-53.4599990844727
1673.5906338,-57.3899993896484
1673.6062588,-60.1399993896484
1673.6218838,-60.9700012207031
1673.6375088,-59.8899993896484
1673.6531338,-57.310001373291
1673.6687588,-53.6300010681152
1673.6843838,-49.1699981689453
1673.7000088,-44.1300010681152
1673.7156338,-38.560001373291
1673.7312588,-32.5299987792969
1673.7468838,-26.3299999237061
1673.7625088,-20.5100002288818
1673.7781338,-15.7600002288818
1673.7937588,-12.6199998855591
1673.8093838,-11.1499996185303
1673.8250088,-10.8500003814697
1673.8406338,-10.7299995422363
1673.8562588,-9.22000026702881
1673.8718838,-3.97000002861023
1673.8875088,7.92999982833862
1673.9031338,28.4500007629395
1673.9187588,56.3400001525879
1673.9343838,86.3399963378906
1673.9500088,111.230003356934
1673.9656338,125.309997558594
1673.9812588,126.839996337891
1673.9968838,118.089996337891
1674.0125088,103.610000610352
1674.0281338,87.9400024414063
1674.0437588,73.9400024414063
1674.0593838,62.4000015258789
1674.0750088,52.5
1674.0906338,42.7900009155273
1674.1062588,31.9300003051758
1674.1218838,19.3700008392334
1674.1375088,5.67000007629395
1674.1531338,-7.6399998664856
1674.1687588,-18.6200008392334
1674.1843838,-25.7099990844727
1674.2000088,-28.6399993896484
1674.2156338,-28.7099990844727
1674.2312588,-28.0499992370605
1674.2468838,-28.4500007629395
1674.2625088,-30.5900001525879
1674.2781338,-34.0400009155273
1674.2937588,-37.7599983215332
1674.3093838,-40.7900009155273
1674.3250088,-42.560001373291
1674.3406338,-42.9099998474121
1674.3562588,-42.0299987792969
1674.3718838,-40.2200012207031
1674.3875088,-37.6100006103516
1674.4031338,-34.189998626709
1674.4187588,-30.0599994659424
1674.4343838,-25.6200008392334
1674.4500088,-21.4799995422363
1674.4656338,-18.2000007629395
1674.4812588,-16.2600002288818
1674.4968838,-15.8000001907349
1674.5125088,-16.3600006103516
1674.5281338,-17.0799999237061
1674.5437588,-17.1900005340576
1674.5593838,-16.1000003814697
1674.5750088,-13.1400003433228
1674.5906338,-6.96000003814697
1674.6062588,4.51999998092651
1674.6218838,23.1700000762939
1674.6375088,48.5099983215332
1674.6531338,76.6699981689453
1674.6687588,101.430000305176
1674.6843838,116.879997253418
1674.7000088,119.949996948242
1674.7156338,111.519996643066
1674.7312588,95.6399993896484
1674.7468838,77.5800018310547
1674.7625088,61.6199989318848
1674.7781338,49.6100006103516
1674.7937588,40.8899993896484
1674.8093838,33.2799987792969
1674.8250088,24.6299991607666
1674.8406338,13.8599996566772
1674.8562588,1.36000001430511
1674.8718838,-11.3400001525879
1674.8875088,-22.4500007629395
1674.9031338,-30.7999992370605
1674.9187588,-36.310001373291
1674.9343838,-39.7999992370605
1674.9500088,-42.3499984741211
1674.9656338,-44.7000007629395
1674.9812588,-47.2099990844727
1674.9968838,-49.8499984741211
1675.0125088,-52.1399993896484
1675.0281338,-53.2299995422363
1675.0437588,-52.5
1675.0593838,-50.2200012207031
1675.0750088,-47.2599983215332
1675.0906338,-44.2000007629395
1675.1062588,-40.8899993896484
1675.1218838,-36.9000015258789
1675.1375088,-32.2799987792969
1675.1531338,-27.5599994659424
1675.1687588,-23.3799991607666
1675.1843838,-20.1700000762939
1675.2000088,-18.0900001525879
1675.2156338,-17.1000003814697
1675.2312588,-16.9099998474121
1675.2468838,-17.0900001525879
1675.2625088,-17.1900005340576
1675.2781338,-16.7399997711182
1675.2937588,-14.7799997329712
1675.3093838,-9.5600004196167
1675.3250088,1.19000005722046
1675.3406338,18.9899997711182
1675.3562588,43.060001373291
1675.3718838,69.6699981689453
1675.3875088,92.9899978637695
1675.4031338,107.349998474121
1675.4187588,109.839996337891
1675.4343838,101.73999786377
1675.4500088,87.5100021362305
1675.4656338,72.2799987792969
1675.4812588,59.4500007629395
1675.4968838,49.75
1675.5125088,41.9000015258789
1675.5281338,33.9300003051758
1675.5437588,24.2399997711182
1675.5593838,12.4300003051758
1675.5750088,-0.620000004768372
1675.5906338,-13.2299995422363
1675.6062588,-23.75
1675.6218838,-31.3899993896484
1675.6375088,-36.4900016784668
1675.6531338,-39.9500007629395
1675.6687588,-42.560001373291
1675.6843838,-44.8699989318848
1675.7000088,-47.4900016784668
1675.7156338,-50.8699989318848
1675.7312588,-54.8699989318848
1675.7468838,-58.7299995422363
1675.7625088,-61.5999984741211
1675.7781338,-63.0099983215332
1675.7937588,-62.9199981689453
1675.8093838,-61.439998626709
1675.8250088,-58.6199989318848
1675.8406338,-54.6199989318848
1675.8562588,-50.060001373291
1675.8718838,-45.810001373291
1675.8875088,-42.4799995422363
1675.9031338,-40.2599983215332
1675.9187588,-38.9000015258789
1675.9343838,-37.9000015258789
1675.9500088,-36.560001373291
1675.9656338,-34.2700004577637
1675.9812588,-30.8700008392334
1675.9968838,-26.6700000762939
1676.0125088,-22.1499996185303
1676.0281338,-17.2399997711182
1676.0437588,-10.5900001525879
1676.0593838,0.490000009536743
1676.0750088,18.7199993133545
1676.0906338,44.4799995422363
1676.1062588,74.25
1676.1218838,101.669998168945
1676.1375088,120.389999389648
1676.1531338,126.930000305176
1676.1687588,121.779998779297
1676.1843838,108.660003662109
1676.2000088,92.5100021362305
1676.2156338,77.4000015258789
1676.2312588,65.1399993896484
1676.2468838,55.0800018310547
1676.2625088,45.0900001525879
1676.2781338,33.0099983215332
1676.2937588,18.0300006866455
1676.3093838,1.24000000953674
1676.3250088,-14.8299999237061
1676.3406338,-27.6700000762939
1676.3562588,-36.060001373291
1676.3718838,-40.6599998474121
1676.3875088,-43.2700004577637
1676.4031338,-45.6699981689453
1676.4187588,-48.7099990844727
1676.4343838,-52.2299995422363
1676.4500088,-55.4199981689453
1676.4656338,-57.3699989318848
1676.4812588,-57.6800003051758
1676.4968838,-56.5800018310547
1676.5125088,-54.7599983215332
1676.5281338,-53.0800018310547
1676.5437588,-52.1300010681152
1676.5593838,-51.8600006103516
1676.5750088,-51.4799995422363
1676.5906338,-50.0
1676.6062588,-46.7999992370605
1676.6218838,-41.939998626709
1676.6375088,-36.1199989318848
1676.6531338,-30.2999992370605
1676.6687588,-25.3799991607666
1676.6843838,-21.8899993896484
1676.7000088,-19.8400001525879
1676.7156338,-18.8299999237061
1676.7312588,-18.3500003814697
1676.7468838,-17.9699993133545
1676.7625088,-17.3099994659424
1676.7781338,-15.5100002288818
1676.7937588,-10.6999998092651
1676.8093838,0.0399999991059303
1676.8250088,19.3400001525879
1676.8406338,47.1300010681152
1676.8562588,79.379997253418
1676.8718838,109.080001831055
1676.8875088,129.300003051758
1676.9031338,136.270004272461
1676.9187588,130.75
1676.9343838,117.0
1676.9500088,100.319999694824
1676.9656338,84.8899993896484
1676.9812588,72.5599975585938
1676.9968838,62.9199981689453
1677.0125088,54.1599998474121
1677.0281338,44.3499984741211
1677.0437588,32.2400016784668
1677.0593838,17.7299995422363
1677.0750088,1.87000000476837
1677.0906338,-13.4200000762939
1677.1062588,-26.2099990844727
1677.1218838,-35.4900016784668
1677.1375088,-41.5800018310547
1677.1531338,-45.6699981689453
1677.1687588,-48.9099998474121
1677.1843838,-51.7200012207031
1677.2000088,-53.8300018310547
1677.2156338,-54.810001373291
1677.2312588,-54.5
1677.2468838,-53.1699981689453
1677.2625088,-51.3800010681152
1677.2781338,-49.7599983215332
1677.2937588,-48.6300010681152
1677.3093838,-47.7799987792969
1677.3250088,-46.7599983215332
1677.3406338,-45.1800003051758
1677.3562588,-42.8899993896484
1677.3718838,-39.8699989318848
1677.3875088,-36.2299995422363
1677.4031338,-32.2799987792969
1677.4187588,-28.4400005340576
1677.4343838,-25.0799999237061
1677.4500088,-22.2800006866455
1677.4656338,-19.8700008392334
1677.4812588,-17.6299991607666
1677.4968838,-15.5
1677.5125088,-13.5200004577637
1677.5281338,-11.5200004577637
1677.5437588,-8.81999969482422
1677.5593838,-3.79999995231628
1677.5750088,6.15999984741211
1677.5906338,23.4799995422363
1677.6062588,48.1100006103516
1677.6218838,76.0999984741211
1677.6375088,100.680000305176
1677.6531338,115.370002746582
1677.6687588,117.099998474121
1677.6843838,107.269996643066
1677.7000088,90.4899978637695
1677.7156338,72.1500015258789
1677.7312588,56.3800010681152
1677.7468838,45.2000007629395
1677.7625088,38.2999992370605
1677.7781338,33.3699989318848
1677.7937588,27.4300003051758
1677.8093838,18.5499992370605
1677.8250088,6.88000011444092
1677.8406338,-5.69000005722046
1677.8562588,-16.8700008392334
1677.8718838,-25.1399993896484
1677.8875088,-30.3099994659424
1677.9031338,-33.060001373291
1677.9187588,-34.4099998474121
1677.9343838,-35.310001373291
1677.9500088,-36.4599990844727
1677.9656338,-38.2799987792969
1677.9812588,-40.75
1677.9968838,-43.2999992370605
1678.0125088,-45.1100006103516
1678.0281338,-45.8400001525879
1678.0437588,-45.7999992370605
1678.0593838,-45.4700012207031
1678.0750088,-45.0800018310547
1678.0906338,-44.4300003051758
1678.1062588,-43.0200004577637
1678.1218838,-40.4799995422363
1678.1375088,-36.8400001525879
1678.1531338,-32.6199989318848
1678.1687588,-28.5200004577637
1678.1843838,-24.9300003051758
1678.2000088,-21.7900009155273
1678.2156338,-18.8099994659424
1678.2312588,-15.8299999237061
1678.2468838,-12.8999996185303
1678.2625088,-10.3299999237061
1678.2781338,-8.22999954223633
1678.2937588,-6.09999990463257
1678.3093838,-2.3199999332428
