Time(s),Value(%)
228.0110287,-19.5900001525879
228.0266537,-21.0900001525879
228.0422787,-21.9400005340576
228.0579037,-22.7000007629395
228.0735287,-23.8600006103516
228.0891537,-25.7800006866455
228.1047787,-28.5100002288818
228.1204037,-31.7299995422363
228.1360287,-35.0499992370605
228.1516537,-38.1500015258789
228.1672787,-40.75
228.1829037,-42.689998626709
228.1985287,-43.9000015258789
228.2141537,-44.4199981689453
228.2297787,-44.3699989318848
228.2454037,-43.9000015258789
228.2610287,-43.0800018310547
228.2766537,-41.9199981689453
228.2922787,-40.3699989318848
228.3079037,-38.3800010681152
228.3235287,-35.8400001525879
228.3391537,-32.189998626709
228.3547787,-26.1100006103516
228.3704037,-15.5500001907349
228.3860287,1.50999999046326
228.4016537,25.2099990844727
228.4172787,52.5200004577637
228.4329037,78.3199996948242
228.4485287,97.7399978637695
228.4641537,107.919998168945
228.4797787,108.559997558594
228.4954037,101.349998474121
228.5110287,89.0699996948242
228.5266537,74.6100006103516
228.5422787,60.1699981689453
228.5579037,46.9300003051758
228.5735287,35.0299987792969
228.5891537,24.0200004577637
228.6047787,13.4099998474121
228.6204037,3.16000008583069
228.6360287,-6.38000011444092
228.6516537,-14.6700000762939
228.6672787,-21.1100006103516
228.6829037,-25.4099998474121
228.6985287,-27.7000007629395
228.7141537,-28.5400009155273
228.7297787,-28.7199993133545
228.7454037,-28.9599990844727
228.7610287,-29.7600002288818
228.7766537,-31.25
228.7922787,-33.2099990844727
228.8079037,-35.3699989318848
228.8235287,-37.4799995422363
228.8391537,-39.3499984741211
228.8547787,-40.8600006103516
228.8704037,-42.0200004577637
228.8860287,-42.9799995422363
228.9016537,-43.7999992370605
228.9172787,-44.3699989318848
228.9329037,-44.4500007629395
228.9485287,-43.8600006103516
228.9641537,-42.4799995422363
228.9797787,-40.310001373291
228.9954037,-37.2200012207031
229.0110287,-32.5400009155273
229.0266537,-24.6399993896484
229.0422787,-11.4799995422363
229.0579037,7.96000003814697
229.0735287,32.5800018310547
229.0891537,59.0200004577637
229.1047787,82.7099990844727
229.1204037,99.5199966430664
229.1360287,107.050003051758
229.1516537,105.120002746582
229.1672787,95.5699996948242
229.1829037,81.4599990844727
229.1985287,65.8600006103516
229.2141537,50.9700012207031
229.2297787,37.6199989318848
229.2454037,25.5400009155273
229.2610287,14.1099996566772
229.2766537,3.16000008583069
229.2922787,-6.90000009536743
229.3079037,-15.4399995803833
229.3235287,-21.9400005340576
229.3391537,-26.25
229.3547787,-28.6200008392334
229.3704037,-29.6399993896484
229.3860287,-29.8899993896484
229.4016537,-29.8199996948242
229.4172787,-29.7700004577637
229.4329037,-30.0100002288818
229.4485287,-30.7000007629395
229.4641537,-31.8400001525879
229.4797787,-33.3800010681152
229.4954037,-35.1699981689453
229.5110287,-37.0400009155273
229.5266537,-38.7799987792969
229.5422787,-40.1699981689453
229.5579037,-41.060001373291
229.5735287,-41.439998626709
229.5891537,-41.4300003051758
229.6047787,-41.0099983215332
229.6204037,-40.060001373291
229.6360287,-38.5699996948242
229.6516537,-36.7700004577637
229.6672787,-34.6699981689453
229.6829037,-31.2299995422363
229.6985287,-24.3500003814697
229.7141537,-11.6899995803833
229.7297787,7.8899998664856
229.7454037,33.2799987792969
229.7610287,61.25
229.7766537,87.0999984741211
229.7922787,105.779998779297
229.8079037,113.790000915527
229.8235287,110.819999694824
229.8391537,99.4199981689453
229.8547787,83.5100021362305
229.8704037,66.7300033569336
229.8860287,51.5699996948242
229.9016537,38.8600006103516
229.9172787,27.8299999237061
229.9329037,17.1399993896484
229.9485287,6.09000015258789
229.9641537,-4.94999980926514
229.9797787,-15.1400003433228
229.9954037,-23.6399993896484
230.0110287,-29.8999996185303
230.0266537,-33.7299995422363
230.0422787,-35.25
230.0579037,-35.0499992370605
230.0735287,-33.9700012207031
230.0891537,-32.8699989318848
230.1047787,-32.3400001525879
230.1204037,-32.5499992370605
230.1360287,-33.3899993896484
230.1516537,-34.689998626709
230.1672787,-36.2900009155273
230.1829037,-38.0299987792969
230.1985287,-39.6599998474121
230.2141537,-40.9199981689453
230.2297787,-41.6500015258789
230.2454037,-41.8400001525879
230.2610287,-41.6699981689453
230.2766537,-41.4000015258789
230.2922787,-41.1100006103516
230.3079037,-40.3600006103516
230.3235287,-38.2900009155273
230.3391537,-33.5
230.3547787,-24.3099994659424
230.3704037,-9.27999973297119
230.3860287,11.8400001525879
230.4016537,37.3199996948242
230.4172787,63.5900001525879
230.4329037,86.1399993896484
230.4485287,100.800003051758
230.4641537,105.309997558594
230.4797787,100.040000915527
230.4954037,87.5899963378906
230.5110287,71.4400024414063
230.5266537,54.4599990844727
230.5422787,38.2599983215332
230.5579037,23.5100002288818
230.5735287,10.4099998474121
230.5891537,-1.02999997138977
230.6047787,-10.8100004196167
230.6204037,-18.7399997711182
230.6360287,-24.6200008392334
230.6516537,-28.3400001525879
230.6672787,-30.0400009155273
230.6829037,-30.1399993896484
230.6985287,-29.3799991607666
230.7141537,-28.5100002288818
230.7297787,-28.0100002288818
230.7454037,-28.0300006866455
230.7610287,-28.5900001525879
230.7766537,-29.6599998474121
230.7922787,-31.1299991607666
230.8079037,-32.7599983215332
230.8235287,-34.3600006103516
230.8391537,-35.8199996948242
230.8547787,-37.0
230.8704037,-37.7200012207031
230.8860287,-37.8699989318848
230.9016537,-37.2799987792969
230.9172787,-35.1699981689453
230.9329037,-29.8999996185303
230.9485287,-19.3400001525879
230.9641537,-2.14000010490417
230.9797787,20.8999996185303
230.9954037,46.5299987792969
231.0110287,69.9700012207031
231.0266537,86.7399978637695
231.0422787,94.2099990844727
231.0579037,92.1600036621094
231.0735287,82.4300003051758
231.0891537,68.0299987792969
231.1047787,51.9700012207031
231.1204037,36.4300003051758
231.1360287,22.4899997711182
231.1516537,10.1800003051758
231.1672787,-1.0
231.1829037,-11.4499998092651
231.1985287,-20.8899993896484
231.2141537,-28.6000003814697
231.2297787,-33.9900016784668
231.2454037,-36.9599990844727
231.2610287,-37.9500007629395
231.2766537,-37.6100006103516
231.2922787,-36.6500015258789
231.3079037,-35.5999984741211
231.3235287,-34.8300018310547
231.3391537,-34.4599990844727
231.3547787,-34.4099998474121
231.3704037,-34.5900001525879
231.3860287,-34.9700012207031
231.4016537,-35.5499992370605
231.4172787,-36.3499984741211
231.4329037,-37.310001373291
231.4485287,-38.1100006103516
231.4641537,-38.3400001525879
231.4797787,-37.560001373291
231.4954037,-35.1199989318848
231.5110287,-29.3899993896484
231.5266537,-17.9799995422363
231.5422787,0.579999983310699
231.5579037,25.0799999237061
231.5735287,51.6100006103516
231.5891537,75.0
231.6047787,90.8600006103516
231.6204037,97.0100021362305
231.6360287,94.0100021362305
231.6516537,84.3499984741211
231.6672787,71.0800018310547
231.6829037,56.6599998474121
231.6985287,42.560001373291
231.7141537,29.3600006103516
231.7297787,17.1800003051758
231.7454037,5.98999977111816
231.7610287,-4.17000007629395
231.7766537,-13.2399997711182
231.7922787,-21.0
231.8079037,-27.0699996948242
231.8235287,-31.0900001525879
231.8391537,-33.0499992370605
231.8547787,-33.3300018310547
231.8704037,-32.5699996948242
231.8860287,-31.4799995422363
231.9016537,-30.7099990844727
231.9172787,-30.7399997711182
231.9329037,-31.6100006103516
231.9485287,-33.0200004577637
231.9641537,-34.5499992370605
231.9797787,-35.8699989318848
231.9954037,-36.7799987792969
232.0110287,-37.25
232.0266537,-37.3899993896484
232.0422787,-37.2999992370605
232.0579037,-36.7900009155273
232.0735287,-35.0999984741211
232.0891537,-30.75
232.1047787,-21.8199996948242
232.1204037,-6.92000007629395
232.1360287,13.6300001144409
232.1516537,37.3600006103516
232.1672787,60.3800010681152
232.1829037,78.6600036621094
232.1985287,89.120002746582
232.2141537,90.6500015258789
232.2297787,84.3899993896484
232.2454037,73.0299987792969
232.2610287,59.4599990844727
232.2766537,45.7400016784668
232.2922787,32.8499984741211
232.3079037,21.0599994659424
232.3235287,10.3100004196167
232.3391537,0.469999998807907
232.3547787,-8.38000011444092
232.3704037,-15.960000038147
232.3860287,-21.9400005340576
232.4016537,-26.1200008392334
232.4172787,-28.6100006103516
232.4329037,-29.8099994659424
232.4485287,-30.2800006866455
232.4641537,-30.3999996185303
232.4797787,-30.3700008392334
232.4954037,-30.3099994659424
232.5110287,-30.4500007629395
232.5266537,-31.0100002288818
232.5422787,-32.060001373291
232.5579037,-33.4099998474121
232.5735287,-34.689998626709
232.5891537,-35.5200004577637
232.6047787,-35.6100006103516
232.6204037,-35.0
232.6360287,-34.0
232.6516537,-32.9199981689453
232.6672787,-31.6399993896484
232.6829037,-29.4799995422363
232.6985287,-25.2700004577637
232.7141537,-17.5100002288818
232.7297787,-4.86999988555908
232.7454037,12.8500003814697
232.7610287,34.1800003051758
232.7766537,55.9300003051758
232.7922787,74.4000015258789
232.8079037,86.5599975585938
232.8235287,90.879997253418
232.8391537,87.6999969482422
232.8547787,78.8499984741211
232.8704037,66.8499984741211
232.8860287,53.9199981689453
232.9016537,41.4599990844727
232.9172787,29.9200000762939
232.9329037,19.1000003814697
232.9485287,8.67000007629395
232.9641537,-1.25999999046326
232.9797787,-10.2200002670288
232.9954037,-17.5599994659424
233.0110287,-22.9099998474121
233.0266537,-26.3199996948242
233.0422787,-28.2000007629395
233.0579037,-29.0300006866455
233.0735287,-29.1800003051758
233.0891537,-29.0100002288818
233.1047787,-28.8400001525879
233.1204037,-29.0200004577637
233.1360287,-29.6800003051758
233.1516537,-30.6100006103516
233.1672787,-31.2999992370605
233.1829037,-31.3999996185303
233.1985287,-31.2000007629395
233.2141537,-31.2900009155273
233.2297787,-31.9799995422363
233.2454037,-33.0200004577637
233.2610287,-33.9300003051758
233.2766537,-34.2099990844727
233.2922787,-33.3800010681152
233.3079037,-30.6700000762939
233.3235287,-24.8500003814697
233.3391537,-14.5
233.3547787,1.13999998569489
233.3704037,21.0900001525879
233.3860287,42.3499984741211
233.4016537,60.9599990844727
233.4172787,73.5599975585938
233.4329037,78.6600036621094
233.4485287,76.6999969482422
233.4641537,69.5199966430664
233.4797787,59.3699989318848
233.4954037,48.1300010681152
233.5110287,36.9300003051758
233.5266537,26.1700000762939
233.5422787,15.7799997329712
233.5579037,5.63000011444092
233.5735287,-4.07000017166138
233.5891537,-12.6899995803833
233.6047787,-19.4599990844727
233.6204037,-23.9899997711182
233.6360287,-26.4500007629395
233.6516537,-27.3400001525879
233.6672787,-27.2999992370605
233.6829037,-26.8600006103516
233.6985287,-26.4099998474121
233.7141537,-26.1499996185303
233.7297787,-26.1499996185303
233.7454037,-26.3799991607666
233.7610287,-26.8700008392334
233.7766537,-27.5799999237061
233.7922787,-28.4699993133545
233.8079037,-29.5699996948242
233.8235287,-30.75
233.8391537,-31.7399997711182
233.8547787,-32.25
233.8704037,-32.0499992370605
233.8860287,-30.7900009155273
233.9016537,-27.5599994659424
233.9172787,-20.8700008392334
233.9329037,-9.32999992370605
233.9485287,7.48999977111816
233.9641537,28.0100002288818
233.9797787,48.5200004577637
233.9954037,64.7200012207031
234.0110287,73.5899963378906
234.0266537,74.5100021362305
234.0422787,68.9400024414063
234.0579037,59.2999992370605
234.0735287,47.8400001525879
234.0891537,36.1399993896484
234.1047787,24.9799995422363
234.1204037,14.6199998855591
234.1360287,5.09000015258789
234.1516537,-3.47000002861023
234.1672787,-10.7700004577637
234.1829037,-16.4799995422363
234.1985287,-20.5599994659424
234.2141537,-23.1200008392334
234.2297787,-24.3700008392334
234.2454037,-24.5200004577637
234.2610287,-23.9200000762939
234.2766537,-23.0699996948242
234.2922787,-22.4899997711182
234.3079037,-22.5400009155273
234.3235287,-23.2800006866455
234.3391537,-24.5
234.3547787,-25.9099998474121
234.3704037,-27.2299995422363
234.3860287,-28.2199993133545
234.4016537,-28.75
234.4172787,-28.8099994659424
234.4329037,-28.6000003814697
234.4485287,-28.4300003051758
234.4641537,-28.1700000762939
234.4797787,-26.8400001525879
234.4954037,-22.6499996185303
234.5110287,-13.8800001144409
234.5266537,0.170000001788139
234.5422787,18.6700000762939
234.5579037,39.1599998474121
234.5735287,58.1699981689453
234.5891537,72.1399993896484
234.6047787,78.75
234.6204037,77.6699981689453
234.6360287,70.4599990844727
234.6516537,59.7400016784668
234.6672787,47.9500007629395
234.6829037,36.5
234.6985287,25.6200008392334
234.7141537,15.0900001525879
234.7297787,5.01999998092651
234.7454037,-4.1100001335144
234.7610287,-11.8400001525879
234.7766537,-17.9300003051758
234.7922787,-22.2600002288818
234.8079037,-24.9099998474121
234.8235287,-26.1900005340576
234.8391537,-26.6200008392334
234.8547787,-26.6800003051758
234.8704037,-26.6599998474121
234.8860287,-26.7900009155273
234.9016537,-27.2099990844727
234.9172787,-27.9400005340576
234.9329037,-28.8700008392334
234.9485287,-29.8899993896484
234.9641537,-30.9899997711182
234.9797787,-32.060001373291
234.9954037,-32.9799995422363
235.0110287,-33.6699981689453
235.0266537,-34.1399993896484
235.0422787,-34.2000007629395
235.0579037,-33.0699996948242
235.0735287,-29.3400001525879
235.0891537,-21.3199996948242
235.1047787,-7.90999984741211
235.1204037,10.4700002670288
235.1360287,31.5799999237061
235.1516537,51.7999992370605
235.1672787,67.379997253418
235.1829037,75.8499984741211
235.1985287,76.6999969482422
235.2141537,71.2799987792969
235.2297787,61.9099998474121
235.2454037,50.8499984741211
235.2610287,39.6100006103516
235.2766537,28.8500003814697
235.2922787,18.6200008392334
235.3079037,8.6899995803833
235.3235287,-1.04999995231628
235.3391537,-10.2399997711182
235.3547787,-18.1200008392334
235.3704037,-24.0400009155273
235.3860287,-27.8199996948242
235.4016537,-29.7399997711182
235.4172787,-30.2900009155273
235.4329037,-30.0799999237061
235.4485287,-29.7000007629395
235.4641537,-29.5900001525879
235.4797787,-29.9799995422363
235.4954037,-30.7800006866455
235.5110287,-31.7600002288818
235.5266537,-32.6599998474121
235.5422787,-33.3699989318848
235.5579037,-33.9799995422363
235.5735287,-34.6100006103516
235.5891537,-35.1800003051758
235.6047787,-35.4700012207031
235.6204037,-35.2799987792969
235.6360287,-34.25
235.6516537,-31.5200004577637
235.6672787,-25.6499996185303
235.6829037,-15.0
235.6985287,1.3400000333786
235.7141537,22.3199996948242
235.7297787,44.4700012207031
235.7454037,63.2700004577637
235.7610287,75.129997253418
235.7766537,78.6399993896484
235.7922787,74.7399978637695
235.8079037,65.8399963378906
235.8235287,54.5699996948242
235.8391537,42.9500007629395
235.8547787,32.0499992370605
235.8704037,22.0699996948242
235.8860287,12.8100004196167
235.9016537,4.03000020980835
235.9172787,-4.19000005722046
235.9329037,-11.5500001907349
235.9485287,-17.5499992370605
235.9641537,-21.7800006866455
235.9797787,-24.2000007629395
235.9954037,-25.2099990844727
236.0110287,-25.3600006103516
236.0266537,-25.2199993133545
236.0422787,-25.1900005340576
236.0579037,-25.5400009155273
236.0735287,-26.3899993896484
236.0891537,-27.7099990844727
236.1047787,-29.2000007629395
236.1204037,-30.5900001525879
236.1360287,-31.6299991607666
236.1516537,-32.2099990844727
236.1672787,-32.3699989318848
236.1829037,-32.2400016784668
236.1985287,-31.9699993133545
236.2141537,-31.7800006866455
236.2297787,-31.6000003814697
236.2454037,-30.6000003814697
236.2610287,-27.1200008392334
236.2766537,-19.2900009155273
236.2922787,-6.0
236.3079037,12.1899995803833
236.3235287,33.1300010681152
236.3391537,53.3300018310547
236.3547787,69.0100021362305
236.3704037,77.4599990844727
236.3860287,78.1100006103516
236.4016537,72.4499969482422
236.4172787,62.9700012207031
236.4329037,52.1500015258789
236.4485287,41.8899993896484
236.4641537,33.0699996948242
236.4797787,25.4699993133545
236.4954037,18.2199993133545
236.5110287,10.6800003051758
236.5266537,2.84999990463257
236.5422787,-4.75
236.5579037,-11.460000038147
236.5735287,-16.7399997711182
236.5891537,-20.3799991607666
236.6047787,-22.4899997711182
236.6204037,-23.3799991607666
236.6360287,-23.4699993133545
236.6516537,-23.2399997711182
236.6672787,-23.1100006103516
236.6829037,-23.3400001525879
236.6985287,-23.8999996185303
236.7141537,-24.6599998474121
236.7297787,-25.5300006866455
236.7454037,-26.5
236.7610287,-27.5200004577637
236.7766537,-28.4099998474121
236.7922787,-29.0
236.8079037,-29.2600002288818
236.8235287,-29.1200008392334
236.8391537,-28.1800003051758
236.8547787,-25.4200000762939
236.8704037,-19.3400001525879
236.8860287,-8.77999973297119
236.9016537,6.03000020980835
236.9172787,23.1800003051758
236.9329037,39.5999984741211
236.9485287,52.3400001525879
236.9641537,59.6199989318848
236.9797787,61.060001373291
236.9954037,57.4900016784668
237.0110287,50.5200004577637
237.0266537,42.0099983215332
237.0422787,33.3400001525879
237.0579037,25.1700000762939
237.0735287,17.4799995422363
237.0891537,10.0600004196167
237.1047787,2.91000008583069
237.1204037,-3.64000010490417
237.1360287,-9.02000045776367
237.1516537,-12.8400001525879
237.1672787,-15.0699996948242
237.1829037,-16.0
237.1985287,-16.0799999237061
237.2141537,-15.7700004577637
237.2297787,-15.5299997329712
237.2454037,-15.6899995803833
237.2610287,-16.2800006866455
237.2766537,-17.1599998474121
237.2922787,-18.1800003051758
237.3079037,-19.3299999237061
237.3235287,-20.7000007629395
237.3391537,-22.4400005340576
237.3547787,-24.5300006866455
237.3704037,-26.6499996185303
237.3860287,-28.3199996948242
237.4016537,-29.1399993896484
237.4172787,-28.7000007629395
237.4329037,-26.2600002288818
237.4485287,-20.7800006866455
237.4641537,-11.3599996566772
237.4797787,2.09999990463257
237.4954037,18.2600002288818
237.5110287,34.189998626709
237.5266537,46.6500015258789
237.5422787,53.5900001525879
237.5579037,54.7799987792969
237.5735287,51.4700012207031
237.5891537,45.5800018310547
237.6047787,38.8199996948242
237.6204037,32.2400016784668
237.6360287,26.1200008392334
237.6516537,20.3500003814697
237.6672787,14.6999998092651
237.6829037,9.13000011444092
237.6985287,3.80999994277954
237.7141537,-0.899999976158142
237.7297787,-4.76000022888184
237.7454037,-7.67999982833862
237.7610287,-9.67000007629395
237.7766537,-10.8299999237061
237.7922787,-11.3500003814697
237.8079037,-11.5100002288818
237.8235287,-11.6599998474121
237.8391537,-12.1400003433228
237.8547787,-13.0799999237061
237.8704037,-14.3999996185303
237.8860287,-15.8500003814697
237.9016537,-17.2199993133545
237.9172787,-18.3799991607666
237.9329037,-19.2199993133545
237.9485287,-19.6900005340576
237.9641537,-19.9300003051758
237.9797787,-20.1700000762939
237.9954037,-20.4400005340576
238.0110287,-20.1499996185303
238.0266537,-18.0799999237061
238.0422787,-12.8500003814697
238.0579037,-3.65000009536743
238.0735287,9.06999969482422
238.0891537,23.6200008392334
238.1047787,37.3899993896484
238.1204037,47.7599983215332
238.1360287,53.0
238.1516537,52.939998626709
238.1672787,48.75
238.1829037,42.25
238.1985287,35.0800018310547
238.2141537,28.1599998474121
238.2297787,21.6100006103516
238.2454037,15.1800003051758
238.2610287,8.69999980926514
238.2766537,2.27999997138977
238.2922787,-3.70000004768372
238.3079037,-8.88000011444092
238.3235287,-13.0500001907349
238.3391537,-16.2199993133545
238.3547787,-18.5100002288818
238.3704037,-20.0200004577637
238.3860287,-20.8799991607666
238.4016537,-21.3500003814697
238.4172787,-21.7700004577637
238.4329037,-22.4099998474121
238.4485287,-23.3099994659424
238.4641537,-24.4400005340576
238.4797787,-25.7299995422363
238.4954037,-27.1299991607666
238.5110287,-28.5100002288818
238.5266537,-29.6900005340576
238.5422787,-30.5
238.5579037,-30.8199996948242
238.5735287,-30.6299991607666
238.5891537,-30.0100002288818
238.6047787,-28.9300003051758
238.6204037,-26.7000007629395
238.6360287,-22.0599994659424
238.6516537,-13.8599996566772
238.6672787,-2.01999998092651
238.6829037,12.1000003814697
238.6985287,26.1399993896484
238.7141537,37.6699981689453
238.7297787,45.0499992370605
