Time(s),Value(%)
545.0062101,0.779999971389771
545.0218351,-1.44000005722046
545.0374601,-2.77999997138977
545.0530851,-3.52999997138977
545.0687101,-4.23000001907349
545.0843351,-5.36999988555908
545.0999601,-7.15999984741211
545.1155851,-9.53999996185303
545.1312101,-12.3400001525879
545.1468351,-15.2200002670288
545.1624601,-17.5699996948242
545.1780851,-18.8700008392334
545.1937101,-19.2000007629395
545.2093351,-19.0400009155273
545.2249601,-18.6000003814697
545.2405851,-17.4200000762939
545.2562101,-15.1000003814697
545.2718351,-11.9899997711182
545.2874601,-9.25
545.3030851,-8.06999969482422
545.3187101,-8.65999984741211
545.3343351,-10.0900001525879
545.3499601,-11.0200004577637
545.3655851,-10.6999998092651
545.3812101,-9.06999969482422
545.3968351,-6.25
545.4124601,-1.80999994277954
545.4280851,5.01999998092651
545.4437101,14.4300003051758
545.4593351,25.0100002288818
545.4749601,34.3199996948242
545.4905851,40.189998626709
545.5062101,41.5699996948242
545.5218351,38.6800003051758
545.5374601,32.7700004577637
545.5530851,25.8199996948242
545.5687101,19.5699996948242
545.5843351,15.0200004577637
545.5999601,12.4399995803833
545.6155851,11.5799999237061
545.6312101,11.460000038147
545.6468351,10.6700000762939
545.6624601,8.35000038146973
545.6780851,4.86999988555908
545.6937101,1.37999999523163
545.7093351,-1.14999997615814
545.7249601,-2.64000010490417
545.7405851,-3.75
545.7562101,-5.40999984741211
545.7718351,-8.39999961853027
545.7874601,-12.8000001907349
545.8030851,-17.6800003051758
545.8187101,-21.4300003051758
545.8343351,-22.7299995422363
545.8499601,-21.5900001525879
545.8655851,-19.4799995422363
545.8812101,-18.0900001525879
545.8968351,-17.9099998474121
545.9124601,-18.0699996948242
545.9280851,-17.2700004577637
545.9437101,-14.9799995422363
545.9593351,-11.7700004577637
545.9749601,-8.90999984741211
545.9905851,-7.46999979019165
546.0062101,-7.71999979019165
546.0218351,-9.06999969482422
546.0374601,-10.4099998474121
546.0530851,-10.75
546.0687101,-9.22999954223633
546.0843351,-5.09999990463257
546.0999601,1.9099999666214
546.1155851,10.9499998092651
546.1312101,19.9200000762939
546.1468351,26.4699993133545
546.1624601,29.0699996948242
546.1780851,27.5
546.1937101,22.8199996948242
546.2093351,17.0
546.2249601,12.2299995422363
546.2405851,9.88000011444092
546.2562101,9.8100004196167
546.2718351,10.6800003051758
546.2874601,11.1199998855591
546.3030851,10.4300003051758
546.3187101,8.3100004196167
546.3343351,4.6399998664856
546.3499601,-0.239999994635582
546.3655851,-5.57000017166138
546.3812101,-10.3800001144409
546.3968351,-13.9399995803833
546.4124601,-15.8999996185303
546.4280851,-16.3199996948242
546.4437101,-15.5799999237061
546.4593351,-14.3599996566772
546.4749601,-13.4099998474121
546.4905851,-13.2600002288818
546.5062101,-14.2200002670288
546.5218351,-16.2099990844727
546.5374601,-18.4799995422363
546.5530851,-19.6900005340576
546.5687101,-18.6399993896484
546.5843351,-15.1800003051758
546.5999601,-10.3599996566772
546.6155851,-5.73999977111816
546.6312101,-2.71000003814697
546.6468351,-2.05999994277954
546.6624601,-3.78999996185303
546.6780851,-7.07000017166138
546.6937101,-10.5200004577637
546.7093351,-12.6899995803833
546.7249601,-12.6300001144409
546.7405851,-9.93000030517578
546.7562101,-4.6399998664856
546.7718351,2.77999997138977
546.7874601,11.1800003051758
546.8030851,18.6100006103516
546.8187101,22.8700008392334
546.8343351,22.7999992370605
546.8499601,19.2399997711182
546.8655851,14.710000038147
546.8812101,11.6499996185303
546.8968351,10.8500003814697
546.9124601,11.3599996566772
546.9280851,11.6899995803833
546.9437101,10.789999961853
546.9593351,8.46000003814697
546.9749601,5.15000009536743
546.9905851,1.58000004291534
547.0062101,-1.69000005722046
547.0218351,-4.51000022888184
547.0374601,-6.8899998664856
547.0530851,-8.72999954223633
547.0687101,-10.0799999237061
547.0843351,-11.3699998855591
547.0999601,-12.8599996566772
547.1155851,-14.1499996185303
547.1312101,-14.6700000762939
547.1468351,-14.4799995422363
547.1624601,-14.1199998855591
547.1780851,-14.0100002288818
547.1937101,-14.039999961853
547.2093351,-13.8500003814697
547.2249601,-13.1599998474121
547.2405851,-11.9200000762939
547.2562101,-10.1199998855591
547.2718351,-7.78000020980835
547.2874601,-5.03000020980835
547.3030851,-2.14000010490417
547.3187101,0.509999990463257
547.3343351,2.61999988555908
547.3499601,4.09000015258789
547.3655851,5.55000019073486
547.3812101,8.48999977111816
547.3968351,14.5799999237061
547.4124601,24.2000007629395
547.4280851,35.5299987792969
547.4437101,45.310001373291
547.4593351,50.7299995422363
547.4749601,50.6599998474121
547.4905851,45.8499984741211
547.5062101,38.0900001525879
547.5218351,29.2900009155273
547.5374601,21.1000003814697
547.5530851,14.7399997711182
547.5687101,10.4200000762939
547.5843351,7.19999980926514
547.5999601,3.8199999332428
547.6155851,-0.379999995231628
547.6312101,-5.1399998664856
547.6468351,-9.39999961853027
547.6624601,-12.1499996185303
547.6780851,-13.0299997329712
547.6937101,-12.4300003051758
547.7093351,-11.0600004196167
547.7249601,-9.78999996185303
547.7405851,-9.30000019073486
547.7562101,-9.97000026702881
547.7718351,-11.8999996185303
547.7874601,-14.75
547.8030851,-17.5200004577637
547.8187101,-19.0699996948242
547.8343351,-18.8500003814697
547.8499601,-17.3199996948242
547.8655851,-15.5699996948242
547.8812101,-14.3500003814697
547.8968351,-13.710000038147
547.9124601,-13.4700002670288
547.9280851,-13.6599998474121
547.9437101,-14.289999961853
547.9593351,-14.8599996566772
547.9749601,-14.5200004577637
547.9905851,-12.9799995422363
548.0062101,-10.6800003051758
548.0218351,-7.88000011444092
548.0374601,-3.83999991416931
548.0530851,2.3199999332428
548.0687101,10.4200000762939
548.0843351,18.9899997711182
548.0999601,26.1499996185303
548.1155851,30.5300006866455
548.1312101,31.5900001525879
548.1468351,29.4699993133545
548.1624601,24.8299999237061
548.1780851,18.6800003051758
548.1937101,12.3500003814697
548.2093351,7.11999988555908
548.2249601,3.66000008583069
548.2405851,1.75999999046326
548.2562101,0.579999983310699
548.2718351,-1.0
548.2874601,-3.77999997138977
548.3030851,-7.57999992370605
548.3187101,-11.4300003051758
548.3343351,-14.1599998474121
548.3499601,-15.039999961853
548.3655851,-14.0
548.3812101,-11.5299997329712
548.3968351,-8.32999992370605
548.4124601,-5.01000022888184
548.4280851,-1.87999999523163
548.4437101,0.730000019073486
548.4593351,2.33999991416931
548.4749601,2.40000009536743
548.4905851,0.660000026226044
548.5062101,-2.40000009536743
548.5218351,-5.57000017166138
548.5374601,-7.40999984741211
548.5530851,-7.25
548.5687101,-5.75
548.5843351,-4.38000011444092
548.5999601,-4.15999984741211
548.6155851,-4.92000007629395
548.6312101,-5.73000001907349
548.6468351,-5.8600001335144
548.6624601,-4.84999990463257
548.6780851,-2.33999991416931
548.6937101,1.53999996185303
548.7093351,5.86999988555908
548.7249601,9.60999965667725
548.7405851,12.4899997711182
548.7562101,14.9700002670288
548.7718351,17.5
548.7874601,20.0400009155273
548.8030851,22.1100006103516
548.8187101,23.0900001525879
548.8343351,22.5799999237061
548.8499601,20.4200000762939
548.8655851,16.6800003051758
548.8812101,11.6199998855591
548.8968351,5.78999996185303
548.9124601,0.150000005960464
548.9280851,-4.44000005722046
548.9437101,-7.84999990463257
548.9593351,-10.6000003814697
548.9749601,-13.0500001907349
548.9905851,-14.960000038147
549.0062101,-15.960000038147
549.0218351,-16.1200008392334
549.0374601,-15.9700002670288
549.0530851,-16.0300006866455
549.0687101,-16.4799995422363
549.0843351,-17.0300006866455
549.0999601,-17.2999992370605
549.1155851,-16.9500007629395
549.1312101,-15.8299999237061
549.1468351,-14.2200002670288
549.1624601,-12.8400001525879
549.1780851,-12.3400001525879
549.1937101,-12.8299999237061
549.2093351,-13.9499998092651
549.2249601,-14.9399995803833
549.2405851,-14.960000038147
549.2562101,-13.6899995803833
549.2718351,-11.2200002670288
549.2874601,-7.30000019073486
549.3030851,-1.01999998092651
549.3187101,7.98999977111816
549.3343351,18.3400001525879
549.3499601,27.1000003814697
549.3655851,31.5300006866455
549.3812101,30.75
549.3968351,26.1599998474121
549.4124601,20.3700008392334
549.4280851,15.5
549.4437101,12.1700000762939
549.4593351,9.81999969482422
549.4749601,7.6100001335144
549.4905851,5.05999994277954
549.5062101,2.08999991416931
549.5218351,-1.05999994277954
549.5374601,-3.88000011444092
549.5530851,-5.76000022888184
549.5687101,-6.55999994277954
549.5843351,-6.98000001907349
549.5999601,-8.0600004196167
549.6155851,-10.1099996566772
549.6312101,-12.289999961853
549.6468351,-13.3800001144409
549.6624601,-12.8800001144409
549.6780851,-11.4300003051758
549.6937101,-10.1899995803833
549.7093351,-9.9399995803833
549.7249601,-10.6300001144409
549.7405851,-11.5500001907349
549.7562101,-11.9499998092651
549.7718351,-11.4300003051758
549.7874601,-9.93000030517578
549.8030851,-7.90000009536743
549.8187101,-6.1100001335144
549.8343351,-5.17999982833862
549.8499601,-5.19999980926514
549.8655851,-5.78999996185303
549.8812101,-6.40000009536743
549.8968351,-6.21999979019165
549.9124601,-4.03000020980835
549.9280851,1.17999994754791
549.9437101,9.3100004196167
549.9593351,19.0300006866455
549.9749601,28.4099998474121
549.9905851,35.6800003051758
550.0062101,39.7200012207031
550.0218351,40.3400001525879
550.0374601,38.1199989318848
550.0530851,33.8699989318848
550.0687101,28.3799991607666
550.0843351,22.2800006866455
550.0999601,15.9899997711182
550.1155851,9.76000022888184
550.1312101,3.65000009536743
550.1468351,-2.25
550.1624601,-7.61999988555908
550.1780851,-11.6499996185303
550.1937101,-13.3900003433228
550.2093351,-12.5600004196167
550.2249601,-10.039999961853
550.2405851,-7.63000011444092
550.2562101,-6.92999982833862
550.2718351,-8.30000019073486
550.2874601,-10.8299999237061
550.3030851,-13.1899995803833
550.3187101,-14.3900003433228
550.3343351,-14.0500001907349
550.3499601,-12.539999961853
550.3655851,-10.7799997329712
550.3812101,-9.71000003814697
550.3968351,-9.72000026702881
550.4124601,-10.5299997329712
550.4280851,-11.3400001525879
550.4437101,-11.2399997711182
550.4593351,-9.98999977111816
550.4749601,-8.25
550.4905851,-7.0
550.5062101,-6.5
550.5218351,-5.84999990463257
550.5374601,-3.45000004768372
550.5530851,1.74000000953674
550.5687101,9.39999961853027
550.5843351,17.8600006103516
550.5999601,25.0
550.6155851,29.1000003814697
550.6312101,29.3600006103516
550.6468351,26.3899993896484
550.6624601,22.0300006866455
550.6780851,18.3899993896484
550.6937101,16.6700000762939
550.7093351,16.5900001525879
550.7249601,16.9300003051758
550.7405851,16.3799991607666
550.7562101,14.1300001144409
550.7718351,10.0699996948242
550.7874601,4.86999988555908
550.8030851,-0.28999999165535
550.8187101,-4.34999990463257
550.8343351,-6.90000009536743
550.8499601,-8.35000038146973
550.8655851,-9.43000030517578
550.8812101,-10.6400003433228
550.8968351,-12.210000038147
550.9124601,-14.2299995422363
550.9280851,-16.7000007629395
550.9437101,-19.2999992370605
550.9593351,-21.1900005340576
550.9749601,-21.5200004577637
550.9905851,-20.2700004577637
551.0062101,-18.3899993896484
551.0218351,-17.2299995422363
551.0374601,-17.5499992370605
551.0530851,-18.8999996185303
551.0687101,-20.2199993133545
551.0843351,-20.6700000762939
551.0999601,-19.9799995422363
551.1155851,-17.9799995422363
551.1312101,-14.210000038147
551.1468351,-7.98999977111816
551.1624601,0.569999992847443
551.1780851,9.98999977111816
551.1937101,17.8799991607666
551.2093351,22.3999996185303
551.2249601,23.0799999237061
551.2405851,20.9699993133545
551.2562101,18.1100006103516
551.2718351,16.5599994659424
551.2874601,17.3700008392334
551.3030851,19.8700008392334
551.3187101,22.1800003051758
551.3343351,22.4699993133545
551.3499601,20.0599994659424
551.3655851,15.3299999237061
551.3812101,9.07999992370605
551.3968351,2.3199999332428
551.4124601,-3.77999997138977
551.4280851,-8.34000015258789
551.4437101,-11.1599998474121
551.4593351,-12.5299997329712
551.4749601,-12.6700000762939
551.4905851,-11.7600002288818
551.5062101,-10.1700000762939
551.5218351,-8.60999965667725
551.5374601,-7.82999992370605
551.5530851,-8.35999965667725
551.5687101,-10.1599998474121
551.5843351,-12.5600004196167
551.5999601,-14.6700000762939
551.6155851,-15.9399995803833
551.6312101,-16.3500003814697
551.6468351,-16.1499996185303
551.6624601,-15.6899995803833
551.6780851,-15.3900003433228
551.6937101,-15.5100002288818
551.7093351,-15.9300003051758
551.7249601,-16.0900001525879
551.7405851,-15.0500001907349
551.7562101,-11.8199996948242
551.7718351,-6.13000011444092
551.7874601,0.949999988079071
551.8030851,7.46000003814697
551.8187101,11.789999961853
551.8343351,13.6700000762939
551.8499601,14.2200002670288
551.8655851,15.1700000762939
551.8812101,17.7399997711182
551.8968351,21.7900009155273
551.9124601,25.8500003814697
551.9280851,27.9699993133545
551.9437101,26.7000007629395
551.9593351,21.7299995422363
551.9749601,14.0299997329712
551.9905851,5.44000005722046
552.0062101,-2.11999988555908
552.0218351,-7.48000001907349
552.0374601,-10.5
552.0530851,-11.8000001907349
552.0687101,-12.1400003433228
552.0843351,-11.9499998092651
552.0999601,-11.460000038147
552.1155851,-11.0500001907349
552.1312101,-11.3800001144409
552.1468351,-13.0900001525879
552.1624601,-16.1399993896484
552.1780851,-19.5300006866455
552.1937101,-21.6900005340576
552.2093351,-21.6499996185303
552.2249601,-19.7900009155273
552.2405851,-17.4699993133545
552.2562101,-16.1700000762939
552.2718351,-16.5100002288818
552.2874601,-17.9799995422363
552.3030851,-19.3700008392334
552.3187101,-19.3700008392334
552.3343351,-17.0200004577637
552.3499601,-11.710000038147
552.3655851,-3.19000005722046
552.3812101,8.13000011444092
552.3968351,20.8500003814697
552.4124601,32.6599998474121
552.4280851,41.1399993896484
552.4437101,44.9000015258789
552.4593351,44.2400016784668
552.4749601,40.8199996948242
552.4905851,36.560001373291
552.5062101,32.8199996948242
552.5218351,30.2999992370605
552.5374601,29.0699996948242
552.5530851,28.5100002288818
552.5687101,27.5300006866455
552.5843351,25.0699996948242
552.5999601,20.6000003814697
552.6155851,14.3100004196167
552.6312101,7.17000007629395
552.6468351,0.579999983310699
552.6624601,-4.38000011444092
552.6780851,-7.59999990463257
552.6937101,-9.78999996185303
552.7093351,-11.8699998855591
552.7249601,-14.2700004577637
552.7405851,-16.6399993896484
552.7562101,-18.2000007629395
552.7718351,-18.3199996948242
552.7874601,-17.0499992370605
552.8030851,-15.1000003814697
552.8187101,-13.3999996185303
552.8343351,-12.4899997711182
552.8499601,-12.5699996948242
552.8655851,-13.75
552.8812101,-15.9700002670288
552.8968351,-18.6599998474121
552.9124601,-20.7700004577637
552.9280851,-21.4099998474121
552.9437101,-20.3999996185303
552.9593351,-18.4799995422363
552.9749601,-16.4300003051758
552.9905851,-14.1099996566772
553.0062101,-10.6000003814697
553.0218351,-5.42999982833862
553.0374601,0.779999971389771
553.0530851,6.92999982833862
553.0687101,12.0699996948242
553.0843351,15.7200002670288
553.0999601,17.7700004577637
553.1155851,18.5400009155273
553.1312101,18.6100006103516
553.1468351,18.4899997711182
553.1624601,18.3199996948242
553.1780851,18.0100002288818
553.1937101,17.4599990844727
553.2093351,16.7099990844727
553.2249601,15.6499996185303
553.2405851,13.9300003051758
553.2562101,11.2799997329712
553.2718351,7.8899998664856
553.2874601,4.1399998664856
553.3030851,0.230000004172325
553.3187101,-3.72000002861023
553.3343351,-7.26999998092651
553.3499601,-9.75
553.3655851,-10.8900003433228
553.3812101,-10.8500003814697
553.3968351,-9.97000026702881
553.4124601,-8.60999965667725
553.4280851,-7.03000020980835
553.4437101,-5.5
553.4593351,-4.42000007629395
553.4749601,-4.30999994277954
553.4905851,-5.53999996185303
553.5062101,-7.92999982833862
553.5218351,-10.8000001907349
553.5374601,-13.4099998474121
553.5530851,-15.3699998855591
553.5687101,-16.7000007629395
553.5843351,-17.3799991607666
553.5999601,-16.6499996185303
553.6155851,-13.1700000762939
553.6312101,-6.1399998664856
553.6468351,3.63000011444092
553.6624601,13.9300003051758
553.6780851,22.3899993896484
553.6937101,27.7399997711182
553.7093351,29.9099998474121
553.7249601,29.5200004577637
553.7405851,27.5599994659424
553.7562101,25.2700004577637
553.7718351,23.5200004577637
553.7874601,22.2299995422363
553.8030851,20.6599998474121
553.8187101,18.1800003051758
553.8343351,14.6599998474121
553.8499601,10.5
553.8655851,6.40999984741211
553.8812101,2.94000005722046
553.8968351,0.25
553.9124601,-1.94000005722046
553.9280851,-4.17999982833862
553.9437101,-6.8600001335144
553.9593351,-10.0799999237061
553.9749601,-13.710000038147
553.9905851,-17.4899997711182
554.0062101,-20.8600006103516
554.0218351,-23.0699996948242
554.0374601,-23.6399993896484
554.0530851,-22.6399993896484
554.0687101,-20.4899997711182
554.0843351,-17.6599998474121
554.0999601,-14.6999998092651
554.1155851,-12.3400001525879
554.1312101,-11.039999961853
554.1468351,-10.8199996948242
554.1624601,-11.1700000762939
554.1780851,-11.4200000762939
554.1937101,-10.9799995422363
554.2093351,-9.22999954223633
554.2249601,-5.3600001335144
554.2405851,1.08000004291534
554.2562101,9.3100004196167
554.2718351,17.4200000762939
554.2874601,23.5400009155273
554.3030851,26.6800003051758
554.3187101,26.8299999237061
554.3343351,24.5599994659424
554.3499601,20.7800006866455
554.3655851,16.6100006103516
554.3812101,12.9700002670288
554.3968351,10.3100004196167
554.4124601,8.57999992370605
554.4280851,7.5
554.4437101,6.6399998664856
554.4593351,5.34999990463257
554.4749601,3.09999990463257
554.4905851,0.129999995231628
554.5062101,-2.5699999332428
554.5218351,-3.92000007629395
554.5374601,-3.65000009536743
554.5530851,-2.74000000953674
554.5687101,-2.83999991416931
554.5843351,-4.94999980926514
554.5999601,-8.60000038146973
554.6155851,-12.3199996948242
554.6312101,-14.7799997329712
554.6468351,-15.4899997711182
554.6624601,-14.75
554.6780851,-13.0500001907349
554.6937101,-10.8199996948242
554.7093351,-8.43000030517578
554.7249601,-6.19000005722046
554.7405851,-4.25
554.7562101,-2.75999999046326
554.7718351,-1.97000002861023
554.7874601,-2.17000007629395
554.8030851,-3.3199999332428
554.8187101,-4.69999980926514
554.8343351,-5.01999998092651
554.8499601,-2.99000000953674
554.8655851,1.83000004291534
554.8812101,8.64000034332275
554.8968351,15.710000038147
554.9124601,21.2600002288818
554.9280851,24.3999996185303
554.9437101,25.3199996948242
554.9593351,24.9400005340576
554.9749601,24.3099994659424
554.9905851,24.1100006103516
555.0062101,24.2399997711182
555.0218351,23.8600006103516
555.0374601,21.9300003051758
555.0530851,18.0200004577637
555.0687101,12.710000038147
555.0843351,7.21999979019165
555.0999601,2.71000003814697
555.1155851,-0.109999999403954
555.1312101,-0.990000009536743
555.1468351,-0.180000007152557
555.1624601,1.5900000333786
555.1780851,3.36999988555908
555.1937101,4.19000005722046
555.2093351,3.4300000667572
555.2249601,1.12000000476837
555.2405851,-2.25999999046326
555.2562101,-6.09999990463257
555.2718351,-9.76000022888184
555.2874601,-12.5
555.3030851,-13.7399997711182
555.3187101,-13.4700002670288
555.3343351,-12.3500003814697
555.3499601,-11.4700002670288
555.3655851,-11.710000038147
555.3812101,-13.1999998092651
555.3968351,-15.210000038147
555.4124601,-16.7199993133545
555.4280851,-17.0400009155273
555.4437101,-15.7799997329712
555.4593351,-12.6700000762939
555.4749601,-7.57000017166138
555.4905851,-0.920000016689301
555.5062101,6.07999992370605
555.5218351,11.9300003051758
555.5374601,15.5500001907349
555.5530851,16.7900009155273
555.5687101,16.2199993133545
555.5843351,14.7600002288818
555.5999601,13.4300003051758
555.6155851,12.960000038147
555.6312101,13.1899995803833
555.6468351,13.210000038147
555.6624601,12.0799999237061
555.6780851,9.47000026702881
555.6937101,5.69000005722046
555.7093351,1.39999997615814
555.7249601,-2.88000011444092
555.7405851,-6.96999979019165
