Time(s),Value(%)
834.0125088,93.9000015258789
834.0281338,93.9000015258789
834.0437588,93.9000015258789
834.0593838,93.9000015258789
834.0750088,93.9000015258789
834.0906338,93.9000015258789
834.1062588,93.9000015258789
834.1218838,93.9000015258789
834.1375088,93.9000015258789
834.1531338,93.9499969482422
834.1687588,94.0
834.1843838,94.0500030517578
834.2000088,94.0999984741211
834.2156338,94.1500015258789
834.2312588,94.1999969482422
834.2468838,94.25
834.2625088,94.3000030517578
834.2781338,94.3000030517578
834.2937588,94.3000030517578
834.3093838,94.3000030517578
834.3250088,94.3000030517578
834.3406338,94.3000030517578
834.3562588,94.3000030517578
834.3718838,94.3000030517578
834.3875088,94.3000030517578
834.4031338,94.3000030517578
834.4187588,94.3000030517578
834.4343838,94.3000030517578
834.4500088,94.3000030517578
834.4656338,94.3000030517578
834.4812588,94.3000030517578
834.4968838,94.3000030517578
834.5125088,94.3000030517578
834.5281338,94.3000030517578
834.5437588,94.3000030517578
834.5593838,94.3000030517578
834.5750088,94.3000030517578
834.5906338,94.3000030517578
834.6062588,94.3000030517578
834.6218838,94.3000030517578
834.6375088,94.3000030517578
834.6531338,94.3000030517578
834.6687588,94.3000030517578
834.6843838,94.3000030517578
834.7000088,94.3000030517578
834.7156338,94.3000030517578
834.7312588,94.3000030517578
834.7468838,94.3000030517578
834.7625088,94.3000030517578
834.7781338,94.3000030517578
834.7937588,94.3000030517578
834.8093838,94.3000030517578
834.8250088,94.3000030517578
834.8406338,94.3000030517578
834.8562588,94.3000030517578
834.8718838,94.3000030517578
834.8875088,94.3000030517578
834.9031338,94.3000030517578
834.9187588,94.3000030517578
834.9343838,94.3000030517578
834.9500088,94.3000030517578
834.9656338,94.3000030517578
834.9812588,94.3000030517578
834.9968838,94.3000030517578
835.0125088,94.3000030517578
835.0281338,94.3000030517578
835.0437588,94.3000030517578
835.0593838,94.3000030517578
835.0750088,94.3000030517578
835.0906338,94.3000030517578
835.1062588,94.3000030517578
835.1218838,94.3000030517578
835.1375088,94.3000030517578
835.1531338,94.3000030517578
835.1687588,94.3000030517578
835.1843838,94.3000030517578
835.2000088,94.3000030517578
835.2156338,94.3000030517578
835.2312588,94.3000030517578
835.2468838,94.3000030517578
835.2625088,94.3000030517578
835.2781338,94.3000030517578
835.2937588,94.3000030517578
835.3093838,94.3000030517578
835.3250088,94.3000030517578
835.3406338,94.3000030517578
835.3562588,94.3000030517578
835.3718838,94.3000030517578
835.3875088,94.3000030517578
835.4031338,94.3000030517578
835.4187588,94.3000030517578
835.4343838,94.3000030517578
835.4500088,94.3000030517578
835.4656338,94.3000030517578
835.4812588,94.3000030517578
835.4968838,94.3000030517578
835.5125088,94.3000030517578
835.5281338,94.3000030517578
835.5437588,94.3000030517578
835.5593838,94.3000030517578
835.5750088,94.3000030517578
835.5906338,94.3000030517578
835.6062588,94.3000030517578
835.6218838,94.3000030517578
835.6375088,94.3000030517578
835.6531338,94.3000030517578
835.6687588,94.3000030517578
835.6843838,94.3000030517578
835.7000088,94.3000030517578
835.7156338,94.3000030517578
835.7312588,94.3000030517578
835.7468838,94.3000030517578
835.7625088,94.3000030517578
835.7781338,94.3000030517578
835.7937588,94.3000030517578
835.8093838,94.3000030517578
835.8250088,94.3000030517578
835.8406338,94.3000030517578
835.8562588,94.3000030517578
835.8718838,94.3000030517578
835.8875088,94.3000030517578
835.9031338,94.3000030517578
835.9187588,94.3000030517578
835.9343838,94.3000030517578
835.9500088,94.3000030517578
835.9656338,94.3000030517578
835.9812588,94.3000030517578
835.9968838,94.3000030517578
836.0125088,94.3000030517578
836.0281338,94.3000030517578
836.0437588,94.3000030517578
836.0593838,94.3000030517578
836.0750088,94.3000030517578
836.0906338,94.3000030517578
836.1062588,94.3000030517578
836.1218838,94.3000030517578
836.1375088,94.3000030517578
836.1531338,94.3000030517578
836.1687588,94.3000030517578
836.1843838,94.3000030517578
836.2000088,94.3000030517578
836.2156338,94.3000030517578
836.2312588,94.3000030517578
836.2468838,94.3000030517578
836.2625088,94.3000030517578
836.2781338,94.3000030517578
836.2937588,94.3000030517578
836.3093838,94.3000030517578
836.3250088,94.3000030517578
836.3406338,94.3000030517578
836.3562588,94.3000030517578
836.3718838,94.3000030517578
836.3875088,94.3000030517578
836.4031338,94.3000030517578
836.4187588,94.3000030517578
836.4343838,94.3000030517578
836.4500088,94.3000030517578
836.4656338,94.3000030517578
836.4812588,94.3000030517578
836.4968838,94.3000030517578
836.5125088,94.3000030517578
836.5281338,94.3000030517578
836.5437588,94.3000030517578
836.5593838,94.3000030517578
836.5750088,94.3000030517578
836.5906338,94.3000030517578
836.6062588,94.3000030517578
836.6218838,94.3000030517578
836.6375088,94.3000030517578
836.6531338,94.3000030517578
836.6687588,94.3000030517578
836.6843838,94.3000030517578
836.7000088,94.3000030517578
836.7156338,94.3000030517578
836.7312588,94.3000030517578
836.7468838,94.3000030517578
836.7625088,94.3000030517578
836.7781338,94.3000030517578
836.7937588,94.3000030517578
836.8093838,94.3000030517578
836.8250088,94.3000030517578
836.8406338,94.3000030517578
836.8562588,94.3000030517578
836.8718838,94.3000030517578
836.8875088,94.3000030517578
836.9031338,94.3000030517578
836.9187588,94.3000030517578
836.9343838,94.3000030517578
836.9500088,94.3000030517578
836.9656338,94.3000030517578
836.9812588,94.3000030517578
836.9968838,94.3000030517578
837.0125088,94.3000030517578
837.0281338,94.3000030517578
837.0437588,94.3000030517578
837.0593838,94.3000030517578
837.0750088,94.3000030517578
837.0906338,94.3000030517578
837.1062588,94.3000030517578
837.1218838,94.3000030517578
837.1375088,94.3000030517578
837.1531338,94.3000030517578
837.1687588,94.3000030517578
837.1843838,94.3000030517578
837.2000088,94.3000030517578
837.2156338,94.3000030517578
837.2312588,94.3000030517578
837.2468838,94.3000030517578
837.2625088,94.3000030517578
837.2781338,94.3000030517578
837.2937588,94.3000030517578
837.3093838,94.3000030517578
837.3250088,94.3000030517578
837.3406338,94.3000030517578
837.3562588,94.3000030517578
837.3718838,94.3000030517578
837.3875088,94.3000030517578
837.4031338,94.3000030517578
837.4187588,94.3000030517578
837.4343838,94.3000030517578
837.4500088,94.3000030517578
837.4656338,94.3000030517578
837.4812588,94.3000030517578
837.4968838,94.3000030517578
837.5125088,94.3000030517578
837.5281338,94.3000030517578
837.5437588,94.3000030517578
837.5593838,94.3000030517578
837.5750088,94.3000030517578
837.5906338,94.3000030517578
837.6062588,94.3000030517578
837.6218838,94.3000030517578
837.6375088,94.3000030517578
837.6531338,94.3000030517578
837.6687588,94.3000030517578
837.6843838,94.3000030517578
837.7000088,94.3000030517578
837.7156338,94.3000030517578
837.7312588,94.3000030517578
837.7468838,94.3000030517578
837.7625088,94.3000030517578
837.7781338,94.3000030517578
837.7937588,94.3000030517578
837.8093838,94.3000030517578
837.8250088,94.3000030517578
837.8406338,94.3000030517578
837.8562588,94.3000030517578
837.8718838,94.3000030517578
837.8875088,94.3000030517578
837.9031338,94.3000030517578
837.9187588,94.3000030517578
837.9343838,94.3000030517578
837.9500088,94.3000030517578
837.9656338,94.3000030517578
837.9812588,94.3000030517578
837.9968838,94.3000030517578
838.0125088,94.3000030517578
838.0281338,94.3000030517578
838.0437588,94.3000030517578
838.0593838,94.3000030517578
838.0750088,94.3000030517578
838.0906338,94.3000030517578
838.1062588,94.3000030517578
838.1218838,94.3000030517578
838.1375088,94.3000030517578
838.1531338,94.3000030517578
838.1687588,94.3000030517578
838.1843838,94.3000030517578
838.2000088,94.3000030517578
838.2156338,94.3000030517578
838.2312588,94.3000030517578
838.2468838,94.3000030517578
838.2625088,94.3000030517578
838.2781338,94.3000030517578
838.2937588,94.3000030517578
838.3093838,94.3000030517578
838.3250088,94.3000030517578
838.3406338,94.3000030517578
838.3562588,94.3000030517578
838.3718838,94.3000030517578
838.3875088,94.3000030517578
838.4031338,94.3000030517578
838.4187588,94.3000030517578
838.4343838,94.3000030517578
838.4500088,94.3000030517578
838.4656338,94.3000030517578
838.4812588,94.3000030517578
838.4968838,94.3000030517578
838.5125088,94.3000030517578
838.5281338,94.3000030517578
838.5437588,94.3000030517578
838.5593838,94.3000030517578
838.5750088,94.3000030517578
838.5906338,94.3000030517578
838.6062588,94.3000030517578
838.6218838,94.3000030517578
838.6375088,94.3000030517578
838.6531338,94.3000030517578
838.6687588,94.3000030517578
838.6843838,94.3000030517578
838.7000088,94.3000030517578
838.7156338,94.3000030517578
838.7312588,94.3000030517578
838.7468838,94.3000030517578
838.7625088,94.3000030517578
838.7781338,94.3000030517578
838.7937588,94.3000030517578
838.8093838,94.3000030517578
838.8250088,94.3000030517578
838.8406338,94.3000030517578
838.8562588,94.3000030517578
838.8718838,94.3000030517578
838.8875088,94.3000030517578
838.9031338,94.3000030517578
838.9187588,94.3000030517578
838.9343838,94.3000030517578
838.9500088,94.3000030517578
838.9656338,94.3000030517578
838.9812588,94.3000030517578
838.9968838,94.3000030517578
839.0125088,94.3000030517578
839.0281338,94.3000030517578
839.0437588,94.3000030517578
839.0593838,94.3000030517578
839.0750088,94.3000030517578
839.0906338,94.3000030517578
839.1062588,94.3000030517578
839.1218838,94.3000030517578
839.1375088,94.3000030517578
839.1531338,94.3000030517578
839.1687588,94.3000030517578
839.1843838,94.3000030517578
839.2000088,94.3000030517578
839.2156338,94.3000030517578
839.2312588,94.3000030517578
839.2468838,94.3000030517578
839.2625088,94.3000030517578
839.2781338,94.3000030517578
839.2937588,94.3000030517578
839.3093838,94.3000030517578
839.3250088,94.3000030517578
839.3406338,94.3000030517578
839.3562588,94.3000030517578
839.3718838,94.3000030517578
839.3875088,94.3000030517578
839.4031338,94.3000030517578
839.4187588,94.3000030517578
839.4343838,94.3000030517578
839.4500088,94.3000030517578
839.4656338,94.3000030517578
839.4812588,94.3000030517578
839.4968838,94.3000030517578
839.5125088,94.3000030517578
839.5281338,94.3000030517578
839.5437588,94.3000030517578
839.5593838,94.3000030517578
839.5750088,94.3000030517578
839.5906338,94.3000030517578
839.6062588,94.3000030517578
839.6218838,94.3000030517578
839.6375088,94.3000030517578
839.6531338,94.3000030517578
839.6687588,94.3000030517578
839.6843838,94.3000030517578
839.7000088,94.3000030517578
839.7156338,94.3000030517578
839.7312588,94.3000030517578
839.7468838,94.3000030517578
839.7625088,94.3000030517578
839.7781338,94.3000030517578
839.7937588,94.3000030517578
839.8093838,94.3000030517578
839.8250088,94.3000030517578
839.8406338,94.3000030517578
839.8562588,94.3000030517578
839.8718838,94.3000030517578
839.8875088,94.3000030517578
839.9031338,94.3000030517578
839.9187588,94.3000030517578
839.9343838,94.3000030517578
839.9500088,94.3000030517578
839.9656338,94.3000030517578
839.9812588,94.3000030517578
839.9968838,94.3000030517578
840.0125088,94.3000030517578
840.0281338,94.3000030517578
840.0437588,94.3000030517578
840.0593838,94.3000030517578
840.0750088,94.3000030517578
840.0906338,94.3000030517578
840.1062588,94.3000030517578
840.1218838,94.3000030517578
840.1375088,94.3000030517578
840.1531338,94.3000030517578
840.1687588,94.3000030517578
840.1843838,94.3000030517578
840.2000088,94.3000030517578
840.2156338,94.3000030517578
840.2312588,94.3000030517578
840.2468838,94.3000030517578
840.2625088,94.3000030517578
840.2781338,94.3000030517578
840.2937588,94.3000030517578
840.3093838,94.3000030517578
840.3250088,94.3000030517578
840.3406338,94.3000030517578
840.3562588,94.3000030517578
840.3718838,94.3000030517578
840.3875088,94.3000030517578
840.4031338,94.3000030517578
840.4187588,94.3000030517578
840.4343838,94.3000030517578
840.4500088,94.3000030517578
840.4656338,94.3000030517578
840.4812588,94.3000030517578
840.4968838,94.3000030517578
840.5125088,94.3000030517578
840.5281338,94.3000030517578
840.5437588,94.3000030517578
840.5593838,94.3000030517578
840.5750088,94.3000030517578
840.5906338,94.3000030517578
840.6062588,94.3000030517578
840.6218838,94.3000030517578
840.6375088,94.3000030517578
840.6531338,94.3000030517578
840.6687588,94.3000030517578
840.6843838,94.3000030517578
840.7000088,94.3000030517578
840.7156338,94.3000030517578
840.7312588,94.3000030517578
840.7468838,94.3000030517578
840.7625088,94.3000030517578
840.7781338,94.3000030517578
840.7937588,94.3000030517578
840.8093838,94.3000030517578
840.8250088,94.3000030517578
840.8406338,94.3000030517578
840.8562588,94.3000030517578
840.8718838,94.3000030517578
840.8875088,94.3000030517578
840.9031338,94.3000030517578
840.9187588,94.3000030517578
840.9343838,94.3000030517578
840.9500088,94.3000030517578
840.9656338,94.3000030517578
840.9812588,94.3000030517578
840.9968838,94.3000030517578
841.0125088,94.3000030517578
841.0281338,94.3000030517578
841.0437588,94.3000030517578
841.0593838,94.3000030517578
841.0750088,94.3000030517578
841.0906338,94.3000030517578
841.1062588,94.3000030517578
841.1218838,94.3000030517578
841.1375088,94.3000030517578
841.1531338,94.3000030517578
841.1687588,94.3000030517578
841.1843838,94.3000030517578
841.2000088,94.3000030517578
841.2156338,94.3000030517578
841.2312588,94.3000030517578
841.2468838,94.3000030517578
841.2625088,94.3000030517578
841.2781338,94.3000030517578
841.2937588,94.3000030517578
841.3093838,94.3000030517578
841.3250088,94.3000030517578
841.3406338,94.3000030517578
841.3562588,94.3000030517578
841.3718838,94.3000030517578
841.3875088,94.3000030517578
841.4031338,94.3000030517578
841.4187588,94.3000030517578
841.4343838,94.3000030517578
841.4500088,94.3000030517578
841.4656338,94.3000030517578
841.4812588,94.3000030517578
841.4968838,94.3000030517578
841.5125088,94.3000030517578
841.5281338,94.3000030517578
841.5437588,94.3000030517578
841.5593838,94.3000030517578
841.5750088,94.3000030517578
841.5906338,94.3000030517578
841.6062588,94.3000030517578
841.6218838,94.3000030517578
841.6375088,94.3000030517578
841.6531338,94.3000030517578
841.6687588,94.3000030517578
841.6843838,94.3000030517578
841.7000088,94.3000030517578
841.7156338,94.3000030517578
841.7312588,94.3000030517578
841.7468838,94.3000030517578
841.7625088,94.3000030517578
841.7781338,94.3000030517578
841.7937588,94.3000030517578
841.8093838,94.3000030517578
841.8250088,94.3000030517578
841.8406338,94.3000030517578
841.8562588,94.3000030517578
841.8718838,94.3000030517578
841.8875088,94.3000030517578
841.9031338,94.3000030517578
841.9187588,94.3000030517578
841.9343838,94.3000030517578
841.9500088,94.3000030517578
841.9656338,94.3000030517578
841.9812588,94.3000030517578
841.9968838,94.3000030517578
842.0125088,94.3000030517578
842.0281338,94.3000030517578
842.0437588,94.3000030517578
842.0593838,94.3000030517578
842.0750088,94.3000030517578
842.0906338,94.3000030517578
842.1062588,94.3000030517578
842.1218838,94.3000030517578
842.1375088,94.3000030517578
842.1531338,94.3000030517578
842.1687588,94.3000030517578
842.1843838,94.3000030517578
842.2000088,94.3000030517578
842.2156338,94.3000030517578
842.2312588,94.3000030517578
842.2468838,94.3000030517578
842.2625088,94.3000030517578
842.2781338,94.3000030517578
842.2937588,94.3000030517578
842.3093838,94.3000030517578
842.3250088,94.3000030517578
842.3406338,94.3000030517578
842.3562588,94.3000030517578
842.3718838,94.3000030517578
842.3875088,94.3000030517578
842.4031338,94.3000030517578
842.4187588,94.3000030517578
842.4343838,94.3000030517578
842.4500088,94.3000030517578
842.4656338,94.3000030517578
842.4812588,94.3000030517578
842.4968838,94.3000030517578
842.5125088,94.3000030517578
842.5281338,94.3000030517578
842.5437588,94.3000030517578
842.5593838,94.3000030517578
842.5750088,94.3000030517578
842.5906338,94.3000030517578
842.6062588,94.3000030517578
842.6218838,94.3000030517578
842.6375088,94.3000030517578
842.6531338,94.3000030517578
842.6687588,94.3000030517578
842.6843838,94.3000030517578
842.7000088,94.3000030517578
842.7156338,94.3000030517578
842.7312588,94.3000030517578
842.7468838,94.3000030517578
842.7625088,94.3000030517578
842.7781338,94.3000030517578
842.7937588,94.3000030517578
842.8093838,94.3000030517578
842.8250088,94.3000030517578
842.8406338,94.3000030517578
842.8562588,94.3000030517578
842.8718838,94.3000030517578
842.8875088,94.3000030517578
842.9031338,94.3000030517578
842.9187588,94.3000030517578
842.9343838,94.3000030517578
842.9500088,94.3000030517578
842.9656338,94.3000030517578
842.9812588,94.3000030517578
842.9968838,94.3000030517578
843.0125088,94.3000030517578
843.0281338,94.3000030517578
843.0437588,94.3000030517578
843.0593838,94.3000030517578
843.0750088,94.3000030517578
843.0906338,94.3000030517578
843.1062588,94.3000030517578
843.1218838,94.3000030517578
843.1375088,94.3000030517578
843.1531338,94.3000030517578
843.1687588,94.3000030517578
843.1843838,94.3000030517578
843.2000088,94.3000030517578
843.2156338,94.3000030517578
843.2312588,94.3000030517578
843.2468838,94.3000030517578
843.2625088,94.3000030517578
843.2781338,94.3000030517578
843.2937588,94.3000030517578
843.3093838,94.3000030517578
843.3250088,94.3000030517578
843.3406338,94.3000030517578
843.3562588,94.3000030517578
843.3718838,94.3000030517578
843.3875088,94.3000030517578
843.4031338,94.3000030517578
843.4187588,94.3000030517578
843.4343838,94.3000030517578
843.4500088,94.3000030517578
843.4656338,94.3000030517578
843.4812588,94.3000030517578
843.4968838,94.3000030517578
843.5125088,94.3000030517578
843.5281338,94.3000030517578
843.5437588,94.3000030517578
843.5593838,94.3000030517578
843.5750088,94.3000030517578
843.5906338,94.3000030517578
843.6062588,94.3000030517578
843.6218838,94.3000030517578
843.6375088,94.3000030517578
843.6531338,94.3000030517578
843.6687588,94.3000030517578
843.6843838,94.3000030517578
843.7000088,94.3000030517578
843.7156338,94.3000030517578
843.7312588,94.3000030517578
843.7468838,94.3000030517578
843.7625088,94.3000030517578
843.7781338,94.3000030517578
843.7937588,94.3000030517578
843.8093838,94.3000030517578
843.8250088,94.3000030517578
843.8406338,94.3000030517578
843.8562588,94.3000030517578
843.8718838,94.3000030517578
843.8875088,94.3000030517578
843.9031338,94.3000030517578
843.9187588,94.3000030517578
843.9343838,94.3000030517578
843.9500088,94.3000030517578
843.9656338,94.3000030517578
843.9812588,94.3000030517578
843.9968838,94.3000030517578
844.0125088,94.3000030517578
844.0281338,94.3000030517578
844.0437588,94.3000030517578
844.0593838,94.3000030517578
844.0750088,94.3000030517578
844.0906338,94.3000030517578
844.1062588,94.3000030517578
844.1218838,94.3000030517578
844.1375088,94.3000030517578
844.1531338,94.3000030517578
844.1687588,94.3000030517578
844.1843838,94.3000030517578
844.2000088,94.3000030517578
844.2156338,94.3000030517578
844.2312588,94.3000030517578
844.2468838,94.3000030517578
844.2625088,94.3000030517578
844.2781338,94.3000030517578
844.2937588,94.3000030517578
844.3093838,94.3000030517578
844.3250088,94.3000030517578
844.3406338,94.3000030517578
844.3562588,94.3000030517578
844.3718838,94.3000030517578
844.3875088,94.3000030517578
844.4031338,94.3000030517578
844.4187588,94.3000030517578
844.4343838,94.3000030517578
844.4500088,94.3000030517578
844.4656338,94.3000030517578
844.4812588,94.3000030517578
844.4968838,94.3000030517578
844.5125088,94.3000030517578
844.5281338,94.3000030517578
844.5437588,94.3000030517578
844.5593838,94.3000030517578
844.5750088,94.3000030517578
844.5906338,94.3000030517578
844.6062588,94.3000030517578
844.6218838,94.3000030517578
844.6375088,94.3000030517578
844.6531338,94.3000030517578
844.6687588,94.3000030517578
844.6843838,94.3000030517578
844.7000088,94.3000030517578
844.7156338,94.3000030517578
844.7312588,94.3000030517578
844.7468838,94.3000030517578
844.7625088,94.3000030517578
