Time(s),Value(℃)
275.0030367,110.660003662109
275.0186617,110.669998168945
275.0342867,110.680000305176
275.0499117,110.680000305176
275.0655367,110.690002441406
275.0811617,110.690002441406
275.0967867,110.699996948242
275.1124117,110.709999084473
275.1280367,110.709999084473
275.1436617,110.720001220703
275.1592867,110.730003356934
275.1749117,110.73999786377
275.1905367,110.73999786377
275.2061617,110.75
275.2217867,110.76000213623
275.2374117,110.76000213623
275.2530367,110.769996643066
275.2686617,110.779998779297
275.2842867,110.790000915527
275.2999117,110.800003051758
275.3155367,110.809997558594
275.3311617,110.819999694824
275.3467867,110.830001831055
275.3624117,110.839996337891
275.3780367,110.849998474121
275.3936617,110.870002746582
275.4092867,110.879997253418
275.4249117,110.889999389648
275.4405367,110.900001525879
275.4561617,110.910003662109
275.4717867,110.919998168945
275.4874117,110.930000305176
275.5030367,110.940002441406
275.5186617,110.940002441406
275.5342867,110.940002441406
275.5499117,110.940002441406
275.5655367,110.940002441406
275.5811617,110.940002441406
275.5967867,110.940002441406
275.6124117,110.930000305176
275.6280367,110.930000305176
275.6436617,110.930000305176
275.6592867,110.930000305176
275.6749117,110.930000305176
275.6905367,110.930000305176
275.7061617,110.940002441406
275.7217867,110.940002441406
275.7374117,110.949996948242
275.7530367,110.959999084473
275.7686617,110.970001220703
275.7842867,110.980003356934
275.7999117,110.98999786377
275.8155367,111.0
275.8311617,111.01000213623
275.8467867,111.019996643066
275.8624117,111.040000915527
275.8780367,111.050003051758
275.8936617,111.059997558594
275.9092867,111.080001831055
275.9249117,111.089996337891
275.9405367,111.099998474121
275.9561617,111.120002746582
275.9717867,111.129997253418
275.9874117,111.150001525879
276.0030367,111.160003662109
276.0186617,111.169998168945
276.0342867,111.190002441406
276.0499117,111.199996948242
276.0655367,111.209999084473
276.0811617,111.230003356934
276.0967867,111.23999786377
276.1124117,111.25
276.1280367,111.26000213623
276.1436617,111.269996643066
276.1592867,111.290000915527
276.1749117,111.300003051758
276.1905367,111.309997558594
276.2061617,111.319999694824
276.2217867,111.319999694824
276.2374117,111.330001831055
276.2530367,111.339996337891
276.2686617,111.339996337891
276.2842867,111.339996337891
276.2999117,111.349998474121
276.3155367,111.349998474121
276.3311617,111.349998474121
276.3467867,111.349998474121
276.3624117,111.360000610352
276.3780367,111.360000610352
276.3936617,111.370002746582
276.4092867,111.370002746582
276.4249117,111.379997253418
276.4405367,111.389999389648
276.4561617,111.400001525879
276.4717867,111.419998168945
276.4874117,111.430000305176
276.5030367,111.449996948242
276.5186617,111.459999084473
276.5342867,111.480003356934
276.5499117,111.5
276.5655367,111.519996643066
276.5811617,111.529998779297
276.5967867,111.550003051758
276.6124117,111.559997558594
276.6280367,111.580001831055
276.6436617,111.589996337891
276.6592867,111.599998474121
276.6749117,111.610000610352
276.6905367,111.620002746582
276.7061617,111.629997253418
276.7217867,111.629997253418
276.7374117,111.639999389648
276.7530367,111.650001525879
276.7686617,111.650001525879
276.7842867,111.660003662109
276.7999117,111.660003662109
276.8155367,111.669998168945
276.8311617,111.669998168945
276.8467867,111.669998168945
276.8624117,111.669998168945
276.8780367,111.669998168945
276.8936617,111.680000305176
276.9092867,111.680000305176
276.9249117,111.680000305176
276.9405367,111.680000305176
276.9561617,111.680000305176
276.9717867,111.680000305176
276.9874117,111.680000305176
277.0030367,111.680000305176
277.0186617,111.680000305176
277.0342867,111.680000305176
277.0499117,111.680000305176
277.0655367,111.680000305176
277.0811617,111.680000305176
277.0967867,111.680000305176
277.1124117,111.680000305176
277.1280367,111.680000305176
277.1436617,111.690002441406
277.1592867,111.690002441406
277.1749117,111.690002441406
277.1905367,111.690002441406
277.2061617,111.690002441406
277.2217867,111.699996948242
277.2374117,111.699996948242
277.2530367,111.699996948242
277.2686617,111.709999084473
277.2842867,111.709999084473
277.2999117,111.720001220703
277.3155367,111.720001220703
277.3311617,111.720001220703
277.3467867,111.730003356934
277.3624117,111.730003356934
277.3780367,111.730003356934
277.3936617,111.73999786377
277.4092867,111.73999786377
277.4249117,111.73999786377
277.4405367,111.73999786377
277.4561617,111.75
277.4717867,111.75
277.4874117,111.75
277.5030367,111.75
277.5186617,111.75
277.5342867,111.75
277.5499117,111.75
277.5655367,111.73999786377
277.5811617,111.73999786377
277.5967867,111.73999786377
277.6124117,111.730003356934
277.6280367,111.730003356934
277.6436617,111.720001220703
277.6592867,111.720001220703
277.6749117,111.720001220703
277.6905367,111.709999084473
277.7061617,111.709999084473
277.7217867,111.709999084473
277.7374117,111.709999084473
277.7530367,111.709999084473
277.7686617,111.709999084473
277.7842867,111.709999084473
277.7999117,111.709999084473
277.8155367,111.709999084473
277.8311617,111.709999084473
277.8467867,111.709999084473
277.8624117,111.709999084473
277.8780367,111.709999084473
277.8936617,111.709999084473
277.9092867,111.709999084473
277.9249117,111.709999084473
277.9405367,111.709999084473
277.9561617,111.699996948242
277.9717867,111.699996948242
277.9874117,111.699996948242
278.0030367,111.699996948242
278.0186617,111.699996948242
278.0342867,111.699996948242
278.0499117,111.699996948242
278.0655367,111.699996948242
278.0811617,111.709999084473
278.0967867,111.709999084473
278.1124117,111.709999084473
278.1280367,111.709999084473
278.1436617,111.709999084473
278.1592867,111.709999084473
278.1749117,111.709999084473
278.1905367,111.709999084473
278.2061617,111.709999084473
278.2217867,111.699996948242
278.2374117,111.699996948242
278.2530367,111.699996948242
278.2686617,111.699996948242
278.2842867,111.690002441406
278.2999117,111.690002441406
278.3155367,111.680000305176
278.3311617,111.680000305176
278.3467867,111.680000305176
278.3624117,111.669998168945
278.3780367,111.669998168945
278.3936617,111.669998168945
278.4092867,111.660003662109
278.4249117,111.660003662109
278.4405367,111.660003662109
278.4561617,111.660003662109
278.4717867,111.660003662109
278.4874117,111.660003662109
278.5030367,111.660003662109
278.5186617,111.660003662109
278.5342867,111.660003662109
278.5499117,111.660003662109
278.5655367,111.669998168945
278.5811617,111.669998168945
278.5967867,111.669998168945
278.6124117,111.669998168945
278.6280367,111.669998168945
278.6436617,111.669998168945
278.6592867,111.669998168945
278.6749117,111.669998168945
278.6905367,111.669998168945
278.7061617,111.669998168945
278.7217867,111.669998168945
278.7374117,111.669998168945
278.7530367,111.660003662109
278.7686617,111.660003662109
278.7842867,111.660003662109
278.7999117,111.660003662109
278.8155367,111.660003662109
278.8311617,111.660003662109
278.8467867,111.660003662109
278.8624117,111.660003662109
278.8780367,111.660003662109
278.8936617,111.660003662109
278.9092867,111.669998168945
278.9249117,111.669998168945
278.9405367,111.669998168945
278.9561617,111.669998168945
278.9717867,111.680000305176
278.9874117,111.680000305176
279.0030367,111.680000305176
279.0186617,111.690002441406
279.0342867,111.690002441406
279.0499117,111.690002441406
279.0655367,111.690002441406
279.0811617,111.690002441406
279.0967867,111.690002441406
279.1124117,111.699996948242
279.1280367,111.699996948242
279.1436617,111.699996948242
279.1592867,111.699996948242
279.1749117,111.699996948242
279.1905367,111.699996948242
279.2061617,111.699996948242
279.2217867,111.699996948242
279.2374117,111.699996948242
279.2530367,111.699996948242
279.2686617,111.699996948242
279.2842867,111.699996948242
279.2999117,111.699996948242
279.3155367,111.699996948242
279.3311617,111.699996948242
279.3467867,111.699996948242
279.3624117,111.699996948242
279.3780367,111.699996948242
279.3936617,111.699996948242
279.4092867,111.699996948242
279.4249117,111.699996948242
279.4405367,111.699996948242
279.4561617,111.699996948242
279.4717867,111.699996948242
279.4874117,111.699996948242
279.5030367,111.699996948242
279.5186617,111.709999084473
279.5342867,111.709999084473
279.5499117,111.709999084473
279.5655367,111.709999084473
279.5811617,111.709999084473
279.5967867,111.709999084473
279.6124117,111.709999084473
279.6280367,111.720001220703
279.6436617,111.720001220703
279.6592867,111.720001220703
279.6749117,111.720001220703
279.6905367,111.730003356934
279.7061617,111.730003356934
279.7217867,111.730003356934
279.7374117,111.730003356934
279.7530367,111.73999786377
279.7686617,111.73999786377
279.7842867,111.73999786377
279.7999117,111.73999786377
279.8155367,111.73999786377
279.8311617,111.73999786377
279.8467867,111.75
279.8624117,111.75
279.8780367,111.75
279.8936617,111.75
279.9092867,111.75
279.9249117,111.75
279.9405367,111.75
279.9561617,111.76000213623
279.9717867,111.76000213623
279.9874117,111.76000213623
280.0030367,111.76000213623
280.0186617,111.76000213623
280.0342867,111.76000213623
280.0499117,111.769996643066
280.0655367,111.769996643066
280.0811617,111.769996643066
280.0967867,111.769996643066
280.1124117,111.769996643066
280.1280367,111.779998779297
280.1436617,111.779998779297
280.1592867,111.779998779297
280.1749117,111.790000915527
280.1905367,111.790000915527
280.2061617,111.800003051758
280.2217867,111.800003051758
280.2374117,111.800003051758
280.2530367,111.809997558594
280.2686617,111.809997558594
280.2842867,111.819999694824
280.2999117,111.819999694824
280.3155367,111.819999694824
280.3311617,111.830001831055
280.3467867,111.830001831055
280.3624117,111.830001831055
280.3780367,111.830001831055
280.3936617,111.830001831055
280.4092867,111.830001831055
280.4249117,111.830001831055
280.4405367,111.830001831055
280.4561617,111.830001831055
280.4717867,111.830001831055
280.4874117,111.830001831055
280.5030367,111.819999694824
280.5186617,111.819999694824
280.5342867,111.819999694824
280.5499117,111.809997558594
280.5655367,111.809997558594
280.5811617,111.809997558594
280.5967867,111.800003051758
280.6124117,111.800003051758
280.6280367,111.790000915527
280.6436617,111.779998779297
280.6592867,111.779998779297
280.6749117,111.769996643066
280.6905367,111.769996643066
280.7061617,111.76000213623
280.7217867,111.76000213623
280.7374117,111.75
280.7530367,111.75
280.7686617,111.73999786377
280.7842867,111.73999786377
280.7999117,111.73999786377
280.8155367,111.730003356934
280.8311617,111.730003356934
280.8467867,111.730003356934
280.8624117,111.73999786377
280.8780367,111.73999786377
280.8936617,111.76000213623
280.9092867,111.790000915527
280.9249117,111.849998474121
280.9405367,111.930000305176
280.9561617,112.059997558594
280.9717867,112.230003356934
280.9874117,112.470001220703
281.0030367,112.76000213623
281.0186617,113.120002746582
281.0342867,113.540000915527
281.0499117,114.019996643066
281.0655367,114.550003051758
281.0811617,115.139999389648
281.0967867,115.769996643066
281.1124117,116.430000305176
281.1280367,117.129997253418
281.1436617,117.870002746582
281.1592867,118.629997253418
281.1749117,119.410003662109
281.1905367,120.209999084473
281.2061617,121.040000915527
281.2217867,121.879997253418
281.2374117,122.730003356934
281.2530367,123.599998474121
281.2686617,124.480003356934
281.2842867,125.370002746582
281.2999117,126.269996643066
281.3155367,127.180000305176
281.3311617,128.089996337891
281.3467867,129.0
281.3624117,129.919998168945
281.3780367,130.839996337891
281.3936617,131.759994506836
281.4092867,132.690002441406
281.4249117,133.619995117188
281.4405367,134.550003051758
281.4561617,135.479995727539
281.4717867,136.410003662109
281.4874117,137.339996337891
281.5030367,138.270004272461
281.5186617,139.210006713867
281.5342867,140.149993896484
281.5499117,141.080001831055
281.5655367,142.020004272461
281.5811617,142.949996948242
281.5967867,143.889999389648
281.6124117,144.820007324219
281.6280367,145.759994506836
281.6436617,146.690002441406
281.6592867,147.630004882813
281.6749117,148.559997558594
281.6905367,149.490005493164
281.7061617,150.429992675781
281.7217867,151.360000610352
281.7374117,152.289993286133
281.7530367,153.220001220703
281.7686617,154.149993896484
281.7842867,155.070007324219
281.7999117,156.0
281.8155367,156.919998168945
281.8311617,157.830001831055
281.8467867,158.720001220703
281.8624117,159.600006103516
281.8780367,160.440002441406
281.8936617,161.240005493164
281.9092867,161.990005493164
281.9249117,162.679992675781
281.9405367,163.309997558594
281.9561617,163.880004882813
281.9717867,164.380004882813
281.9874117,164.820007324219
282.0030367,165.199996948242
282.0186617,165.520004272461
282.0342867,165.800003051758
282.0499117,166.029998779297
282.0655367,166.210006713867
282.0811617,166.350006103516
282.0967867,166.440002441406
282.1124117,166.509994506836
282.1280367,166.529998779297
282.1436617,166.529998779297
282.1592867,166.5
282.1749117,166.440002441406
282.1905367,166.369995117188
282.2061617,166.279998779297
282.2217867,166.169998168945
282.2374117,166.050003051758
282.2530367,165.919998168945
282.2686617,165.789993286133
282.2842867,165.639999389648
282.2999117,165.490005493164
282.3155367,165.330001831055
282.3311617,165.169998168945
282.3467867,165.0
282.3624117,164.830001831055
282.3780367,164.649993896484
282.3936617,164.470001220703
282.4092867,164.289993286133
282.4249117,164.110000610352
282.4405367,163.919998168945
282.4561617,163.729995727539
282.4717867,163.539993286133
282.4874117,163.350006103516
282.5030367,163.149993896484
282.5186617,162.960006713867
282.5342867,162.759994506836
282.5499117,162.559997558594
282.5655367,162.350006103516
282.5811617,162.149993896484
282.5967867,161.940002441406
282.6124117,161.740005493164
282.6280367,161.529998779297
282.6436617,161.320007324219
282.6592867,161.110000610352
282.6749117,160.889999389648
282.6905367,160.679992675781
282.7061617,160.460006713867
282.7217867,160.240005493164
282.7374117,160.020004272461
282.7530367,159.800003051758
282.7686617,159.580001831055
282.7842867,159.350006103516
282.7999117,159.119995117188
282.8155367,158.889999389648
282.8311617,158.649993896484
282.8467867,158.410003662109
282.8624117,158.169998168945
282.8780367,157.919998168945
282.8936617,157.669998168945
282.9092867,157.419998168945
282.9249117,157.160003662109
282.9405367,156.910003662109
282.9561617,156.649993896484
282.9717867,156.399993896484
282.9874117,156.160003662109
283.0030367,155.929992675781
283.0186617,155.710006713867
283.0342867,155.5
283.0499117,155.300003051758
283.0655367,155.110000610352
283.0811617,154.929992675781
283.0967867,154.759994506836
283.1124117,154.589996337891
283.1280367,154.440002441406
283.1436617,154.279998779297
283.1592867,154.130004882813
283.1749117,153.990005493164
283.1905367,153.839996337891
283.2061617,153.699996948242
283.2217867,153.559997558594
283.2374117,153.419998168945
283.2530367,153.289993286133
283.2686617,153.149993896484
283.2842867,153.009994506836
283.2999117,152.880004882813
283.3155367,152.740005493164
283.3311617,152.600006103516
283.3467867,152.460006713867
283.3624117,152.320007324219
283.3780367,152.179992675781
283.3936617,152.029998779297
283.4092867,151.880004882813
283.4249117,151.729995727539
283.4405367,151.580001831055
283.4561617,151.419998168945
283.4717867,151.270004272461
283.4874117,151.110000610352
283.5030367,150.949996948242
283.5186617,150.789993286133
283.5342867,150.630004882813
283.5499117,150.479995727539
283.5655367,150.330001831055
283.5811617,150.179992675781
283.5967867,150.039993286133
283.6124117,149.919998168945
283.6280367,149.800003051758
283.6436617,149.690002441406
283.6592867,149.589996337891
283.6749117,149.509994506836
283.6905367,149.429992675781
283.7061617,149.360000610352
283.7217867,149.289993286133
283.7374117,149.229995727539
283.7530367,149.179992675781
283.7686617,149.130004882813
283.7842867,149.089996337891
283.7999117,149.050003051758
283.8155367,149.009994506836
283.8311617,148.979995727539
283.8467867,148.949996948242
283.8624117,148.929992675781
283.8780367,148.899993896484
283.8936617,148.880004882813
283.9092867,148.860000610352
283.9249117,148.839996337891
283.9405367,148.820007324219
283.9561617,148.800003051758
283.9717867,148.789993286133
283.9874117,148.770004272461
284.0030367,148.75
284.0186617,148.740005493164
284.0342867,148.720001220703
284.0499117,148.710006713867
284.0655367,148.699996948242
284.0811617,148.679992675781
284.0967867,148.669998168945
284.1124117,148.660003662109
284.1280367,148.649993896484
284.1436617,148.630004882813
284.1592867,148.619995117188
284.1749117,148.600006103516
284.1905367,148.580001831055
284.2061617,148.559997558594
284.2217867,148.529998779297
284.2374117,148.5
284.2530367,148.479995727539
284.2686617,148.449996948242
284.2842867,148.419998168945
284.2999117,148.389999389648
284.3155367,148.360000610352
284.3311617,148.330001831055
284.3467867,148.309997558594
284.3624117,148.279998779297
284.3780367,148.259994506836
284.3936617,148.240005493164
284.4092867,148.220001220703
284.4249117,148.199996948242
284.4405367,148.179992675781
284.4561617,148.160003662109
284.4717867,148.130004882813
284.4874117,148.100006103516
284.5030367,148.070007324219
284.5186617,148.020004272461
284.5342867,147.970001220703
284.5499117,147.910003662109
284.5655367,147.839996337891
284.5811617,147.75
284.5967867,147.649993896484
284.6124117,147.539993286133
284.6280367,147.419998168945
284.6436617,147.289993286133
284.6592867,147.160003662109
284.6749117,147.009994506836
284.6905367,146.860000610352
284.7061617,146.699996948242
284.7217867,146.539993286133
284.7374117,146.380004882813
284.7530367,146.210006713867
284.7686617,146.029998779297
284.7842867,145.850006103516
284.7999117,145.669998168945
284.8155367,145.479995727539
284.8311617,145.289993286133
284.8467867,145.100006103516
284.8624117,144.899993896484
284.8780367,144.710006713867
284.8936617,144.509994506836
284.9092867,144.300003051758
284.9249117,144.100006103516
284.9405367,143.889999389648
284.9561617,143.690002441406
284.9717867,143.479995727539
284.9874117,143.270004272461
285.0030367,143.050003051758
285.0186617,142.839996337891
285.0342867,142.619995117188
285.0499117,142.410003662109
285.0655367,142.190002441406
285.0811617,141.970001220703
285.0967867,141.759994506836
285.1124117,141.539993286133
285.1280367,141.330001831055
285.1436617,141.110000610352
285.1592867,140.899993896484
285.1749117,140.699996948242
285.1905367,140.490005493164
285.2061617,140.279998779297
285.2217867,140.080001831055
285.2374117,139.880004882813
285.2530367,139.679992675781
285.2686617,139.479995727539
285.2842867,139.279998779297
285.2999117,139.070007324219
285.3155367,138.869995117188
285.3311617,138.679992675781
285.3467867,138.479995727539
285.3624117,138.279998779297
285.3780367,138.080001831055
285.3936617,137.889999389648
285.4092867,137.699996948242
285.4249117,137.5
285.4405367,137.309997558594
285.4561617,137.119995117188
285.4717867,136.940002441406
285.4874117,136.75
285.5030367,136.570007324219
285.5186617,136.399993896484
285.5342867,136.229995727539
285.5499117,136.070007324219
285.5655367,135.929992675781
285.5811617,135.789993286133
285.5967867,135.669998168945
285.6124117,135.570007324219
285.6280367,135.490005493164
285.6436617,135.429992675781
285.6592867,135.389999389648
285.6749117,135.369995117188
285.6905367,135.360000610352
285.7061617,135.369995117188
285.7217867,135.399993896484
285.7374117,135.440002441406
285.7530367,135.490005493164
285.7686617,135.559997558594
285.7842867,135.639999389648
285.7999117,135.740005493164
285.8155367,135.839996337891
285.8311617,135.960006713867
285.8467867,136.080001831055
285.8624117,136.210006713867
285.8780367,136.350006103516
285.8936617,136.5
285.9092867,136.649993896484
285.9249117,136.809997558594
285.9405367,136.979995727539
