Time(s),Value(μS)
787.0120582,0.499000012874603
787.0276832,0.499000012874603
787.0433082,0.499000012874603
787.0589332,0.499000012874603
787.0745582,0.497999995946884
787.0901832,0.488000005483627
787.1058082,0.462999999523163
787.1214332,0.428000003099442
787.1370582,0.388000011444092
787.1526832,0.344999998807907
787.1683082,0.310999989509583
787.1839332,0.291000008583069
787.1995582,0.282000005245209
787.2151832,0.277999997138977
787.2308082,0.277999997138977
787.2464332,0.287000000476837
787.2620582,0.310999989509583
787.2776832,0.347000002861023
787.2933082,0.391000002622604
787.3089332,0.439000010490417
787.3245582,0.48199999332428
787.3401832,0.509999990463257
787.3558082,0.52700001001358
787.3714332,0.535000026226044
787.3870582,0.537999987602234
787.4026832,0.538999974727631
787.4183082,0.538999974727631
787.4339332,0.537999987602234
787.4495582,0.537000000476837
787.4651832,0.535000026226044
787.4808082,0.533999979496002
787.4964332,0.532000005245209
787.5120582,0.531000018119812
787.5276832,0.528999984264374
787.5433082,0.52700001001358
787.5589332,0.526000022888184
787.5745582,0.523999989032745
787.5901832,0.522000014781952
787.6058082,0.521000027656555
787.6214332,0.518999993801117
787.6370582,0.51800000667572
787.6526832,0.517000019550323
787.6683082,0.515999972820282
787.6839332,0.514999985694885
787.6995582,0.514999985694885
787.7151832,0.513999998569489
787.7308082,0.513000011444092
787.7464332,0.512000024318695
787.7620582,0.512000024318695
787.7776832,0.510999977588654
787.7933082,0.510999977588654
787.8089332,0.510999977588654
787.8245582,0.509999990463257
787.8401832,0.509999990463257
787.8558082,0.50900000333786
787.8714332,0.50900000333786
787.8870582,0.50900000333786
787.9026832,0.508000016212463
787.9183082,0.508000016212463
787.9339332,0.507000029087067
787.9495582,0.507000029087067
787.9651832,0.507000029087067
787.9808082,0.507000029087067
787.9964332,0.507000029087067
788.0120582,0.505999982357025
788.0276832,0.505999982357025
788.0433082,0.505999982357025
788.0589332,0.505999982357025
788.0745582,0.505999982357025
788.0901832,0.505999982357025
788.1058082,0.505999982357025
788.1214332,0.504999995231628
788.1370582,0.504999995231628
788.1526832,0.504999995231628
788.1683082,0.504999995231628
788.1839332,0.504999995231628
788.1995582,0.504999995231628
788.2151832,0.504999995231628
788.2308082,0.504999995231628
788.2464332,0.504999995231628
788.2620582,0.504000008106232
788.2776832,0.504000008106232
788.2933082,0.504000008106232
788.3089332,0.504000008106232
788.3245582,0.503000020980835
788.3401832,0.501999974250793
788.3558082,0.501999974250793
788.3714332,0.500999987125397
788.3870582,0.5
788.4026832,0.500999987125397
788.4183082,0.500999987125397
788.4339332,0.501999974250793
788.4495582,0.501999974250793
788.4651832,0.503000020980835
788.4808082,0.503000020980835
788.4964332,0.503000020980835
788.5120582,0.503000020980835
788.5276832,0.503000020980835
788.5433082,0.503000020980835
788.5589332,0.503000020980835
788.5745582,0.503000020980835
788.5901832,0.503000020980835
788.6058082,0.503000020980835
788.6214332,0.503000020980835
788.6370582,0.503000020980835
788.6526832,0.503000020980835
788.6683082,0.503000020980835
788.6839332,0.503000020980835
788.6995582,0.503000020980835
788.7151832,0.503000020980835
788.7308082,0.503000020980835
788.7464332,0.504000008106232
788.7620582,0.504000008106232
788.7776832,0.504000008106232
788.7933082,0.504000008106232
788.8089332,0.504000008106232
788.8245582,0.504000008106232
788.8401832,0.504000008106232
788.8558082,0.504000008106232
788.8714332,0.504000008106232
788.8870582,0.504000008106232
788.9026832,0.504000008106232
788.9183082,0.504000008106232
788.9339332,0.504000008106232
788.9495582,0.504000008106232
788.9651832,0.504000008106232
788.9808082,0.504000008106232
788.9964332,0.504000008106232
789.0120582,0.504000008106232
789.0276832,0.504000008106232
789.0433082,0.504000008106232
789.0589332,0.504000008106232
789.0745582,0.504000008106232
789.0901832,0.504000008106232
789.1058082,0.504000008106232
789.1214332,0.504999995231628
789.1370582,0.504999995231628
789.1526832,0.504999995231628
789.1683082,0.504999995231628
789.1839332,0.504999995231628
789.1995582,0.504999995231628
789.2151832,0.504999995231628
789.2308082,0.504999995231628
789.2464332,0.504999995231628
789.2620582,0.504999995231628
789.2776832,0.504999995231628
789.2933082,0.504999995231628
789.3089332,0.504999995231628
789.3245582,0.504999995231628
789.3401832,0.504999995231628
789.3558082,0.504999995231628
789.3714332,0.504999995231628
789.3870582,0.504999995231628
789.4026832,0.504999995231628
789.4183082,0.504999995231628
789.4339332,0.504999995231628
789.4495582,0.504999995231628
789.4651832,0.504999995231628
789.4808082,0.504999995231628
789.4964332,0.504999995231628
789.5120582,0.504999995231628
789.5276832,0.504999995231628
789.5433082,0.504999995231628
789.5589332,0.504999995231628
789.5745582,0.505999982357025
789.5901832,0.505999982357025
789.6058082,0.505999982357025
789.6214332,0.505999982357025
789.6370582,0.505999982357025
789.6526832,0.505999982357025
789.6683082,0.505999982357025
789.6839332,0.505999982357025
789.6995582,0.505999982357025
789.7151832,0.505999982357025
789.7308082,0.505999982357025
789.7464332,0.505999982357025
789.7620582,0.505999982357025
789.7776832,0.505999982357025
789.7933082,0.505999982357025
789.8089332,0.505999982357025
789.8245582,0.505999982357025
789.8401832,0.505999982357025
789.8558082,0.505999982357025
789.8714332,0.505999982357025
789.8870582,0.505999982357025
789.9026832,0.505999982357025
789.9183082,0.504999995231628
789.9339332,0.504999995231628
789.9495582,0.504000008106232
789.9651832,0.504000008106232
789.9808082,0.504000008106232
789.9964332,0.504999995231628
790.0120582,0.504999995231628
790.0276832,0.504999995231628
790.0433082,0.505999982357025
790.0589332,0.505999982357025
790.0745582,0.507000029087067
790.0901832,0.507000029087067
790.1058082,0.507000029087067
790.1214332,0.507000029087067
790.1370582,0.507000029087067
790.1526832,0.507000029087067
790.1683082,0.507000029087067
790.1839332,0.507000029087067
790.1995582,0.507000029087067
790.2151832,0.507000029087067
790.2308082,0.507000029087067
790.2464332,0.507000029087067
790.2620582,0.507000029087067
790.2776832,0.507000029087067
790.2933082,0.507000029087067
790.3089332,0.507000029087067
790.3245582,0.507000029087067
790.3401832,0.507000029087067
790.3558082,0.507000029087067
790.3714332,0.507000029087067
790.3870582,0.507000029087067
790.4026832,0.507000029087067
790.4183082,0.507000029087067
790.4339332,0.507000029087067
790.4495582,0.507000029087067
790.4651832,0.507000029087067
790.4808082,0.507000029087067
790.4964332,0.507000029087067
790.5120582,0.507000029087067
790.5276832,0.507000029087067
790.5433082,0.507000029087067
790.5589332,0.507000029087067
790.5745582,0.508000016212463
790.5901832,0.508000016212463
790.6058082,0.508000016212463
790.6214332,0.508000016212463
790.6370582,0.508000016212463
790.6526832,0.508000016212463
790.6683082,0.508000016212463
790.6839332,0.508000016212463
790.6995582,0.508000016212463
790.7151832,0.508000016212463
790.7308082,0.508000016212463
790.7464332,0.508000016212463
790.7620582,0.508000016212463
790.7776832,0.508000016212463
790.7933082,0.508000016212463
790.8089332,0.508000016212463
790.8245582,0.508000016212463
790.8401832,0.508000016212463
790.8558082,0.508000016212463
790.8714332,0.508000016212463
790.8870582,0.508000016212463
790.9026832,0.508000016212463
790.9183082,0.508000016212463
790.9339332,0.508000016212463
790.9495582,0.508000016212463
790.9651832,0.508000016212463
790.9808082,0.508000016212463
790.9964332,0.508000016212463
791.0120582,0.508000016212463
791.0276832,0.508000016212463
791.0433082,0.508000016212463
791.0589332,0.508000016212463
791.0745582,0.508000016212463
791.0901832,0.508000016212463
791.1058082,0.508000016212463
791.1214332,0.508000016212463
791.1370582,0.508000016212463
791.1526832,0.508000016212463
791.1683082,0.508000016212463
791.1839332,0.508000016212463
791.1995582,0.508000016212463
791.2151832,0.508000016212463
791.2308082,0.508000016212463
791.2464332,0.508000016212463
791.2620582,0.508000016212463
791.2776832,0.508000016212463
791.2933082,0.508000016212463
791.3089332,0.508000016212463
791.3245582,0.508000016212463
791.3401832,0.508000016212463
791.3558082,0.508000016212463
791.3714332,0.508000016212463
791.3870582,0.508000016212463
791.4026832,0.508000016212463
791.4183082,0.508000016212463
791.4339332,0.507000029087067
791.4495582,0.507000029087067
791.4651832,0.505999982357025
791.4808082,0.505999982357025
791.4964332,0.505999982357025
791.5120582,0.505999982357025
791.5276832,0.505999982357025
791.5433082,0.505999982357025
791.5589332,0.505999982357025
791.5745582,0.507000029087067
791.5901832,0.507000029087067
791.6058082,0.507000029087067
791.6214332,0.507000029087067
791.6370582,0.507000029087067
791.6526832,0.507000029087067
791.6683082,0.507000029087067
791.6839332,0.507000029087067
791.6995582,0.507000029087067
791.7151832,0.507000029087067
791.7308082,0.507000029087067
791.7464332,0.507000029087067
791.7620582,0.505999982357025
791.7776832,0.505999982357025
791.7933082,0.505999982357025
791.8089332,0.505999982357025
791.8245582,0.505999982357025
791.8401832,0.505999982357025
791.8558082,0.505999982357025
791.8714332,0.505999982357025
791.8870582,0.505999982357025
791.9026832,0.505999982357025
791.9183082,0.505999982357025
791.9339332,0.505999982357025
791.9495582,0.505999982357025
791.9651832,0.505999982357025
791.9808082,0.505999982357025
791.9964332,0.505999982357025
792.0120582,0.505999982357025
792.0276832,0.505999982357025
792.0433082,0.505999982357025
792.0589332,0.505999982357025
792.0745582,0.505999982357025
792.0901832,0.505999982357025
792.1058082,0.505999982357025
792.1214332,0.505999982357025
792.1370582,0.505999982357025
792.1526832,0.505999982357025
792.1683082,0.504999995231628
792.1839332,0.504999995231628
792.1995582,0.504999995231628
792.2151832,0.504999995231628
792.2308082,0.504999995231628
792.2464332,0.504999995231628
792.2620582,0.504999995231628
792.2776832,0.504999995231628
792.2933082,0.504999995231628
792.3089332,0.504999995231628
792.3245582,0.504999995231628
792.3401832,0.504999995231628
792.3558082,0.504999995231628
792.3714332,0.504999995231628
792.3870582,0.504999995231628
792.4026832,0.504999995231628
792.4183082,0.504999995231628
792.4339332,0.504999995231628
792.4495582,0.504999995231628
792.4651832,0.504999995231628
792.4808082,0.504999995231628
792.4964332,0.504999995231628
792.5120582,0.504999995231628
792.5276832,0.504000008106232
792.5433082,0.504000008106232
792.5589332,0.504000008106232
792.5745582,0.504000008106232
792.5901832,0.504000008106232
792.6058082,0.504000008106232
792.6214332,0.504000008106232
792.6370582,0.504000008106232
792.6526832,0.504000008106232
792.6683082,0.504000008106232
792.6839332,0.504000008106232
792.6995582,0.504000008106232
792.7151832,0.504000008106232
792.7308082,0.504000008106232
792.7464332,0.504000008106232
792.7620582,0.504000008106232
792.7776832,0.504000008106232
792.7933082,0.504000008106232
792.8089332,0.504000008106232
792.8245582,0.504000008106232
792.8401832,0.504000008106232
792.8558082,0.504000008106232
792.8714332,0.504000008106232
792.8870582,0.503000020980835
792.9026832,0.503000020980835
792.9183082,0.503000020980835
792.9339332,0.501999974250793
792.9495582,0.501999974250793
792.9651832,0.500999987125397
792.9808082,0.5
792.9964332,0.5
793.0120582,0.500999987125397
793.0276832,0.500999987125397
793.0433082,0.500999987125397
793.0589332,0.501999974250793
793.0745582,0.501999974250793
793.0901832,0.501999974250793
793.1058082,0.501999974250793
793.1214332,0.501999974250793
793.1370582,0.501999974250793
793.1526832,0.501999974250793
793.1683082,0.501999974250793
793.1839332,0.501999974250793
793.1995582,0.501999974250793
793.2151832,0.501999974250793
793.2308082,0.501999974250793
793.2464332,0.501999974250793
793.2620582,0.501999974250793
793.2776832,0.500999987125397
793.2933082,0.500999987125397
793.3089332,0.500999987125397
793.3245582,0.500999987125397
793.3401832,0.500999987125397
793.3558082,0.500999987125397
793.3714332,0.500999987125397
793.3870582,0.500999987125397
793.4026832,0.5
793.4183082,0.5
793.4339332,0.5
793.4495582,0.5
793.4651832,0.5
793.4808082,0.499000012874603
793.4964332,0.499000012874603
793.5120582,0.497999995946884
793.5276832,0.497000008821487
793.5433082,0.497000008821487
793.5589332,0.497000008821487
793.5745582,0.495999991893768
793.5901832,0.495999991893768
793.6058082,0.495999991893768
793.6214332,0.495999991893768
793.6370582,0.495999991893768
793.6526832,0.497000008821487
793.6683082,0.497000008821487
793.6839332,0.497999995946884
793.6995582,0.497999995946884
793.7151832,0.497999995946884
793.7308082,0.497999995946884
793.7464332,0.497999995946884
793.7620582,0.497999995946884
793.7776832,0.497999995946884
793.7933082,0.497999995946884
793.8089332,0.497999995946884
793.8245582,0.497999995946884
793.8401832,0.497999995946884
793.8558082,0.497999995946884
793.8714332,0.497999995946884
793.8870582,0.497000008821487
793.9026832,0.497000008821487
793.9183082,0.497000008821487
793.9339332,0.497000008821487
793.9495582,0.497000008821487
793.9651832,0.497000008821487
793.9808082,0.497999995946884
793.9964332,0.497999995946884
794.0120582,0.497999995946884
794.0276832,0.497999995946884
794.0433082,0.497999995946884
794.0589332,0.499000012874603
794.0745582,0.499000012874603
794.0901832,0.499000012874603
794.1058082,0.499000012874603
794.1214332,0.499000012874603
794.1370582,0.499000012874603
794.1526832,0.499000012874603
794.1683082,0.499000012874603
794.1839332,0.499000012874603
794.1995582,0.499000012874603
794.2151832,0.499000012874603
794.2308082,0.499000012874603
794.2464332,0.499000012874603
794.2620582,0.499000012874603
794.2776832,0.499000012874603
794.2933082,0.499000012874603
794.3089332,0.499000012874603
794.3245582,0.499000012874603
794.3401832,0.499000012874603
794.3558082,0.499000012874603
794.3714332,0.499000012874603
794.3870582,0.499000012874603
794.4026832,0.499000012874603
794.4183082,0.499000012874603
794.4339332,0.499000012874603
794.4495582,0.499000012874603
794.4651832,0.499000012874603
794.4808082,0.497999995946884
794.4964332,0.497999995946884
794.5120582,0.497999995946884
794.5276832,0.497999995946884
794.5433082,0.497999995946884
794.5589332,0.497999995946884
794.5745582,0.497999995946884
794.5901832,0.499000012874603
794.6058082,0.499000012874603
794.6214332,0.499000012874603
794.6370582,0.499000012874603
794.6526832,0.499000012874603
794.6683082,0.499000012874603
794.6839332,0.499000012874603
794.6995582,0.499000012874603
794.7151832,0.499000012874603
794.7308082,0.499000012874603
794.7464332,0.497999995946884
794.7620582,0.497999995946884
794.7776832,0.497999995946884
794.7933082,0.497999995946884
794.8089332,0.497999995946884
794.8245582,0.497999995946884
794.8401832,0.497999995946884
794.8558082,0.497999995946884
794.8714332,0.497999995946884
794.8870582,0.497999995946884
794.9026832,0.497999995946884
794.9183082,0.497999995946884
794.9339332,0.497999995946884
794.9495582,0.497999995946884
794.9651832,0.497999995946884
794.9808082,0.497999995946884
794.9964332,0.497999995946884
795.0120582,0.497999995946884
795.0276832,0.497999995946884
795.0433082,0.497999995946884
795.0589332,0.497999995946884
795.0745582,0.497999995946884
795.0901832,0.497999995946884
795.1058082,0.497999995946884
795.1214332,0.497999995946884
795.1370582,0.497999995946884
795.1526832,0.497999995946884
795.1683082,0.497999995946884
795.1839332,0.497999995946884
795.1995582,0.497999995946884
795.2151832,0.497999995946884
795.2308082,0.497000008821487
795.2464332,0.497000008821487
795.2620582,0.497000008821487
795.2776832,0.497000008821487
795.2933082,0.497000008821487
795.3089332,0.497000008821487
795.3245582,0.497000008821487
795.3401832,0.497000008821487
795.3558082,0.497000008821487
795.3714332,0.497000008821487
795.3870582,0.497000008821487
795.4026832,0.497000008821487
795.4183082,0.497000008821487
795.4339332,0.497000008821487
795.4495582,0.497999995946884
795.4651832,0.497999995946884
795.4808082,0.497999995946884
795.4964332,0.497999995946884
795.5120582,0.497999995946884
795.5276832,0.497999995946884
795.5433082,0.497999995946884
795.5589332,0.497999995946884
795.5745582,0.497999995946884
795.5901832,0.497999995946884
795.6058082,0.497999995946884
795.6214332,0.497999995946884
795.6370582,0.497999995946884
795.6526832,0.497999995946884
795.6683082,0.499000012874603
795.6839332,0.499000012874603
795.6995582,0.499000012874603
795.7151832,0.499000012874603
795.7308082,0.499000012874603
795.7464332,0.499000012874603
795.7620582,0.499000012874603
795.7776832,0.499000012874603
795.7933082,0.499000012874603
795.8089332,0.499000012874603
795.8245582,0.499000012874603
795.8401832,0.499000012874603
795.8558082,0.499000012874603
795.8714332,0.499000012874603
795.8870582,0.497999995946884
795.9026832,0.497999995946884
795.9183082,0.497999995946884
795.9339332,0.497999995946884
795.9495582,0.497999995946884
795.9651832,0.497999995946884
795.9808082,0.499000012874603
795.9964332,0.499000012874603
796.0120582,0.499000012874603
796.0276832,0.5
796.0433082,0.5
796.0589332,0.5
796.0745582,0.5
796.0901832,0.5
796.1058082,0.5
796.1214332,0.5
796.1370582,0.5
796.1526832,0.5
796.1683082,0.5
796.1839332,0.5
796.1995582,0.5
796.2151832,0.5
796.2308082,0.5
796.2464332,0.5
796.2620582,0.5
796.2776832,0.5
796.2933082,0.5
796.3089332,0.5
796.3245582,0.5
796.3401832,0.5
796.3558082,0.5
796.3714332,0.5
796.3870582,0.5
796.4026832,0.5
796.4183082,0.5
796.4339332,0.5
796.4495582,0.5
796.4651832,0.5
796.4808082,0.5
796.4964332,0.5
796.5120582,0.5
796.5276832,0.5
796.5433082,0.5
796.5589332,0.5
796.5745582,0.5
796.5901832,0.5
796.6058082,0.5
796.6214332,0.5
796.6370582,0.5
796.6526832,0.5
796.6683082,0.5
796.6839332,0.5
796.6995582,0.5
796.7151832,0.5
796.7308082,0.5
796.7464332,0.5
796.7620582,0.5
796.7776832,0.5
796.7933082,0.5
796.8089332,0.5
796.8245582,0.5
796.8401832,0.5
796.8558082,0.5
796.8714332,0.5
796.8870582,0.5
796.9026832,0.5
796.9183082,0.5
796.9339332,0.5
796.9495582,0.5
796.9651832,0.5
796.9808082,0.499000012874603
796.9964332,0.499000012874603
797.0120582,0.499000012874603
797.0276832,0.499000012874603
797.0433082,0.499000012874603
797.0589332,0.499000012874603
797.0745582,0.499000012874603
797.0901832,0.499000012874603
797.1058082,0.499000012874603
797.1214332,0.499000012874603
797.1370582,0.499000012874603
797.1526832,0.499000012874603
797.1683082,0.499000012874603
797.1839332,0.499000012874603
797.1995582,0.499000012874603
797.2151832,0.499000012874603
797.2308082,0.499000012874603
797.2464332,0.499000012874603
797.2620582,0.499000012874603
797.2776832,0.499000012874603
797.2933082,0.499000012874603
797.3089332,0.499000012874603
797.3245582,0.499000012874603
797.3401832,0.497999995946884
797.3558082,0.497999995946884
797.3714332,0.497999995946884
797.3870582,0.497999995946884
797.4026832,0.497999995946884
797.4183082,0.497000008821487
797.4339332,0.497000008821487
797.4495582,0.495999991893768
797.4651832,0.495999991893768
797.4808082,0.495999991893768
797.4964332,0.495999991893768
797.5120582,0.497000008821487
797.5276832,0.497000008821487
797.5433082,0.497000008821487
797.5589332,0.497000008821487
797.5745582,0.497000008821487
797.5901832,0.497000008821487
797.6058082,0.497000008821487
797.6214332,0.497000008821487
797.6370582,0.497000008821487
797.6526832,0.497000008821487
797.6683082,0.497000008821487
797.6839332,0.497000008821487
797.6995582,0.497000008821487
797.7151832,0.497000008821487
797.7308082,0.497000008821487
797.7464332,0.497000008821487
797.7620582,0.497000008821487
797.7776832,0.497000008821487
797.7933082,0.497000008821487
797.8089332,0.497000008821487
797.8245582,0.497000008821487
797.8401832,0.497000008821487
797.8558082,0.497000008821487
797.8714332,0.497000008821487
797.8870582,0.495999991893768
797.9026832,0.495999991893768
