Time(s),Value(%)
1300.0127443,97.5100021362305
1300.0283693,106.720001220703
1300.0439943,114.75
1300.0596193,121.040000915527
1300.0752443,124.779998779297
1300.0908693,125.849998474121
1300.1064943,124.830001831055
1300.1221193,122.220001220703
1300.1377443,117.889999389648
1300.1533693,111.330001831055
1300.1689943,102.480003356934
1300.1846193,92.0199966430664
1300.2002443,81.1999969482422
1300.2158693,71.120002746582
1300.2314943,62.3499984741211
1300.2471193,54.6500015258789
1300.2627443,47.3300018310547
1300.2783693,39.7200012207031
1300.2939943,31.6100006103516
1300.3096193,23.1900005340576
1300.3252443,14.7299995422363
1300.3408693,6.34999990463257
1300.3564943,-1.89999997615814
1300.3721193,-9.98999977111816
1300.3877443,-17.8400001525879
1300.4033693,-25.4300003051758
1300.4189943,-32.7700004577637
1300.4346193,-39.9099998474121
1300.4502443,-46.8499984741211
1300.4658693,-53.4900016784668
1300.4814943,-59.6199989318848
1300.4971193,-65.0400009155273
1300.5127443,-69.75
1300.5283693,-73.8600006103516
1300.5439943,-77.6500015258789
1300.5596193,-81.3600006103516
1300.5752443,-85.1100006103516
1300.5908693,-88.9400024414063
1300.6064943,-92.8600006103516
1300.6221193,-96.870002746582
1300.6377443,-100.910003662109
1300.6533693,-104.860000610352
1300.6689943,-108.48999786377
1300.6846193,-111.279998779297
1300.7002443,-112.360000610352
1300.7158693,-110.980003356934
1300.7314943,-107.01000213623
1300.7471193,-100.669998168945
1300.7627443,-92.0100021362305
1300.7783693,-80.9800033569336
1300.7939943,-68.0400009155273
1300.8096193,-54.5099983215332
1300.8252443,-42.2599983215332
1300.8408693,-32.6800003051758
1300.8564943,-25.9200000762939
1300.8721193,-21.3600006103516
1300.8877443,-18.6700000762939
1300.9033693,-18.0100002288818
1300.9189943,-19.4500007629395
1300.9346193,-22.5200004577637
1300.9502443,-26.4799995422363
1300.9658693,-30.7700004577637
1300.9814943,-35.3800010681152
1300.9971193,-40.6500015258789
1301.0127443,-46.7700004577637
1301.0283693,-53.5200004577637
1301.0439943,-60.4500007629395
1301.0596193,-67.0599975585938
1301.0752443,-73.0400009155273
1301.0908693,-78.3099975585938
1301.1064943,-82.9000015258789
1301.1221193,-86.9700012207031
1301.1377443,-90.75
1301.1533693,-94.4300003051758
1301.1689943,-98.0599975585938
1301.1846193,-101.559997558594
1301.2002443,-104.779998779297
1301.2158693,-107.599998474121
1301.2314943,-110.01000213623
1301.2471193,-112.110000610352
1301.2627443,-114.199996948242
1301.2783693,-116.51000213623
1301.2939943,-119.129997253418
1301.3096193,-121.959999084473
1301.3252443,-124.900001525879
1301.3408693,-127.849998474121
1301.3564943,-130.669998168945
1301.3721193,-133.070007324219
1301.3877443,-134.610000610352
1301.4033693,-134.970001220703
1301.4189943,-134.300003051758
1301.4346193,-132.990005493164
1301.4502443,-131.380004882813
1301.4658693,-129.639999389648
1301.4814943,-127.819999694824
1301.4971193,-125.980003356934
1301.5127443,-123.98999786377
1301.5283693,-121.860000610352
1301.5439943,-119.190002441406
1301.5596193,-115.220001220703
1301.5752443,-108.819999694824
1301.5908693,-99.1800003051758
1301.6064943,-86.3600006103516
1301.6221193,-71.4000015258789
1301.6377443,-55.7700004577637
1301.6533693,-40.7299995422363
1301.6689943,-26.9599990844727
1301.6846193,-14.5900001525879
1301.7002443,-3.4300000667572
1301.7158693,6.78000020980835
1301.7314943,16.3400001525879
1301.7471193,25.5
1301.7627443,34.5400009155273
1301.7783693,43.6699981689453
1301.7939943,52.810001373291
1301.8096193,61.2999992370605
1301.8252443,67.9499969482422
1301.8408693,71.6699981689453
1301.8564943,72.2300033569336
1301.8721193,70.3199996948242
1301.8877443,67.0
1301.9033693,63.2299995422363
1301.9189943,59.6100006103516
1301.9346193,56.3499984741211
1301.9502443,53.4700012207031
1301.9658693,50.8400001525879
1301.9814943,48.3499984741211
1301.9971193,45.9300003051758
1302.0127443,43.560001373291
1302.0283693,41.1599998474121
1302.0439943,38.560001373291
1302.0596193,35.5999984741211
1302.0752443,32.25
1302.0908693,28.7199993133545
1302.1064943,25.2999992370605
1302.1221193,22.1299991607666
1302.1377443,19.1299991607666
1302.1533693,16.1299991607666
1302.1689943,13.1999998092651
1302.1846193,10.6199998855591
1302.2002443,8.64000034332275
1302.2158693,7.30000019073486
1302.2314943,6.48000001907349
1302.2471193,5.92999982833862
1302.2627443,5.40999984741211
1302.2783693,4.78999996185303
1302.2939943,4.03999996185303
1302.3096193,3.11999988555908
1302.3252443,1.9099999666214
1302.3408693,0.259999990463257
1302.3564943,-1.77999997138977
1302.3721193,-3.89000010490417
1302.3877443,-5.44999980926514
1302.4033693,-5.78000020980835
1302.4189943,-4.34999990463257
1302.4346193,-0.980000019073486
1302.4502443,4.1399998664856
1302.4658693,10.5500001907349
1302.4814943,17.6000003814697
1302.4971193,24.6499996185303
1302.5127443,31.2199993133545
1302.5283693,37.7299995422363
1302.5439943,45.1500015258789
1302.5596193,54.4700012207031
1302.5752443,65.8600006103516
1302.5908693,78.5699996948242
1302.6064943,91.4199981689453
1302.6221193,103.370002746582
1302.6377443,113.819999694824
1302.6533693,122.199996948242
1302.6689943,127.769996643066
1302.6846193,129.910003662109
1302.7002443,128.75
1302.7158693,125.190002441406
1302.7314943,120.379997253418
1302.7471193,115.220001220703
1302.7627443,110.209999084473
1302.7783693,105.440002441406
1302.7939943,100.720001220703
1302.8096193,95.7699966430664
1302.8252443,90.5100021362305
1302.8408693,85.1399993896484
1302.8564943,80.0400009155273
1302.8721193,75.5400009155273
1302.8877443,71.5800018310547
1302.9033693,67.8499984741211
1302.9189943,64.0299987792969
1302.9346193,60.0
1302.9502443,55.8499984741211
1302.9658693,51.6300010681152
1302.9814943,47.310001373291
1302.9971193,42.810001373291
1303.0127443,38.2799987792969
1303.0283693,34.0200004577637
1303.0439943,30.2900009155273
1303.0596193,27.1599998474121
1303.0752443,24.5
1303.0908693,22.0499992370605
1303.1064943,19.4799995422363
1303.1221193,16.5799999237061
1303.1377443,13.3199996948242
1303.1533693,9.72000026702881
1303.1689943,5.73999977111816
1303.1846193,1.28999996185303
1303.2002443,-3.51999998092651
1303.2158693,-8.27000045776367
1303.2314943,-12.3000001907349
1303.2471193,-15.1099996566772
1303.2627443,-16.7199993133545
1303.2783693,-17.5499992370605
1303.2939943,-17.9200000762939
1303.3096193,-17.8799991607666
1303.3252443,-17.4300003051758
1303.3408693,-16.5699996948242
1303.3564943,-15.3199996948242
1303.3721193,-13.2399997711182
1303.3877443,-9.30000019073486
1303.4033693,-2.50999999046326
1303.4189943,7.26999998092651
1303.4346193,19.1700000762939
1303.4502443,31.8899993896484
1303.4658693,44.3400001525879
1303.4814943,55.7999992370605
1303.4971193,65.6100006103516
1303.5127443,72.870002746582
1303.5283693,76.9400024414063
1303.5439943,77.8199996948242
1303.5596193,76.2699966430664
1303.5752443,73.3099975585938
1303.5908693,69.8300018310547
1303.6064943,66.370002746582
1303.6221193,63.1399993896484
1303.6377443,60.1199989318848
1303.6533693,57.060001373291
1303.6689943,53.5900001525879
1303.6846193,49.4099998474121
1303.7002443,44.4900016784668
1303.7158693,39.0
1303.7314943,33.1599998474121
1303.7471193,27.1299991607666
1303.7627443,21.0900001525879
1303.7783693,15.3599996566772
1303.7939943,10.3800001144409
1303.8096193,6.38000011444092
1303.8252443,3.16000008583069
1303.8408693,0.209999993443489
1303.8564943,-2.79999995231628
1303.8721193,-6.03999996185303
1303.8877443,-9.65999984741211
1303.9033693,-13.8000001907349
1303.9189943,-18.4300003051758
1303.9346193,-23.1800003051758
1303.9502443,-27.4400005340576
1303.9658693,-30.7999992370605
1303.9814943,-33.4000015258789
1303.9971193,-35.6300010681152
1304.0127443,-37.6599998474121
1304.0283693,-39.2799987792969
1304.0439943,-40.2700004577637
1304.0596193,-40.560001373291
1304.0752443,-40.3300018310547
1304.0908693,-39.939998626709
1304.1064943,-39.7700004577637
1304.1221193,-40.060001373291
1304.1377443,-40.7799987792969
1304.1533693,-41.4700012207031
1304.1689943,-41.3499984741211
1304.1846193,-39.7200012207031
1304.2002443,-36.4000015258789
1304.2158693,-31.6100006103516
1304.2314943,-25.5499992370605
1304.2471193,-18.3099994659424
1304.2627443,-9.97999954223633
1304.2783693,-1.05999994277954
1304.2939943,7.44000005722046
1304.3096193,14.5200004577637
1304.3252443,19.6900005340576
1304.3408693,23.1599998474121
1304.3564943,25.5499992370605
1304.3721193,27.3500003814697
1304.3877443,28.6299991607666
1304.4033693,29.1200008392334
1304.4189943,28.6200008392334
1304.4346193,26.9699993133545
1304.4502443,23.9899997711182
1304.4658693,19.5499992370605
1304.4814943,13.8599996566772
1304.4971193,7.55999994277954
1304.5127443,1.41999995708466
1304.5283693,-4.09000015258789
1304.5439943,-9.09000015258789
1304.5596193,-13.8199996948242
1304.5752443,-18.1200008392334
1304.5908693,-21.5
1304.6064943,-23.6000003814697
1304.6221193,-24.4699993133545
1304.6377443,-24.5900001525879
1304.6533693,-24.6900005340576
1304.6689943,-25.6100006103516
1304.6846193,-27.9099998474121
1304.7002443,-31.6000003814697
1304.7158693,-36.4000015258789
1304.7314943,-42.0400009155273
1304.7471193,-48.3800010681152
1304.7627443,-55.1300010681152
1304.7783693,-61.5200004577637
1304.7939943,-66.3199996948242
1304.8096193,-68.6600036621094
1304.8252443,-68.6600036621094
1304.8408693,-67.1800003051758
1304.8564943,-65.0
1304.8721193,-62.4199981689453
1304.8877443,-59.439998626709
1304.9033693,-56.0499992370605
1304.9189943,-52.3800010681152
1304.9346193,-48.7000007629395
1304.9502443,-45.310001373291
1304.9658693,-42.4700012207031
1304.9814943,-40.1699981689453
1304.9971193,-38.1300010681152
1305.0127443,-35.8699989318848
1305.0283693,-32.9700012207031
1305.0439943,-29.2700004577637
1305.0596193,-24.7199993133545
1305.0752443,-19.0900001525879
1305.0908693,-11.9200000762939
1305.1064943,-2.77999997138977
1305.1221193,8.28999996185303
1305.1377443,20.5400009155273
1305.1533693,32.7200012207031
1305.1689943,43.8300018310547
1305.1846193,53.4300003051758
1305.2002443,61.5900001525879
1305.2158693,68.5100021362305
1305.2314943,74.1500015258789
1305.2471193,78.3300018310547
1305.2627443,81.0299987792969
1305.2783693,82.379997253418
1305.2939943,82.5400009155273
1305.3096193,81.6399993896484
1305.3252443,79.8899993896484
1305.3408693,77.5500030517578
1305.3564943,74.7600021362305
1305.3721193,71.5100021362305
1305.3877443,67.6500015258789
1305.4033693,63.2400016784668
1305.4189943,58.6500015258789
1305.4346193,54.3600006103516
1305.4502443,50.5
1305.4658693,46.8400001525879
1305.4814943,43.0999984741211
1305.4971193,39.2400016784668
1305.5127443,35.6300010681152
1305.5283693,32.4500007629395
1305.5439943,29.6399993896484
1305.5596193,26.9500007629395
1305.5752443,24.2800006866455
1305.5908693,21.8199996948242
1305.6064943,19.7800006866455
1305.6221193,18.2199993133545
1305.6377443,17.0300006866455
1305.6533693,15.9300003051758
1305.6689943,14.6099996566772
1305.6846193,12.8400001525879
1305.7002443,10.5799999237061
1305.7158693,7.88000011444092
1305.7314943,4.71000003814697
1305.7471193,1.02999997138977
1305.7627443,-3.02999997138977
1305.7783693,-7.05000019073486
1305.7939943,-10.3100004196167
1305.8096193,-12.3000001907349
1305.8252443,-13.1400003433228
1305.8408693,-13.3400001525879
1305.8564943,-13.3500003814697
1305.8721193,-13.25
1305.8877443,-12.9700002670288
1305.9033693,-12.4399995803833
1305.9189943,-11.5699996948242
1305.9346193,-9.97000026702881
1305.9502443,-6.73000001907349
1305.9658693,-1.0
1305.9814943,7.32999992370605
1305.9971193,17.5699996948242
1306.0127443,28.7800006866455
1306.0283693,40.1300010681152
1306.0439943,51.0400009155273
1306.0596193,60.8400001525879
1306.0752443,68.6600036621094
1306.0908693,73.8199996948242
1306.1064943,76.2799987792969
1306.1221193,76.5800018310547
1306.1377443,75.3899993896484
1306.1533693,73.2399978637695
1306.1689943,70.5100021362305
1306.1846193,67.4700012207031
1306.2002443,64.3199996948242
1306.2158693,61.0400009155273
1306.2314943,57.4300003051758
1306.2471193,53.2299995422363
1306.2627443,48.3899993896484
1306.2783693,43.0400009155273
1306.2939943,37.3600006103516
1306.3096193,31.5200004577637
1306.3252443,25.7099990844727
1306.3408693,20.1499996185303
1306.3564943,15.1599998474121
1306.3721193,10.9200000762939
1306.3877443,7.23999977111816
1306.4033693,3.76999998092651
1306.4189943,0.280000001192093
1306.4346193,-3.20000004768372
1306.4502443,-6.55000019073486
1306.4658693,-9.61999988555908
1306.4814943,-12.4200000762939
1306.4971193,-15.1400003433228
1306.5127443,-18.1800003051758
1306.5283693,-21.8099994659424
1306.5439943,-26.1200008392334
1306.5596193,-30.9599990844727
1306.5752443,-36.1199989318848
1306.5908693,-41.4500007629395
1306.6064943,-46.7599983215332
1306.6221193,-51.6300010681152
1306.6377443,-55.4700012207031
1306.6533693,-57.75
1306.6689943,-58.439998626709
1306.6846193,-57.9500007629395
1306.7002443,-56.7999992370605
1306.7158693,-55.3400001525879
1306.7314943,-53.7700004577637
1306.7471193,-52.189998626709
1306.7627443,-50.5299987792969
1306.7783693,-48.3800010681152
1306.7939943,-44.8899993896484
1306.8096193,-39.25
1306.8252443,-31.3799991607666
1306.8408693,-21.8999996185303
1306.8564943,-11.75
1306.8721193,-1.69000005722046
1306.8877443,7.71000003814697
1306.9033693,15.8999996185303
1306.9189943,22.0599994659424
1306.9346193,25.4899997711182
1306.9502443,26.0900001525879
1306.9658693,24.4200000762939
1306.9814943,21.3299999237061
1306.9971193,17.5900001525879
1307.0127443,13.7299995422363
1307.0283693,10.0500001907349
1307.0439943,6.57999992370605
1307.0596193,3.10999989509583
1307.0752443,-0.759999990463257
1307.0908693,-5.44000005722046
1307.1064943,-10.9700002670288
1307.1221193,-17.2099990844727
1307.1377443,-23.9599990844727
1307.1533693,-31.0799999237061
1307.1689943,-38.3600006103516
1307.1846193,-45.3300018310547
1307.2002443,-51.3400001525879
1307.2158693,-55.9700012207031
1307.2314943,-59.4500007629395
1307.2471193,-62.3400001525879
1307.2627443,-65.0199966430664
1307.2783693,-67.4800033569336
1307.2939943,-69.5299987792969
1307.3096193,-71.0199966430664
1307.3252443,-72.0100021362305
1307.3408693,-72.7099990844727
1307.3564943,-73.379997253418
1307.3721193,-74.2099990844727
1307.3877443,-75.2699966430664
1307.4033693,-76.5599975585938
1307.4189943,-78.120002746582
1307.4346193,-80.0199966430664
1307.4502443,-82.1600036621094
1307.4658693,-84.1500015258789
1307.4814943,-85.3499984741211
1307.4971193,-85.3399963378906
1307.5127443,-84.6600036621094
1307.5283693,-83.5500030517578
1307.5439943,-82.4599990844727
1307.5596193,-81.4700012207031
1307.5752443,-80.4100036621094
1307.5908693,-79.0800018310547
1307.6064943,-77.3099975585938
1307.6221193,-74.5100021362305
1307.6377443,-69.5699996948242
1307.6533693,-61.439998626709
1307.6689943,-49.9900016784668
1307.6846193,-36.060001373291
1307.7002443,-20.7600002288818
1307.7158693,-5.01999998092651
1307.7314943,10.3999996185303
1307.7471193,24.6700000762939
1307.7627443,36.6399993896484
1307.7783693,45.4700012207031
1307.7939943,51.2000007629395
1307.8096193,54.5499992370605
1307.8252443,56.2999992370605
1307.8408693,56.8400001525879
1307.8564943,56.3300018310547
1307.8721193,54.8600006103516
1307.8877443,52.6699981689453
1307.9033693,50.0099983215332
1307.9189943,47.0499992370605
1307.9346193,43.7900009155273
1307.9502443,40.189998626709
1307.9658693,36.3199996948242
1307.9814943,32.439998626709
1307.9971193,28.8999996185303
1308.0127443,25.8899993896484
1308.0283693,23.3999996185303
1308.0439943,21.25
1308.0596193,19.1200008392334
1308.0752443,16.6299991607666
1308.0908693,13.5299997329712
1308.1064943,9.77999973297119
1308.1221193,5.46000003814697
1308.1377443,0.569999992847443
1308.1533693,-4.94999980926514
1308.1689943,-10.9700002670288
1308.1846193,-17.0499992370605
1308.2002443,-22.5
1308.2158693,-26.8700008392334
1308.2314943,-30.2099990844727
1308.2471193,-32.9000015258789
1308.2627443,-35.1199989318848
1308.2783693,-36.7700004577637
1308.2939943,-37.7299995422363
1308.3096193,-38.0200004577637
1308.3252443,-37.8300018310547
1308.3408693,-37.4900016784668
1308.3564943,-37.2799987792969
1308.3721193,-37.4000015258789
1308.3877443,-37.7799987792969
1308.4033693,-38.0800018310547
1308.4189943,-37.6699981689453
1308.4346193,-36.0400009155273
1308.4502443,-33.0499992370605
1308.4658693,-28.8899993896484
1308.4814943,-23.6900005340576
1308.4971193,-17.1399993896484
1308.5127443,-8.61999988555908
1308.5283693,2.33999991416931
1308.5439943,15.0900001525879
1308.5596193,28.1299991607666
1308.5752443,40.060001373291
1308.5908693,50.1800003051758
1308.6064943,58.5299987792969
1308.6221193,65.5
1308.6377443,71.3399963378906
1308.6533693,76.120002746582
1308.6689943,79.8300018310547
1308.6846193,82.5599975585938
1308.7002443,84.3899993896484
1308.7158693,85.4000015258789
1308.7314943,85.6800003051758
1308.7471193,85.0999984741211
1308.7627443,83.1699981689453
1308.7783693,79.3499984741211
1308.7939943,73.4899978637695
1308.8096193,66.1100006103516
1308.8252443,58.2000007629395
1308.8408693,50.75
1308.8564943,44.3300018310547
1308.8721193,38.9700012207031
1308.8877443,34.3300018310547
1308.9033693,29.9200000762939
1308.9189943,25.3500003814697
1308.9346193,20.3999996185303
1308.9502443,15.0900001525879
1308.9658693,9.47000026702881
1308.9814943,3.45000004768372
1308.9971193,-3.11999988555908
1309.0127443,-10.1899995803833
1309.0283693,-17.3600006103516
1309.0439943,-23.9899997711182
1309.0596193,-29.7000007629395
1309.0752443,-34.6300010681152
1309.0908693,-39.2000007629395
1309.1064943,-43.5499992370605
1309.1221193,-47.4300003051758
1309.1377443,-50.5699996948242
1309.1533693,-52.8800010681152
1309.1689943,-54.5200004577637
1309.1846193,-55.810001373291
1309.2002443,-57.1199989318848
1309.2158693,-58.6500015258789
1309.2314943,-60.3600006103516
1309.2471193,-61.7400016784668
1309.2627443,-61.8899993896484
1309.2783693,-60.0
1309.2939943,-55.9000015258789
1309.3096193,-49.9599990844727
1309.3252443,-42.5800018310547
1309.3408693,-33.6800003051758
1309.3564943,-22.7800006866455
1309.3721193,-9.82999992370605
1309.3877443,4.1399998664856
1309.4033693,17.4099998474121
1309.4189943,28.6200008392334
1309.4346193,37.3800010681152
1309.4502443,44.1399993896484
1309.4658693,49.6100006103516
1309.4814943,54.1699981689453
1309.4971193,57.8499984741211
1309.5127443,60.5999984741211
1309.5283693,62.3199996948242
1309.5439943,62.9700012207031
1309.5596193,62.5299987792969
1309.5752443,61.1399993896484
1309.5908693,58.810001373291
1309.6064943,55.310001373291
1309.6221193,50.2799987792969
1309.6377443,43.5800018310547
1309.6533693,35.6800003051758
1309.6689943,27.4599990844727
1309.6846193,19.6900005340576
1309.7002443,12.5
1309.7158693,5.44000005722046
1309.7314943,-1.91999995708466
1309.7471193,-9.60000038146973
1309.7627443,-17.1900005340576
1309.7783693,-24.3899993896484
1309.7939943,-31.3500003814697
1309.8096193,-38.3800010681152
1309.8252443,-45.3800010681152
1309.8408693,-51.7799987792969
1309.8564943,-57.0699996948242
1309.8721193,-61.0999984741211
1309.8877443,-64.120002746582
1309.9033693,-66.6600036621094
1309.9189943,-69.2600021362305
1309.9346193,-72.2900009155273
1309.9502443,-75.8099975585938
1309.9658693,-79.7799987792969
1309.9814943,-84.3099975585938
1309.9971193,-89.5299987792969
1310.0127443,-95.2900009155273
1310.0283693,-100.870002746582
1310.0439943,-105.029998779297
1310.0596193,-106.589996337891
1310.0752443,-105.089996337891
1310.0908693,-100.790000915527
1310.1064943,-94.3399963378906
1310.1221193,-86.4400024414063
1310.1377443,-77.7799987792969
1310.1533693,-68.9899978637695
1310.1689943,-60.2999992370605
1310.1846193,-50.9799995422363
1310.2002443,-39.1699981689453
1310.2158693,-23.0799999237061
1310.2314943,-2.35999989509583
1310.2471193,21.8099994659424
1310.2627443,47.7700004577637
1310.2783693,74.0800018310547
1310.2939943,99.5299987792969
1310.3096193,122.459999084473
1310.3252443,140.449996948242
1310.3408693,151.429992675781
1310.3564943,155.009994506836
1310.3721193,152.550003051758
1310.3877443,146.080001831055
