Time(s),Value(%)
436.0126751,-9.1899995803833
436.0283001,-9.35999965667725
436.0439251,-10.0600004196167
436.0595501,-11.1099996566772
436.0751751,-11.9499998092651
436.0908001,-12.0699996948242
436.1064251,-11.4099998474121
436.1220501,-10.2399997711182
436.1376751,-8.63000011444092
436.1533001,-6.21999979019165
436.1689251,-2.58999991416931
436.1845501,2.1800000667572
436.2001751,7.48999977111816
436.2158001,12.3800001144409
436.2314251,16.0300006866455
436.2470501,18.1000003814697
436.2626751,18.8700008392334
436.2783001,18.8500003814697
436.2939251,18.3999996185303
436.3095501,17.5599994659424
436.3251751,16.2099990844727
436.3408001,14.4499998092651
436.3564251,12.6099996566772
436.3720501,10.8100004196167
436.3876751,8.73999977111816
436.4033001,5.86999988555908
436.4189251,2.07999992370605
436.4345501,-2.02999997138977
436.4501751,-5.46999979019165
436.4658001,-7.46999979019165
436.4814251,-8.14999961853027
436.4970501,-8.26000022888184
436.5126751,-8.43000030517578
436.5283001,-8.72000026702881
436.5439251,-8.81999969482422
436.5595501,-8.52999973297119
436.5751751,-7.98999977111816
436.5908001,-7.30000019073486
436.6064251,-6.36999988555908
436.6220501,-5.07999992370605
436.6376751,-3.53999996185303
436.6533001,-2.22000002861023
436.6689251,-1.94000005722046
436.6845501,-3.25999999046326
436.7001751,-5.84000015258789
436.7158001,-8.44999980926514
436.7314251,-9.67000007629395
436.7470501,-8.88000011444092
436.7626751,-6.32000017166138
436.7783001,-2.55999994277954
436.7939251,1.87999999523163
436.8095501,6.34999990463257
436.8251751,10.2299995422363
436.8408001,13.2299995422363
436.8564251,15.4399995803833
436.8720501,17.1499996185303
436.8876751,18.5300006866455
436.9033001,19.6800003051758
436.9189251,20.6900005340576
436.9345501,21.5799999237061
436.9501751,21.9500007629395
436.9658001,20.6800003051758
436.9814251,16.6000003814697
436.9970501,9.72000026702881
437.0126751,1.63999998569489
437.0283001,-5.23000001907349
437.0439251,-9.02000045776367
437.0595501,-9.48999977111816
437.0751751,-8.19999980926514
437.0908001,-7.32000017166138
437.1064251,-8.27999973297119
437.1220501,-11.039999961853
437.1376751,-14.4499998092651
437.1533001,-17.1399993896484
437.1689251,-18.2700004577637
437.1845501,-17.6700000762939
437.2001751,-15.7799997329712
437.2158001,-13.289999961853
437.2314251,-10.9899997711182
437.2470501,-9.61999988555908
437.2626751,-9.56999969482422
437.2783001,-10.6300001144409
437.2939251,-12.1899995803833
437.3095501,-13.6599998474121
437.3251751,-14.8000001907349
437.3408001,-15.6800003051758
437.3564251,-16.5699996948242
437.3720501,-17.5599994659424
437.3876751,-18.3099994659424
437.4033001,-18.2199993133545
437.4189251,-16.6399993896484
437.4345501,-13.1400003433228
437.4501751,-7.78000020980835
437.4658001,-1.4099999666214
437.4814251,4.53000020980835
437.4970501,8.92000007629395
437.5126751,11.6400003433228
437.5283001,13.2799997329712
437.5439251,14.3999996185303
437.5595501,14.9799995422363
437.5751751,14.6099996566772
437.5908001,13.0
437.6064251,10.3900003433228
437.6220501,7.26999998092651
437.6376751,4.09999990463257
437.6533001,1.14999997615814
437.6689251,-1.4099999666214
437.6845501,-3.49000000953674
437.7001751,-5.17999982833862
437.7158001,-6.59999990463257
437.7314251,-7.6399998664856
437.7470501,-8.02000045776367
437.7626751,-7.44000005722046
437.7783001,-5.94000005722046
437.7939251,-4.07999992370605
437.8095501,-2.95000004768372
437.8251751,-3.64000010490417
437.8408001,-6.53000020980835
437.8564251,-10.9700002670288
437.8720501,-15.4300003051758
437.8876751,-18.2299995422363
437.9033001,-18.5499992370605
437.9189251,-16.8600006103516
437.9345501,-14.3999996185303
437.9501751,-12.3800001144409
437.9658001,-11.4899997711182
437.9814251,-11.789999961853
437.9970501,-12.8900003433228
438.0126751,-13.9700002670288
438.0283001,-13.8000001907349
438.0439251,-11.0100002288818
438.0595501,-4.94999980926514
438.0751751,3.55999994277954
438.0908001,12.5600004196167
438.1064251,19.8799991607666
438.1220501,24.4099998474121
438.1376751,26.4699993133545
438.1533001,27.2199993133545
438.1689251,27.4599990844727
438.1845501,27.1499996185303
438.2001751,25.6800003051758
438.2158001,22.6100006103516
438.2314251,18.25
438.2470501,13.460000038147
438.2626751,8.89999961853027
438.2783001,4.65000009536743
438.2939251,0.550000011920929
438.3095501,-3.14000010490417
438.3251751,-6.05999994277954
438.3408001,-8.17000007629395
438.3564251,-9.61999988555908
438.3720501,-10.289999961853
438.3876751,-9.89999961853027
438.4033001,-8.56999969482422
438.4189251,-7.05000019073486
438.4345501,-6.44000005722046
438.4501751,-7.6399998664856
438.4658001,-10.6499996185303
438.4814251,-14.4799995422363
438.4970501,-17.8199996948242
438.5126751,-19.9200000762939
438.5283001,-20.7000007629395
438.5439251,-20.4599990844727
438.5595501,-19.6599998474121
438.5751751,-18.7900009155273
438.5908001,-18.0900001525879
438.6064251,-17.3099994659424
438.6220501,-15.7600002288818
438.6376751,-13.0699996948242
438.6533001,-9.51000022888184
438.6689251,-5.51000022888184
438.6845501,-1.35000002384186
438.7001751,2.72000002861023
438.7158001,6.53000020980835
438.7314251,10.2600002288818
438.7470501,14.460000038147
438.7626751,19.5
438.7783001,24.9300003051758
438.7939251,29.5499992370605
438.8095501,31.9300003051758
438.8251751,31.1700000762939
438.8408001,27.3700008392334
438.8564251,21.6100006103516
438.8720501,15.5500001907349
438.8876751,10.6800003051758
438.9033001,7.76999998092651
438.9189251,6.71999979019165
438.9345501,6.80000019073486
438.9501751,7.09000015258789
438.9658001,6.76999998092651
438.9814251,5.34999990463257
438.9970501,2.86999988555908
439.0126751,-0.109999999403954
439.0283001,-3.01999998092651
439.0439251,-5.51000022888184
439.0595501,-7.36999988555908
439.0751751,-8.39999961853027
439.0908001,-8.52000045776367
439.1064251,-7.80999994277954
439.1220501,-6.57000017166138
439.1376751,-5.59999990463257
439.1533001,-5.8899998664856
439.1689251,-7.94000005722046
439.1845501,-11.289999961853
439.2001751,-14.6899995803833
439.2158001,-16.7600002288818
439.2314251,-16.4400005340576
439.2470501,-13.1300001144409
439.2626751,-7.03000020980835
439.2783001,0.579999983310699
439.2939251,7.63000011444092
439.3095501,12.3900003433228
439.3251751,14.5500001907349
439.3408001,15.1599998474121
439.3564251,15.7600002288818
439.3720501,17.2900009155273
439.3876751,19.5900001525879
439.4033001,21.7800006866455
439.4189251,23.0400009155273
439.4345501,23.0
439.4501751,21.5699996948242
439.4658001,18.5300006866455
439.4814251,13.5699996948242
439.4970501,6.92000007629395
439.5126751,-0.270000010728836
439.5283001,-6.25
439.5439251,-9.51000022888184
439.5595501,-9.69999980926514
439.5751751,-7.82000017166138
439.5908001,-5.46000003814697
439.6064251,-3.92000007629395
439.6220501,-3.82999992370605
439.6376751,-5.07999992370605
439.6533001,-6.82999992370605
439.6689251,-8.22000026702881
439.6845501,-9.03999996185303
439.7001751,-9.77999973297119
439.7158001,-10.9099998474121
439.7314251,-12.3999996185303
439.7470501,-13.8500003814697
439.7626751,-14.7700004577637
439.7783001,-14.9700002670288
439.7939251,-14.8599996566772
439.8095501,-15.1400003433228
439.8251751,-15.8599996566772
439.8408001,-15.8999996185303
439.8564251,-13.6800003051758
439.8720501,-8.39000034332275
439.8876751,-0.579999983310699
439.9033001,8.22000026702881
439.9189251,16.4500007629395
439.9345501,23.1800003051758
439.9501751,28.0
439.9658001,30.7199993133545
439.9814251,31.3700008392334
439.9970501,30.1599998474121
440.0126751,27.4500007629395
440.0283001,23.6599998474121
440.0439251,19.0400009155273
440.0595501,13.5200004577637
440.0751751,6.98999977111816
440.0908001,-0.0299999993294477
440.1064251,-6.30999994277954
440.1220501,-10.5
440.1376751,-12.0100002288818
440.1533001,-11.3400001525879
440.1689251,-9.65999984741211
440.1845501,-8.02999973297119
440.2001751,-6.90000009536743
440.2158001,-6.07000017166138
440.2314251,-5.23000001907349
440.2470501,-4.63000011444092
440.2626751,-5.03000020980835
440.2783001,-7.05999994277954
440.2939251,-10.5100002288818
440.3095501,-14.3100004196167
440.3251751,-17.2700004577637
440.3408001,-18.9400005340576
440.3564251,-19.6700000762939
440.3720501,-19.9200000762939
440.3876751,-19.8400001525879
440.4033001,-19.2099990844727
440.4189251,-17.5400009155273
440.4345501,-14.2200002670288
440.4501751,-8.71000003814697
440.4658001,-1.1599999666214
440.4814251,7.17999982833862
440.4970501,14.4499998092651
440.5126751,19.2399997711182
440.5283001,21.2900009155273
440.5439251,21.3600006103516
440.5595501,20.7299995422363
440.5751751,20.5599994659424
440.5908001,21.4500007629395
440.6064251,23.25
440.6220501,24.9500007629395
440.6376751,25.0499992370605
440.6533001,22.4500007629395
440.6689251,17.1800003051758
440.6845501,10.4799995422363
440.7001751,4.09000015258789
440.7158001,-0.680000007152557
440.7314251,-3.64000010490417
440.7470501,-5.5
440.7626751,-7.19000005722046
440.7783001,-9.21000003814697
440.7939251,-11.4200000762939
440.8095501,-13.539999961853
440.8251751,-15.5
440.8408001,-17.4899997711182
440.8564251,-19.6200008392334
440.8720501,-21.7099990844727
440.8876751,-23.4599990844727
440.9033001,-24.5599994659424
440.9189251,-24.7299995422363
440.9345501,-23.7700004577637
440.9501751,-21.8400001525879
440.9658001,-19.5900001525879
440.9814251,-17.7399997711182
440.9970501,-16.5799999237061
441.0126751,-15.8400001525879
441.0283001,-14.8500003814697
441.0439251,-12.8299999237061
441.0595501,-9.13000011444092
441.0751751,-3.63000011444092
441.0908001,2.92000007629395
441.1064251,9.25
441.1220501,14.2399997711182
441.1376751,17.4099998474121
441.1533001,19.2000007629395
441.1689251,20.7900009155273
441.1845501,23.1399993896484
441.2001751,26.0200004577637
441.2158001,28.0300006866455
441.2314251,27.4300003051758
441.2470501,23.2199993133545
441.2626751,15.9200000762939
441.2783001,7.59999990463257
441.2939251,0.649999976158142
441.3095501,-3.61999988555908
441.3251751,-5.53999996185303
441.3408001,-6.25
441.3564251,-6.80999994277954
441.3720501,-7.57999992370605
441.3876751,-8.56999969482422
441.4033001,-9.64999961853027
441.4189251,-10.710000038147
441.4345501,-11.8100004196167
441.4501751,-12.9799995422363
441.4658001,-13.9399995803833
441.4814251,-14.0799999237061
441.4970501,-13.3500003814697
441.5126751,-12.7700004577637
441.5283001,-13.789999961853
441.5439251,-16.8299999237061
441.5595501,-20.7600002288818
441.5751751,-23.5900001525879
441.5908001,-23.7099990844727
441.6064251,-20.5200004577637
441.6220501,-14.3299999237061
441.6376751,-6.1100001335144
441.6533001,2.6800000667572
441.6689251,10.7700004577637
441.6845501,17.5599994659424
441.7001751,22.8899993896484
441.7158001,26.5100002288818
441.7314251,28.1599998474121
441.7470501,27.7800006866455
441.7626751,25.7299995422363
441.7783001,22.7199993133545
441.7939251,19.6800003051758
441.8095501,17.2999992370605
441.8251751,15.7299995422363
441.8408001,14.6599998474121
441.8564251,13.5500001907349
441.8720501,11.7600002288818
441.8876751,8.76000022888184
441.9033001,4.57999992370605
441.9189251,-0.0500000007450581
441.9345501,-4.21000003814697
441.9501751,-7.23000001907349
441.9658001,-8.96000003814697
441.9814251,-9.72999954223633
441.9970501,-10.0500001907349
442.0126751,-10.3699998855591
442.0283001,-10.9700002670288
442.0439251,-11.960000038147
442.0595501,-13.1599998474121
442.0751751,-14.0799999237061
442.0908001,-14.3199996948242
442.1064251,-14.1199998855591
442.1220501,-14.210000038147
442.1376751,-15.0299997329712
442.1533001,-16.0900001525879
442.1689251,-16.0100002288818
442.1845501,-13.3199996948242
442.2001751,-7.5
442.2158001,0.75
442.2314251,9.88000011444092
442.2470501,18.0499992370605
442.2626751,23.8400001525879
442.2783001,26.6499996185303
442.2939251,26.6700000762939
442.3095501,24.6200008392334
442.3251751,21.6700000762939
442.3408001,19.2099990844727
442.3564251,18.2299995422363
442.3720501,18.7399997711182
442.3876751,19.7299995422363
442.4033001,19.7399997711182
442.4189251,17.6399993896484
442.4345501,13.3500003814697
442.4501751,7.82000017166138
442.4658001,2.21000003814697
442.4814251,-2.9300000667572
442.4970501,-7.48000001907349
442.5126751,-11.1700000762939
442.5283001,-13.710000038147
442.5439251,-15.2700004577637
442.5595501,-16.2299995422363
442.5751751,-16.4799995422363
442.5908001,-15.4099998474121
442.6064251,-12.6199998855591
442.6220501,-8.68000030517578
442.6376751,-5.07000017166138
442.6533001,-3.45000004768372
442.6689251,-4.76999998092651
442.6845501,-8.73999977111816
442.7001751,-14.0500001907349
442.7158001,-19.2399997711182
442.7314251,-23.0100002288818
442.7470501,-24.3899993896484
442.7626751,-22.7999992370605
442.7783001,-18.2399997711182
442.7939251,-11.2600002288818
442.8095501,-2.99000000953674
442.8251751,5.07999992370605
442.8408001,11.6700000762939
442.8564251,16.2999992370605
442.8720501,19.4899997711182
442.8876751,22.2399997711182
442.9033001,25.2800006866455
442.9189251,28.5
442.9345501,31.1900005340576
442.9501751,32.6500015258789
442.9658001,32.5900001525879
442.9814251,31.0200004577637
442.9970501,27.9300003051758
443.0126751,23.1399993896484
443.0283001,16.4200000762939
443.0439251,8.02000045776367
443.0595501,-1.05999994277954
443.0751751,-9.48999977111816
443.0908001,-16.3099994659424
443.1064251,-21.25
443.1220501,-24.4599990844727
443.1376751,-25.9799995422363
443.1533001,-25.7199993133545
443.1689251,-23.8700008392334
443.1845501,-21.2399997711182
443.2001751,-18.8099994659424
443.2158001,-17.1900005340576
443.2314251,-16.4500007629395
443.2470501,-16.3500003814697
443.2626751,-16.3500003814697
443.2783001,-15.8500003814697
443.2939251,-14.4899997711182
443.3095501,-12.1599998474121
443.3251751,-9.13000011444092
443.3408001,-5.8899998664856
443.3564251,-2.79999995231628
443.3720501,0.219999998807907
443.3876751,3.69000005722046
443.4033001,8.09000015258789
443.4189251,13.4399995803833
443.4345501,19.2099990844727
443.4501751,24.75
443.4658001,29.5900001525879
443.4814251,33.4300003051758
443.4970501,36.1300010681152
443.5126751,37.5699996948242
443.5283001,37.6500015258789
443.5439251,36.3499984741211
443.5595501,33.5999984741211
443.5751751,29.2999992370605
443.5908001,23.5599994659424
443.6064251,16.9400005340576
443.6220501,10.3100004196167
443.6376751,4.53000020980835
443.6533001,0.379999995231628
443.6689251,-1.82000005245209
443.6845501,-2.74000000953674
443.7001751,-3.88000011444092
443.7158001,-6.80999994277954
443.7314251,-12.1199998855591
443.7470501,-19.0499992370605
443.7626751,-25.8299999237061
443.7783001,-30.7099990844727
443.7939251,-32.9099998474121
443.8095501,-32.7099990844727
443.8251751,-30.9799995422363
443.8408001,-28.6900005340576
443.8564251,-26.6299991607666
443.8720501,-24.9699993133545
443.8876751,-23.0799999237061
443.9033001,-20.1100006103516
443.9189251,-15.8900003433228
443.9345501,-11.1700000762939
443.9501751,-6.96999979019165
443.9658001,-3.5699999332428
443.9814251,-0.259999990463257
443.9970501,3.94000005722046
444.0126751,9.39999961853027
444.0283001,15.6499996185303
444.0439251,21.5499992370605
444.0595501,25.8600006103516
444.0751751,27.7000007629395
444.0908001,26.9899997711182
444.1064251,24.3400001525879
444.1220501,20.7800006866455
444.1376751,17.1599998474121
444.1533001,13.6700000762939
444.1689251,10.0299997329712
444.1845501,6.30000019073486
444.2001751,3.08999991416931
444.2158001,0.889999985694885
444.2314251,-0.419999986886978
444.2470501,-1.36000001430511
444.2626751,-2.59999990463257
444.2783001,-4.73999977111816
444.2939251,-8.05000019073486
444.3095501,-12.3400001525879
444.3251751,-17.0200004577637
444.3408001,-21.25
444.3564251,-24.1100006103516
444.3720501,-24.8899993896484
444.3876751,-23.4099998474121
444.4033001,-20.0699996948242
444.4189251,-15.75
444.4345501,-11.7299995422363
444.4501751,-9.22999954223633
444.4658001,-8.78999996185303
444.4814251,-9.93000030517578
444.4970501,-11.3800001144409
444.5126751,-11.7200002670288
444.5283001,-9.92000007629395
444.5439251,-5.6399998664856
444.5595501,0.800000011920929
444.5751751,8.5
444.5908001,16.1100006103516
444.6064251,22.2999992370605
444.6220501,25.9799995422363
444.6376751,26.4400005340576
444.6533001,23.75
444.6689251,19.0499992370605
444.6845501,14.2700004577637
444.7001751,11.0200004577637
444.7158001,9.75
444.7314251,9.64999961853027
444.7470501,9.5
444.7626751,8.51000022888184
444.7783001,6.59000015258789
444.7939251,4.1100001335144
444.8095501,1.41999995708466
444.8251751,-1.41999995708466
444.8408001,-4.48999977111816
444.8564251,-7.65999984741211
444.8720501,-10.5
444.8876751,-12.3400001525879
444.9033001,-12.5299997329712
444.9189251,-10.8400001525879
444.9345501,-7.69999980926514
444.9501751,-4.09000015258789
444.9658001,-1.1599999666214
444.9814251,0.0599999986588955
444.9970501,-0.920000016689301
445.0126751,-4.11999988555908
445.0283001,-8.85000038146973
445.0439251,-13.9099998474121
445.0595501,-17.9799995422363
445.0751751,-20.1200008392334
445.0908001,-19.7399997711182
445.1064251,-16.4200000762939
445.1220501,-10.1700000762939
445.1376751,-1.83000004291534
445.1533001,7.07999992370605
445.1689251,14.9899997711182
445.1845501,20.6700000762939
445.2001751,23.6100006103516
445.2158001,24.1800003051758
445.2314251,23.4699993133545
445.2470501,22.6700000762939
445.2626751,22.2399997711182
445.2783001,21.5
445.2939251,19.2900009155273
445.3095501,14.9300003051758
445.3251751,8.84000015258789
445.3408001,2.25999999046326
445.3564251,-3.39000010490417
445.3720501,-7.19999980926514
445.3876751,-8.86999988555908
445.4033001,-8.97999954223633
445.4189251,-8.69999980926514
445.4345501,-9.10000038146973
445.4501751,-10.5600004196167
445.4658001,-12.7200002670288
445.4814251,-14.960000038147
445.4970501,-16.75
445.5126751,-17.7900009155273
445.5283001,-17.9500007629395
445.5439251,-17.4500007629395
445.5595501,-16.7900009155273
445.5751751,-16.6100006103516
445.5908001,-17.4500007629395
445.6064251,-19.5900001525879
445.6220501,-22.7099990844727
445.6376751,-25.8500003814697
445.6533001,-27.4799995422363
445.6689251,-25.9599990844727
445.6845501,-20.3600006103516
445.7001751,-11.0699996948242
445.7158001,0.0900000035762787
445.7314251,10.8500003814697
445.7470501,19.5699996948242
445.7626751,25.6200008392334
445.7783001,29.0699996948242
445.7939251,30.1399993896484
445.8095501,29.25
445.8251751,27.25
445.8408001,25.2099990844727
445.8564251,23.6800003051758
445.8720501,22.1200008392334
445.8876751,19.3099994659424
445.9033001,14.5100002288818
445.9189251,8.35000038146973
445.9345501,2.53999996185303
445.9501751,-1.51999998092651
445.9658001,-3.83999991416931
445.9814251,-5.44999980926514
445.9970501,-7.1399998664856
446.0126751,-8.73999977111816
446.0283001,-9.61999988555908
446.0439251,-9.47999954223633
446.0595501,-8.51000022888184
446.0751751,-7.40999984741211
446.0908001,-7.07000017166138
446.1064251,-7.94000005722046
446.1220501,-9.67000007629395
446.1376751,-11.4899997711182
446.1533001,-12.75
446.1689251,-13.2299995422363
446.1845501,-13.0900001525879
446.2001751,-12.6999998092651
446.2158001,-12.210000038147
446.2314251,-11.4799995422363
446.2470501,-9.9399995803833
446.2626751,-6.88000011444092
446.2783001,-1.88999998569489
446.2939251,4.69999980926514
446.3095501,11.9899997711182
446.3251751,18.8500003814697
446.3408001,24.3199996948242
446.3564251,28.0100002288818
446.3720501,30.2999992370605
446.3876751,31.8500003814697
446.4033001,32.8199996948242
446.4189251,32.4199981689453
446.4345501,29.6000003814697
446.4501751,24.2900009155273
446.4658001,17.7099990844727
446.4814251,11.5
446.4970501,6.76000022888184
446.5126751,3.72000002861023
446.5283001,2.04999995231628
446.5439251,1.32000005245209
446.5595501,0.850000023841858
446.5751751,-0.28999999165535
446.5908001,-2.9300000667572
446.6064251,-7.30000019073486
446.6220501,-12.8299999237061
446.6376751,-18.2299995422363
446.6533001,-22.1800003051758
446.6689251,-24.0799999237061
446.6845501,-24.3299999237061
446.7001751,-23.6900005340576
446.7158001,-22.5799999237061
446.7314251,-21.1100006103516
