Time(s),Value(%)
1478.0039886,45.3300018310547
1478.0196136,42.3300018310547
1478.0352386,38.5099983215332
1478.0508636,34.1300010681152
1478.0664886,29.4500007629395
1478.0821136,24.7600002288818
1478.0977386,20.2999992370605
1478.1133636,16.0799999237061
1478.1289886,11.8100004196167
1478.1446136,7.19999980926514
1478.1602386,2.29999995231628
1478.1758636,-2.5
1478.1914886,-6.78999996185303
1478.2071136,-10.3800001144409
1478.2227386,-13.3699998855591
1478.2383636,-16.1200008392334
1478.2539886,-19.1299991607666
1478.2696136,-22.7600002288818
1478.2852386,-27.1200008392334
1478.3008636,-32.1699981689453
1478.3164886,-37.9700012207031
1478.3321136,-44.6300010681152
1478.3477386,-51.9500007629395
1478.3633636,-59.2400016784668
1478.3789886,-65.370002746582
1478.3946136,-69.5199966430664
1478.4102386,-71.6999969482422
1478.4258636,-72.5100021362305
1478.4414886,-72.4300003051758
1478.4571136,-71.5999984741211
1478.4727386,-69.9899978637695
1478.4883636,-67.6999969482422
1478.5039886,-64.9000015258789
1478.5196136,-61.3899993896484
1478.5352386,-56.4599990844727
1478.5508636,-49.3300018310547
1478.5664886,-39.8199996948242
1478.5821136,-28.2099990844727
1478.5977386,-14.789999961853
1478.6133636,0.219999998807907
1478.6289886,16.3500003814697
1478.6446136,32.4900016784668
1478.6602386,47.189998626709
1478.6758636,59.3899993896484
1478.6914886,68.9599990844727
1478.7071136,76.3399963378906
1478.7227386,81.6900024414063
1478.7383636,84.879997253418
1478.7539886,85.9300003051758
1478.7696136,85.3099975585938
1478.7852386,83.7300033569336
1478.8008636,81.8099975585938
1478.8164886,79.7600021362305
1478.8321136,77.4899978637695
1478.8477386,74.8300018310547
1478.8633636,71.620002746582
1478.8789886,67.7099990844727
1478.8946136,63.0
1478.9102386,57.6100006103516
1478.9258636,51.8199996948242
1478.9414886,45.7999992370605
1478.9571136,39.4300003051758
1478.9727386,32.1699981689453
1478.9883636,23.6599998474121
1479.0039886,14.1300001144409
1479.0196136,4.44999980926514
1479.0352386,-4.51000022888184
1479.0508636,-12.3100004196167
1479.0664886,-18.9599990844727
1479.0821136,-24.8099994659424
1479.0977386,-30.2999992370605
1479.1133636,-35.7299995422363
1479.1289886,-41.1599998474121
1479.1446136,-46.5699996948242
1479.1602386,-51.9099998474121
1479.1758636,-57.2000007629395
1479.1914886,-62.3199996948242
1479.2071136,-66.8099975585938
1479.2227386,-69.7799987792969
1479.2383636,-70.1699981689453
1479.2539886,-67.2200012207031
1479.2696136,-60.9000015258789
1479.2852386,-51.9900016784668
1479.3008636,-41.7099990844727
1479.3164886,-31.2999992370605
1479.3321136,-21.5900001525879
1479.3477386,-12.8699998855591
1479.3633636,-4.88000011444092
1479.3789886,3.0
1479.3946136,11.3400001525879
1479.4102386,20.3299999237061
1479.4258636,29.7999992370605
1479.4414886,39.4599990844727
1479.4571136,49.0999984741211
1479.4727386,58.4000015258789
1479.4883636,66.6800003051758
1479.5039886,72.7699966430664
1479.5196136,75.6100006103516
1479.5352386,74.9100036621094
1479.5508636,71.3000030517578
1479.5664886,65.8399963378906
1479.5821136,59.4599990844727
1479.5977386,52.6800003051758
1479.6133636,45.7200012207031
1479.6289886,38.6699981689453
1479.6446136,31.7000007629395
1479.6602386,25.0799999237061
1479.6758636,18.9200000762939
1479.6914886,13.0600004196167
1479.7071136,7.21999979019165
1479.7227386,1.35000002384186
1479.7383636,-4.28999996185303
1479.7539886,-9.42000007629395
1479.7696136,-13.8999996185303
1479.7852386,-17.8299999237061
1479.8008636,-21.5699996948242
1479.8164886,-25.6700000762939
1479.8321136,-30.5699996948242
1479.8477386,-36.2900009155273
1479.8633636,-42.5099983215332
1479.8789886,-48.7000007629395
1479.8946136,-54.4300003051758
1479.9102386,-59.4700012207031
1479.9258636,-63.7799987792969
1479.9414886,-67.4000015258789
1479.9571136,-70.370002746582
1479.9727386,-72.7300033569336
1479.9883636,-74.4000015258789
1480.0039886,-75.129997253418
1480.0196136,-74.6600036621094
1480.0352386,-72.9300003051758
1480.0508636,-70.0100021362305
1480.0664886,-65.7300033569336
1480.0821136,-59.6399993896484
1480.0977386,-51.189998626709
1480.1133636,-40.3899993896484
1480.1289886,-28.1200008392334
1480.1446136,-15.5600004196167
1480.1602386,-3.30999994277954
1480.1758636,8.6899995803833
1480.1914886,20.6800003051758
1480.2071136,32.3199996948242
1480.2227386,42.6500015258789
1480.2383636,50.6699981689453
1480.2539886,56.1100006103516
1480.2696136,59.2900009155273
1480.2852386,60.6300010681152
1480.3008636,60.3600006103516
1480.3164886,58.7599983215332
1480.3321136,56.2799987792969
1480.3477386,53.3800010681152
1480.3633636,50.3499984741211
1480.3789886,47.1199989318848
1480.3946136,43.4700012207031
1480.4102386,39.2599983215332
1480.4258636,34.4900016784668
1480.4414886,29.1900005340576
1480.4571136,23.4400005340576
1480.4727386,17.3899993896484
1480.4883636,11.3400001525879
1480.5039886,5.61999988555908
1480.5196136,0.319999992847443
1480.5352386,-4.75
1480.5508636,-9.92000007629395
1480.5664886,-15.1800003051758
1480.5821136,-20.2000007629395
1480.5977386,-24.6299991607666
1480.6133636,-28.3400001525879
1480.6289886,-31.4200000762939
1480.6446136,-34.189998626709
1480.6602386,-37.060001373291
1480.6758636,-40.310001373291
1480.6914886,-43.9799995422363
1480.7071136,-47.8899993896484
1480.7227386,-51.75
1480.7383636,-55.3499984741211
1480.7539886,-58.5400009155273
1480.7696136,-61.0200004577637
1480.7852386,-62.2799987792969
1480.8008636,-61.5999984741211
1480.8164886,-58.4199981689453
1480.8321136,-52.6699981689453
1480.8477386,-44.9000015258789
1480.8633636,-36.2000007629395
1480.8789886,-27.5499992370605
1480.8946136,-19.6200008392334
1480.9102386,-12.5600004196167
1480.9258636,-6.1100001335144
1480.9414886,0.28999999165535
1480.9571136,7.13000011444092
1480.9727386,14.539999961853
1480.9883636,22.2700004577637
1481.0039886,29.9500007629395
1481.0196136,37.25
1481.0352386,43.9199981689453
1481.0508636,49.4799995422363
1481.0664886,53.1599998474121
1481.0821136,54.2799987792969
1481.0977386,52.8899993896484
1481.1133636,49.7900009155273
1481.1289886,46.0
1481.1446136,42.3499984741211
1481.1602386,39.189998626709
1481.1758636,36.5200004577637
1481.1914886,34.0699996948242
1481.2071136,31.4200000762939
1481.2227386,27.9899997711182
1481.2383636,23.3799991607666
1481.2539886,17.5599994659424
1481.2696136,10.8000001907349
1481.2852386,3.38000011444092
1481.3008636,-4.51000022888184
1481.3164886,-12.6700000762939
1481.3321136,-20.6100006103516
1481.3477386,-27.6700000762939
1481.3633636,-33.5
1481.3789886,-38.3600006103516
1481.3946136,-42.8300018310547
1481.4102386,-47.1500015258789
1481.4258636,-51.1199989318848
1481.4414886,-54.4099998474121
1481.4571136,-56.8600006103516
1481.4727386,-58.5499992370605
1481.4883636,-59.5200004577637
1481.5039886,-59.5999984741211
1481.5196136,-58.5800018310547
1481.5352386,-56.3800010681152
1481.5508636,-53.0400009155273
1481.5664886,-48.5099983215332
1481.5821136,-42.689998626709
1481.5977386,-35.7700004577637
1481.6133636,-28.2099990844727
1481.6289886,-20.4899997711182
1481.6446136,-12.710000038147
1481.6602386,-4.44999980926514
1481.6758636,4.6399998664856
1481.6914886,14.1999998092651
1481.7071136,23.2900009155273
1481.7227386,31.0200004577637
1481.7383636,37.1199989318848
1481.7539886,41.8400001525879
1481.7696136,45.5099983215332
1481.7852386,48.1800003051758
1481.8008636,49.7200012207031
1481.8164886,50.0699996948242
1481.8321136,49.3899993896484
1481.8477386,47.9300003051758
1481.8633636,45.9199981689453
1481.8789886,43.5800018310547
1481.8946136,40.9599990844727
1481.9102386,37.939998626709
1481.9258636,34.25
1481.9414886,29.6599998474121
1481.9571136,24.2399997711182
1481.9727386,18.4400005340576
1481.9883636,12.8699998855591
1482.0039886,7.98000001907349
1482.0196136,3.90000009536743
1482.0352386,0.419999986886978
1482.0508636,-3.00999999046326
1482.0664886,-7.11999988555908
1482.0821136,-12.5
1482.0977386,-19.2099990844727
1482.1133636,-26.9400005340576
1482.1289886,-35.3499984741211
1482.1446136,-44.1699981689453
1482.1602386,-53.0999984741211
1482.1758636,-61.4300003051758
1482.1914886,-68.1399993896484
1482.2071136,-72.5199966430664
1482.2227386,-74.7799987792969
1482.2383636,-75.7900009155273
1482.2539886,-76.2300033569336
1482.2696136,-76.1399993896484
1482.2852386,-75.120002746582
1482.3008636,-72.7699966430664
1482.3164886,-69.0699996948242
1482.3321136,-64.25
1482.3477386,-58.3899993896484
1482.3633636,-51.2599983215332
1482.3789886,-42.3499984741211
1482.3946136,-31.5200004577637
1482.4102386,-19.4200000762939
1482.4258636,-7.26999998092651
1482.4414886,3.90000009536743
1482.4571136,13.8599996566772
1482.4727386,23.1599998474121
1482.4883636,32.3400001525879
1482.5039886,41.2099990844727
1482.5196136,48.9000015258789
1482.5352386,54.6500015258789
1482.5508636,58.2200012207031
1482.5664886,59.8400001525879
1482.5821136,59.8199996948242
1482.5977386,58.2999992370605
1482.6133636,55.2900009155273
1482.6289886,51.0099983215332
1482.6446136,45.8699989318848
1482.6602386,40.2599983215332
1482.6758636,34.5800018310547
1482.6914886,29.2199993133545
1482.7071136,24.5300006866455
1482.7227386,20.6599998474121
1482.7383636,17.4899997711182
1482.7539886,14.7399997711182
1482.7696136,11.9499998092651
1482.7852386,8.5600004196167
1482.8008636,4.15999984741211
1482.8164886,-1.29999995231628
1482.8321136,-7.76000022888184
1482.8477386,-15.3100004196167
1482.8633636,-24.1200008392334
1482.8789886,-33.9500007629395
1482.8946136,-43.9099998474121
1482.9102386,-52.6399993896484
1482.9258636,-59.1399993896484
1482.9414886,-63.4599990844727
1482.9571136,-66.2900009155273
1482.9727386,-68.0699996948242
1482.9883636,-68.75
1483.0039886,-68.1999969482422
1483.0196136,-66.5299987792969
1483.0352386,-64.120002746582
1483.0508636,-61.4300003051758
1483.0664886,-58.7599983215332
1483.0821136,-56.2200012207031
1483.0977386,-53.7200012207031
1483.1133636,-50.7700004577637
1483.1289886,-46.5900001525879
1483.1446136,-40.4799995422363
1483.1602386,-32.3600006103516
1483.1758636,-22.6599998474121
1483.1914886,-11.9200000762939
1483.2071136,-0.389999985694885
1483.2227386,11.8100004196167
1483.2383636,24.2800006866455
1483.2539886,35.9900016784668
1483.2696136,45.7400016784668
1483.2852386,52.9500007629395
1483.3008636,57.9099998474121
1483.3164886,61.4599990844727
1483.3321136,64.3899993896484
1483.3477386,67.0999984741211
1483.3633636,69.5699996948242
1483.3789886,71.620002746582
1483.3946136,73.1699981689453
1483.4102386,74.2699966430664
1483.4258636,75.0599975585938
1483.4414886,75.6399993896484
1483.4571136,75.9000015258789
1483.4727386,75.4800033569336
1483.4883636,73.9899978637695
1483.5039886,71.3600006103516
1483.5196136,67.8300018310547
1483.5352386,63.7999992370605
1483.5508636,59.5900001525879
1483.5664886,55.4599990844727
1483.5821136,51.6199989318848
1483.5977386,48.2999992370605
1483.6133636,45.4900016784668
1483.6289886,42.8199996948242
1483.6446136,39.7799987792969
1483.6602386,36.1100006103516
1483.6758636,31.8199996948242
1483.6914886,26.9500007629395
1483.7071136,21.5
1483.7227386,15.6199998855591
1483.7383636,9.76000022888184
1483.7539886,4.61999988555908
1483.7696136,0.819999992847443
1483.7852386,-1.44000005722046
1483.8008636,-2.35999989509583
1483.8164886,-2.14000010490417
1483.8321136,-0.959999978542328
1483.8477386,0.930000007152557
1483.8633636,3.24000000953674
1483.8789886,5.73999977111816
1483.8946136,8.64000034332275
1483.9102386,12.8100004196167
1483.9258636,19.1100006103516
1483.9414886,27.7299995422363
1483.9571136,37.9599990844727
1483.9727386,48.7200012207031
1483.9883636,59.060001373291
1484.0039886,68.3300018310547
1484.0196136,75.9599990844727
1484.0352386,81.129997253418
1484.0508636,83.0400009155273
1484.0664886,81.4700012207031
1484.0821136,76.9700012207031
1484.0977386,70.6100006103516
1484.1133636,63.5699996948242
1484.1289886,56.7099990844727
1484.1446136,50.4500007629395
1484.1602386,44.7599983215332
1484.1758636,39.2200012207031
1484.1914886,33.1199989318848
1484.2071136,25.8600006103516
1484.2227386,17.3299999237061
1484.2383636,7.71000003814697
1484.2539886,-2.83999991416931
1484.2696136,-14.2399997711182
1484.2852386,-26.1700000762939
1484.3008636,-37.7799987792969
1484.3164886,-47.7900009155273
1484.3321136,-55.3899993896484
1484.3477386,-60.9300003051758
1484.3633636,-65.4599990844727
1484.3789886,-69.6399993896484
1484.3946136,-73.4400024414063
1484.4102386,-76.4800033569336
1484.4258636,-78.5199966430664
1484.4414886,-79.6699981689453
1484.4571136,-80.1999969482422
1484.4727386,-80.379997253418
1484.4883636,-80.3600006103516
1484.5039886,-80.1600036621094
1484.5196136,-79.6699981689453
1484.5352386,-78.6399993896484
1484.5508636,-76.8600006103516
1484.5664886,-74.2600021362305
1484.5821136,-70.7699966430664
1484.5977386,-66.0299987792969
1484.6133636,-59.5400009155273
1484.6289886,-50.9099998474121
1484.6446136,-40.3400001525879
1484.6602386,-28.75
1484.6758636,-17.3500003814697
1484.6914886,-7.07999992370605
1484.7071136,1.74000000953674
1484.7227386,9.32999992370605
1484.7383636,16.1700000762939
1484.7539886,22.7399997711182
1484.7696136,29.2900009155273
1484.7852386,35.8199996948242
1484.8008636,42.0200004577637
1484.8164886,47.4300003051758
1484.8321136,51.689998626709
1484.8477386,54.5999984741211
1484.8633636,56.2299995422363
1484.8789886,56.4199981689453
1484.8946136,55.0200004577637
1484.9102386,52.2099990844727
1484.9258636,48.5999984741211
1484.9414886,45.0900001525879
1484.9571136,42.5400009155273
1484.9727386,41.439998626709
1484.9883636,41.7799987792969
1485.0039886,43.1100006103516
1485.0196136,44.7999992370605
1485.0352386,46.2400016784668
1485.0508636,46.8899993896484
1485.0664886,46.1300010681152
1485.0821136,43.4700012207031
1485.0977386,38.8199996948242
1485.1133636,32.5400009155273
1485.1289886,25.3700008392334
1485.1446136,18.1299991607666
1485.1602386,11.4200000762939
1485.1758636,5.78000020980835
1485.1914886,1.75
1485.2071136,-0.28999999165535
1485.2227386,-0.519999980926514
1485.2383636,0.230000004172325
1485.2539886,0.800000011920929
1485.2696136,0.200000002980232
1485.2852386,-1.89999997615814
1485.3008636,-5.15000009536743
1485.3164886,-8.96000003814697
1485.3321136,-12.9899997711182
1485.3477386,-17.3999996185303
1485.3633636,-22.4300003051758
1485.3789886,-27.8600006103516
1485.3946136,-33.0099983215332
1485.4102386,-37.2700004577637
1485.4258636,-40.4300003051758
1485.4414886,-42.7700004577637
1485.4571136,-45.1599998474121
1485.4727386,-48.8800010681152
1485.4883636,-54.9799995422363
1485.5039886,-63.689998626709
1485.5196136,-74.8899993896484
1485.5352386,-88.7699966430664
1485.5508636,-105.629997253418
1485.5664886,-124.930000305176
1485.5821136,-144.660003662109
1485.5977386,-161.869995117188
1485.6133636,-174.580001831055
1485.6289886,-183.199996948242
1485.6446136,-189.479995727539
1485.6602386,-194.309997558594
1485.6758636,-197.259994506836
1485.6914886,-197.570007324219
1485.7071136,-195.190002441406
1485.7227386,-190.860000610352
1485.7383636,-185.770004272461
1485.7539886,-181.029998779297
1485.7696136,-177.270004272461
1485.7852386,-174.580001831055
1485.8008636,-173.009994506836
1485.8164886,-172.960006713867
1485.8321136,-174.910003662109
1485.8477386,-177.660003662109
1485.8633636,-180.690002441406
1485.8789886,-181.449996948242
1485.8946136,-177.850006103516
1485.9102386,-169.619995117188
1485.9258636,-157.960006713867
1485.9414886,-144.199996948242
1485.9571136,-129.139999389648
1485.9727386,-113.269996643066
1485.9883636,-97.0800018310547
1486.0039886,-80.9700012207031
1486.0196136,-64.9100036621094
1486.0352386,-48.2599983215332
1486.0508636,-30.2299995422363
1486.0664886,-10.6000003814697
1486.0821136,10.3000001907349
1486.0977386,32.0900001525879
1486.1133636,54.4099998474121
1486.1289886,76.7600021362305
1486.1446136,98.2900009155273
1486.1602386,117.959999084473
1486.1758636,135.300003051758
1486.1914886,150.860000610352
1486.2071136,165.619995117188
1486.2227386,179.880004882813
1486.2383636,193.130004882813
1486.2539886,204.669998168945
1486.2696136,214.210006713867
1486.2852386,221.929992675781
1486.3008636,228.169998168945
1486.3164886,233.080001831055
1486.3321136,236.619995117188
1486.3477386,238.800003051758
1486.3633636,239.809997558594
1486.3789886,239.860000610352
1486.3946136,239.190002441406
1486.4102386,237.940002441406
1486.4258636,236.020004272461
1486.4414886,233.070007324219
1486.4571136,228.690002441406
1486.4727386,222.830001831055
1486.4883636,215.880004882813
1486.5039886,208.509994506836
1486.5196136,201.360000610352
1486.5352386,194.779998779297
1486.5508636,188.740005493164
1486.5664886,183.029998779297
1486.5821136,177.419998168945
1486.5977386,171.800003051758
1486.6133636,166.220001220703
1486.6289886,160.720001220703
1486.6446136,155.339996337891
1486.6602386,150.080001831055
1486.6758636,144.910003662109
1486.6914886,139.770004272461
1486.7071136,134.619995117188
1486.7227386,129.419998168945
1486.7383636,124.069999694824
1486.7539886,118.389999389648
1486.7696136,112.269996643066
1486.7852386,105.690002441406
1486.8008636,98.8099975585938
1486.8164886,91.8499984741211
1486.8321136,85.0199966430664
1486.8477386,77.5299987792969
1486.8633636,70.8399963378906
1486.8789886,65.4300003051758
1486.8946136,61.7000007629395
1486.9102386,59.6699981689453
1486.9258636,59.1199989318848
1486.9414886,59.9099998474121
1486.9571136,61.9900016784668
1486.9727386,65.0400009155273
1486.9883636,68.379997253418
1487.0039886,71.0500030517578
1487.0196136,72.379997253418
1487.0352386,72.2799987792969
1487.0508636,70.9800033569336
1487.0664886,68.5699996948242
1487.0821136,64.9300003051758
1487.0977386,60.0999984741211
1487.1133636,54.3899993896484
1487.1289886,48.3600006103516
1487.1446136,42.7299995422363
1487.1602386,38.2900009155273
1487.1758636,35.5299987792969
1487.1914886,34.4799995422363
1487.2071136,34.9199981689453
1487.2227386,36.7700004577637
1487.2383636,40.1100006103516
1487.2539886,44.6300010681152
1487.2696136,49.4300003051758
1487.2852386,53.1399993896484
1487.3008636,54.8300018310547
1487.3164886,54.5999984741211
1487.3321136,53.1500015258789
1487.3477386,50.8899993896484
1487.3633636,47.689998626709
1487.3789886,43.3600006103516
1487.3946136,37.9900016784668
1487.4102386,32.0099983215332
1487.4258636,26.1000003814697
1487.4414886,20.9500007629395
1487.4571136,17.0300006866455
1487.4727386,14.4200000762939
1487.4883636,13.1199998855591
1487.5039886,13.4399995803833
1487.5196136,15.7200002670288
1487.5352386,19.7700004577637
1487.5508636,24.4500007629395
1487.5664886,28.0699996948242
1487.5821136,29.4500007629395
1487.5977386,28.7900009155273
1487.6133636,27.0599994659424
1487.6289886,24.7900009155273
1487.6446136,21.7299995422363
1487.6602386,17.4599990844727
1487.6758636,11.9399995803833
1487.6914886,5.51999998092651
1487.7071136,-1.44000005722046
1487.7227386,-8.94999980926514
1487.7383636,-17.2000007629395
1487.7539886,-26.2299995422363
1487.7696136,-35.8199996948242
1487.7852386,-45.5099983215332
1487.8008636,-54.9099998474121
1487.8164886,-63.7799987792969
1487.8321136,-72.2200012207031
1487.8477386,-79.4400024414063
1487.8633636,-86.6900024414063
1487.8789886,-93.9599990844727
1487.8946136,-100.940002441406
1487.9102386,-107.300003051758
1487.9258636,-112.940002441406
1487.9414886,-118.069999694824
1487.9571136,-123.019996643066
1487.9727386,-128.020004272461
1487.9883636,-133.089996337891
1488.0039886,-138.190002441406
1488.0196136,-143.380004882813
1488.0352386,-148.860000610352
1488.0508636,-154.690002441406
1488.0664886,-160.649993896484
1488.0821136,-166.229995727539
1488.0977386,-171.020004272461
1488.1133636,-174.850006103516
1488.1289886,-177.809997558594
1488.1446136,-180.020004272461
1488.1602386,-181.529998779297
1488.1758636,-182.289993286133
1488.1914886,-182.309997558594
1488.2071136,-181.75
1488.2227386,-180.820007324219
1488.2383636,-179.740005493164
1488.2539886,-178.600006103516
1488.2696136,-177.339996337891
1488.2852386,-175.75
1488.3008636,-173.5
1488.3164886,-170.289993286133
1488.3321136,-165.970001220703
1488.3477386,-160.679992675781
