Time(s),Value(%)
600.0116171,-36.0800018310547
600.0272421,-43.8300018310547
600.0428671,-50.6699981689453
600.0584921,-56.1199989318848
600.0741171,-59.6399993896484
600.0897421,-60.9000015258789
600.1053671,-60.0499992370605
600.1209921,-57.5800018310547
600.1366171,-54.060001373291
600.1522421,-50.0499992370605
600.1678671,-45.8199996948242
600.1834921,-41.1699981689453
600.1991171,-35.560001373291
600.2147421,-28.6800003051758
600.2303671,-20.7700004577637
600.2459921,-12.5200004577637
600.2616171,-4.75
600.2772421,2.0699999332428
600.2928671,8.02999973297119
600.3084921,13.4899997711182
600.3241171,18.7600002288818
600.3397421,23.9799995422363
600.3553671,29.2099990844727
600.3709921,34.560001373291
600.3866171,40.3800010681152
600.4022421,46.8899993896484
600.4178671,53.5099983215332
600.4334921,59.189998626709
600.4491171,63.2700004577637
600.4647421,65.879997253418
600.4803671,67.4700012207031
600.4959921,68.3899993896484
600.5116171,68.9199981689453
600.5272421,69.2399978637695
600.5428671,69.5199966430664
600.5584921,69.9800033569336
600.5741171,70.7799987792969
600.5897421,71.9700012207031
600.6053671,73.4899978637695
600.6209921,75.2900009155273
600.6366171,77.5800018310547
600.6522421,80.8300018310547
600.6678671,85.5199966430664
600.6834921,91.8600006103516
600.6991171,99.7399978637695
600.7147421,108.73999786377
600.7303671,118.059997558594
600.7459921,126.839996337891
600.7616171,134.589996337891
600.7772421,141.360000610352
600.7928671,147.309997558594
600.8084921,152.199996948242
600.8241171,155.479995727539
600.8397421,156.509994506836
600.8553671,154.770004272461
600.8709921,149.970001220703
600.8866171,142.169998168945
600.9022421,131.789993286133
600.9178671,119.529998779297
600.9334921,106.129997253418
600.9491171,92.1100006103516
600.9647421,77.75
600.9803671,63.1100006103516
600.9959921,48.2200012207031
601.0116171,33.0999984741211
601.0272421,17.8099994659424
601.0428671,2.51999998092651
601.0584921,-12.4099998474121
601.0741171,-26.6399993896484
601.0897421,-39.9900016784668
601.1053671,-52.4099998474121
601.1209921,-63.8499984741211
601.1366171,-74.2900009155273
601.1522421,-83.8000030517578
601.1678671,-92.6399993896484
601.1834921,-101.019996643066
601.1991171,-108.900001525879
601.2147421,-115.910003662109
601.2303671,-121.73999786377
601.2459921,-126.410003662109
601.2616171,-130.240005493164
601.2772421,-133.619995117188
601.2928671,-136.699996948242
601.3084921,-139.300003051758
601.3241171,-141.110000610352
601.3397421,-141.970001220703
601.3553671,-141.940002441406
601.3709921,-141.139999389648
601.3866171,-139.660003662109
601.4022421,-137.520004272461
601.4178671,-134.559997558594
601.4334921,-130.380004882813
601.4491171,-124.269996643066
601.4647421,-115.580001831055
601.4803671,-104.089996337891
601.4959921,-90.1600036621094
601.5116171,-74.5
601.5272421,-57.810001373291
601.5428671,-40.7700004577637
601.5584921,-24.2399997711182
601.5741171,-9.15999984741211
601.5897421,3.8199999332428
601.6053671,14.4700002670288
601.6209921,22.9699993133545
601.6366171,29.6100006103516
601.6522421,34.3899993896484
601.6678671,37.0900001525879
601.6834921,37.5200004577637
601.6991171,35.6500015258789
601.7147421,31.7399997711182
601.7303671,26.25
601.7459921,19.7800006866455
601.7616171,12.9499998092651
601.7772421,6.23000001907349
601.7928671,-0.119999997317791
601.8084921,-5.96000003814697
601.8241171,-11.2700004577637
601.8397421,-16.1299991607666
601.8553671,-20.75
601.8709921,-25.3099994659424
601.8866171,-29.8799991607666
601.9022421,-34.2999992370605
601.9178671,-38.4099998474121
601.9334921,-42.1199989318848
601.9491171,-45.3400001525879
601.9647421,-47.9700012207031
601.9803671,-49.8699989318848
601.9959921,-50.9599990844727
602.0116171,-51.3300018310547
602.0272421,-51.3499984741211
602.0428671,-51.3199996948242
602.0584921,-51.2099990844727
602.0741171,-50.8400001525879
602.0897421,-50.0099983215332
602.1053671,-48.5800018310547
602.1209921,-46.5299987792969
602.1366171,-44.0
602.1522421,-41.1199989318848
602.1678671,-37.9900016784668
602.1834921,-34.5099983215332
602.1991171,-30.2399997711182
602.2147421,-24.4799995422363
602.2303671,-16.5499992370605
602.2459921,-6.05000019073486
602.2616171,7.05000019073486
602.2772421,22.5200004577637
602.2928671,39.6599998474121
602.3084921,57.2299995422363
602.3241171,73.8199996948242
602.3397421,88.4700012207031
602.3553671,100.839996337891
602.3709921,111.139999389648
602.3866171,119.650001525879
602.4022421,126.559997558594
602.4178671,131.949996948242
602.4334921,135.610000610352
602.4491171,136.839996337891
602.4647421,134.869995117188
602.4803671,129.419998168945
602.4959921,121.01000213623
602.5116171,110.769996643066
602.5272421,99.8499984741211
602.5428671,89.0
602.5584921,78.4100036621094
602.5741171,67.9499969482422
602.5897421,57.3800010681152
602.6053671,46.6300010681152
602.6209921,35.7700004577637
602.6366171,25.0499992370605
602.6522421,14.6800003051758
602.6678671,4.71000003814697
602.6834921,-4.92000007629395
602.6991171,-14.1099996566772
602.7147421,-22.5699996948242
602.7303671,-30.0300006866455
602.7459921,-36.4500007629395
602.7616171,-42.0800018310547
602.7772421,-47.4099998474121
602.7928671,-52.8300018310547
602.8084921,-58.2400016784668
602.8241171,-63.1699981689453
602.8397421,-67.1500015258789
602.8553671,-69.9400024414063
602.8709921,-71.629997253418
602.8866171,-72.5
602.9022421,-72.9400024414063
602.9178671,-73.3399963378906
602.9334921,-73.9100036621094
602.9491171,-74.629997253418
602.9647421,-75.4899978637695
602.9803671,-76.4800033569336
602.9959921,-77.2399978637695
603.0116171,-76.7300033569336
603.0272421,-73.4599990844727
603.0428671,-66.3199996948242
603.0584921,-55.2099990844727
603.0741171,-41.0400009155273
603.0897421,-25.3299999237061
603.1053671,-9.5
603.1209921,5.75
603.1366171,20.5300006866455
603.1522421,35.310001373291
603.1678671,50.5299987792969
603.1834921,66.120002746582
603.1991171,81.2399978637695
603.2147421,94.5800018310547
603.2303671,105.029998779297
603.2459921,112.129997253418
603.2616171,116.269996643066
603.2772421,118.470001220703
603.2928671,119.629997253418
603.3084921,119.830001831055
603.3241171,118.589996337891
603.3397421,115.559997558594
603.3553671,110.860000610352
603.3709921,104.889999389648
603.3866171,98.0800018310547
603.4022421,90.8899993896484
603.4178671,83.5599975585938
603.4334921,75.4400024414063
603.4491171,65.2900009155273
603.4647421,52.5800018310547
603.4803671,38.8199996948242
603.4959921,27.6900005340576
603.5116171,22.75
603.5272421,24.5100002288818
603.5428671,30.0599994659424
603.5584921,35.2999992370605
603.5741171,37.189998626709
603.5897421,34.7099990844727
603.6053671,28.5799999237061
603.6209921,20.1399993896484
603.6366171,10.460000038147
603.6522421,0.109999999403954
603.6678671,-10.539999961853
603.6834921,-21.1800003051758
603.6991171,-31.5900001525879
603.7147421,-41.5800018310547
603.7303671,-50.8899993896484
603.7459921,-59.3600006103516
603.7616171,-67.1100006103516
603.7772421,-74.25
603.7928671,-80.5599975585938
603.8084921,-85.9499969482422
603.8241171,-90.7799987792969
603.8397421,-95.370002746582
603.8553671,-98.9700012207031
603.8709921,-99.8499984741211
603.8866171,-96.4499969482422
603.9022421,-88.620002746582
603.9178671,-78.5299987792969
603.9334921,-69.4300003051758
603.9491171,-62.9500007629395
603.9647421,-57.9099998474121
603.9803671,-51.810001373291
603.9959921,-43.0299987792969
604.0116171,-32.0800018310547
604.0272421,-21.1700000762939
604.0428671,-12.4499998092651
604.0584921,-6.67999982833862
604.0741171,-3.58999991416931
604.0897421,-3.05999994277954
604.1053671,-5.44000005722046
604.1209921,-10.960000038147
604.1366171,-19.0100002288818
604.1522421,-28.5
604.1678671,-38.6599998474121
604.1834921,-48.8800010681152
604.1991171,-58.2900009155273
604.2147421,-66.0599975585938
604.2303671,-71.9599990844727
604.2459921,-76.5999984741211
604.2616171,-80.870002746582
604.2772421,-85.2600021362305
604.2928671,-89.9400024414063
604.3084921,-95.1699981689453
604.3241171,-100.75
604.3397421,-105.699996948242
604.3553671,-109.059997558594
604.3709921,-110.470001220703
604.3866171,-110.089996337891
604.4022421,-108.319999694824
604.4178671,-105.51000213623
604.4334921,-101.959999084473
604.4491171,-98.1100006103516
604.4647421,-94.620002746582
604.4803671,-91.9800033569336
604.4959921,-90.1800003051758
604.5116171,-88.9199981689453
604.5272421,-87.9599990844727
604.5428671,-87.3300018310547
604.5584921,-87.2399978637695
604.5741171,-87.9599990844727
604.5897421,-89.5100021362305
604.6053671,-91.5599975585938
604.6209921,-93.3000030517578
604.6366171,-93.7099990844727
604.6522421,-91.9599990844727
604.6678671,-87.8600006103516
604.6834921,-81.9300003051758
604.6991171,-75.0800018310547
604.7147421,-67.7200012207031
604.7303671,-58.9500007629395
604.7459921,-47.1599998474121
604.7616171,-31.25
604.7772421,-11.1499996185303
604.7928671,12.1400003433228
604.8084921,36.9799995422363
604.8241171,61.6500015258789
604.8397421,85.6900024414063
604.8553671,110.190002441406
604.8709921,136.220001220703
604.8866171,163.339996337891
604.9022421,189.770004272461
604.9178671,213.429992675781
604.9334921,232.830001831055
604.9491171,247.600006103516
604.9647421,258.380004882813
604.9803671,265.959991455078
604.9959921,270.529998779297
605.0116171,271.519989013672
605.0272421,268.320007324219
605.0428671,260.950012207031
605.0584921,250.210006713867
605.0741171,237.199996948242
605.0897421,222.850006103516
605.1053671,207.830001831055
605.1209921,192.690002441406
605.1366171,177.960006713867
605.1522421,164.139999389648
605.1678671,151.5
605.1834921,139.899993896484
605.1991171,128.860000610352
605.2147421,117.949996948242
605.2303671,107.169998168945
605.2459921,96.8600006103516
605.2616171,87.3899993896484
605.2772421,79.0500030517578
605.2928671,71.9800033569336
605.3084921,66.0899963378906
605.3241171,60.9199981689453
605.3397421,55.8699989318848
605.3553671,50.4799995422363
605.3709921,44.7000007629395
605.3866171,38.6800003051758
605.4022421,32.4900016784668
605.4178671,26.2299995422363
605.4334921,20.0100002288818
605.4491171,13.8999996185303
605.4647421,8.02999973297119
605.4803671,2.91000008583069
605.4959921,-0.639999985694885
605.5116171,-1.87000000476837
605.5272421,-0.430000007152557
605.5428671,3.52999997138977
605.5584921,9.47999954223633
605.5741171,16.5100002288818
605.5897421,23.3799991607666
605.6053671,28.8600006103516
605.6209921,32.2999992370605
605.6366171,33.7400016784668
605.6522421,33.5800018310547
605.6678671,32.0800018310547
605.6834921,29.2299995422363
605.6991171,24.9099998474121
605.7147421,18.9300003051758
605.7303671,10.8800001144409
605.7459921,0.509999990463257
605.7616171,-11.8299999237061
605.7772421,-25.2399997711182
605.7928671,-38.6599998474121
605.8084921,-51.3600006103516
605.8241171,-63.1599998474121
605.8397421,-74.4100036621094
605.8553671,-85.6100006103516
605.8709921,-97.0199966430664
605.8866171,-108.610000610352
605.9022421,-120.089996337891
605.9178671,-131.110000610352
605.9334921,-141.389999389648
605.9491171,-150.710006713867
605.9647421,-158.899993896484
605.9803671,-165.800003051758
605.9959921,-171.460006713867
606.0116171,-176.160003662109
606.0272421,-180.160003662109
606.0428671,-183.539993286133
606.0584921,-186.279998779297
606.0741171,-188.229995727539
606.0897421,-189.059997558594
606.1053671,-188.529998779297
606.1209921,-186.660003662109
606.1366171,-183.779998779297
606.1522421,-180.229995727539
606.1678671,-176.149993896484
606.1834921,-171.389999389648
606.1991171,-165.729995727539
606.2147421,-158.990005493164
606.2303671,-151.169998168945
606.2459921,-142.479995727539
606.2616171,-133.229995727539
606.2772421,-123.610000610352
606.2928671,-113.25
606.3084921,-101.279998779297
606.3241171,-86.8300018310547
606.3397421,-69.8600006103516
606.3553671,-51.2099990844727
606.3709921,-32.2299995422363
606.3866171,-14.2399997711182
606.4022421,1.99000000953674
606.4178671,16.2600002288818
606.4334921,28.8199996948242
606.4491171,40.0900001525879
606.4647421,50.2700004577637
606.4803671,59.0999984741211
606.4959921,66.0400009155273
606.5116171,70.6600036621094
606.5272421,72.8300018310547
606.5428671,72.7699966430664
606.5584921,70.9400024414063
606.5741171,67.879997253418
606.5897421,64.1100006103516
606.6053671,60.0699996948242
606.6209921,56.1399993896484
606.6366171,52.6699981689453
606.6522421,49.8400001525879
606.6678671,47.5099983215332
606.6834921,45.3300018310547
606.6991171,43.0699996948242
606.7147421,40.7799987792969
606.7303671,38.6500015258789
606.7459921,36.6599998474121
606.7616171,34.5999984741211
606.7772421,32.25
606.7928671,29.5400009155273
606.8084921,26.6499996185303
606.8241171,23.9099998474121
606.8397421,21.7099990844727
606.8553671,20.2700004577637
606.8709921,19.4300003051758
606.8866171,18.8400001525879
606.9022421,18.2399997711182
606.9178671,17.7700004577637
606.9334921,17.7299995422363
606.9491171,18.2399997711182
606.9647421,19.2299995422363
606.9803671,20.5100002288818
606.9959921,21.9500007629395
607.0116171,23.4300003051758
607.0272421,25.0200004577637
607.0428671,26.9899997711182
607.0584921,29.7700004577637
607.0741171,33.810001373291
607.0897421,39.2599983215332
607.1053671,45.5999984741211
607.1209921,51.9700012207031
607.1366171,58.1699981689453
607.1522421,64.9800033569336
607.1678671,73.4199981689453
607.1834921,83.7399978637695
607.1991171,94.8099975585938
607.2147421,105.199996948242
607.2303671,114.379997253418
607.2459921,121.98999786377
607.2616171,127.199996948242
607.2772421,129.830001831055
607.2928671,130.929992675781
607.3084921,131.490005493164
607.3241171,131.270004272461
607.3397421,129.039993286133
607.3553671,123.699996948242
607.3709921,115.01000213623
607.3866171,103.589996337891
607.4022421,90.4800033569336
607.4178671,76.629997253418
607.4334921,62.6599998474121
607.4491171,48.9000015258789
607.4647421,35.4900016784668
607.4803671,22.5200004577637
607.4959921,10.1000003814697
607.5116171,-1.71000003814697
607.5272421,-12.960000038147
607.5428671,-23.7000007629395
607.5584921,-33.8899993896484
607.5741171,-43.2999992370605
607.5897421,-51.7000007629395
607.6053671,-58.9700012207031
607.6209921,-65.1500015258789
607.6366171,-70.4199981689453
607.6522421,-74.870002746582
607.6678671,-78.5199966430664
607.6834921,-81.4000015258789
607.6991171,-83.7300033569336
607.7147421,-85.8099975585938
607.7303671,-87.8399963378906
607.7459921,-89.8000030517578
607.7616171,-91.4499969482422
607.7772421,-92.5299987792969
607.7928671,-92.8199996948242
607.8084921,-92.3399963378906
607.8241171,-91.3600006103516
607.8397421,-90.2300033569336
607.8553671,-88.9800033569336
607.8709921,-87.0899963378906
607.8866171,-83.8499984741211
607.9022421,-78.629997253418
607.9178671,-71.129997253418
607.9334921,-61.4500007629395
607.9491171,-50.0200004577637
607.9647421,-37.4700012207031
607.9803671,-24.4099998474121
607.9959921,-11.5100002288818
608.0116171,0.310000002384186
608.0272421,10.2399997711182
608.0428671,17.8400001525879
608.0584921,23.2000007629395
608.0741171,26.6800003051758
608.0897421,28.5699996948242
608.1053671,28.7099990844727
608.1209921,26.7299995422363
608.1366171,22.3899993896484
608.1522421,15.8599996566772
608.1678671,7.6399998664856
608.1834921,-1.42999994754791
608.1991171,-10.3900003433228
608.2147421,-18.4500007629395
608.2303671,-25.2700004577637
608.2459921,-30.8700008392334
608.2616171,-35.5200004577637
608.2772421,-39.5800018310547
608.2928671,-43.2599983215332
608.3084921,-46.4000015258789
608.3241171,-48.5200004577637
608.3397421,-49.1399993896484
608.3553671,-48.0299987792969
608.3709921,-45.4799995422363
608.3866171,-42.1300010681152
608.4022421,-38.7599983215332
608.4178671,-35.8699989318848
608.4334921,-33.5400009155273
608.4491171,-31.4699993133545
608.4647421,-29.1900005340576
608.4803671,-26.2900009155273
608.4959921,-22.5499992370605
608.5116171,-17.9799995422363
608.5272421,-12.8900003433228
608.5428671,-7.67999982833862
608.5584921,-2.78999996185303
608.5741171,1.47000002861023
608.5897421,4.96999979019165
608.6053671,7.65000009536743
608.6209921,9.59000015258789
608.6366171,10.960000038147
608.6522421,12.2799997329712
608.6678671,14.4099998474121
608.6834921,18.4799995422363
608.6991171,25.3600006103516
608.7147421,35.3600006103516
608.7303671,48.0800018310547
608.7459921,62.3499984741211
608.7616171,76.3600006103516
608.7772421,88.5299987792969
608.7928671,98.2300033569336
608.8084921,105.650001525879
608.8241171,111.410003662109
608.8397421,116.190002441406
608.8553671,120.349998474121
608.8709921,123.459999084473
608.8866171,124.51000213623
608.9022421,122.470001220703
608.9178671,116.839996337891
608.9334921,107.75
608.9491171,96.0500030517578
608.9647421,83.0599975585938
608.9803671,70.2200012207031
608.9959921,58.5400009155273
609.0116171,48.3699989318848
609.0272421,39.5499992370605
609.0428671,31.7700004577637
609.0584921,24.6499996185303
609.0741171,17.6800003051758
609.0897421,10.3000001907349
609.1053671,2.22000002861023
609.1209921,-6.36999988555908
609.1366171,-14.9200000762939
609.1522421,-22.7999992370605
609.1678671,-29.7199993133545
609.1834921,-35.7599983215332
609.1991171,-41.2299995422363
609.2147421,-46.4799995422363
609.2303671,-51.7000007629395
609.2459921,-56.7200012207031
609.2616171,-61.1199989318848
609.2772421,-64.5899963378906
609.2928671,-67.2799987792969
609.3084921,-69.6399993896484
609.3241171,-72.129997253418
609.3397421,-74.8899993896484
609.3553671,-77.6699981689453
609.3709921,-79.8600006103516
609.3866171,-80.8899993896484
609.4022421,-80.629997253418
609.4178671,-79.4100036621094
609.4334921,-77.5800018310547
609.4491171,-75.0299987792969
609.4647421,-71.0100021362305
609.4803671,-64.3899993896484
609.4959921,-54.3400001525879
609.5116171,-40.9900016784668
609.5272421,-25.5599994659424
609.5428671,-9.76000022888184
609.5584921,4.92999982833862
609.5741171,17.6499996185303
609.5897421,28.0200004577637
609.6053671,35.9700012207031
609.6209921,41.5900001525879
609.6366171,45.0099983215332
609.6522421,46.4599990844727
609.6678671,46.0699996948242
609.6834921,43.6800003051758
609.6991171,38.8199996948242
609.7147421,30.7299995422363
609.7303671,18.7700004577637
609.7459921,3.28999996185303
609.7616171,-13.9899997711182
609.7772421,-30.7099990844727
609.7928671,-44.9900016784668
609.8084921,-55.9799995422363
609.8241171,-63.9500007629395
609.8397421,-69.8899993896484
609.8553671,-74.8300018310547
609.8709921,-79.0199966430664
609.8866171,-81.7900009155273
609.9022421,-82.2300033569336
609.9178671,-79.8399963378906
609.9334921,-74.9400024414063
609.9491171,-68.4400024414063
609.9647421,-61.2200012207031
609.9803671,-53.5499992370605
609.9959921,-45.1699981689453
610.0116171,-35.7900009155273
610.0272421,-25.5100002288818
610.0428671,-14.7799997329712
610.0584921,-4.19000005722046
610.0741171,5.71000003814697
610.0897421,14.5
610.1053671,21.9200000762939
610.1209921,27.9500007629395
610.1366171,32.8899993896484
610.1522421,37.2099990844727
610.1678671,41.4000015258789
610.1834921,45.7999992370605
610.1991171,50.3899993896484
610.2147421,54.8699989318848
610.2303671,58.9900016784668
610.2459921,63.0999984741211
610.2616171,68.129997253418
610.2772421,75.0500030517578
610.2928671,84.4100036621094
610.3084921,95.9599990844727
610.3241171,108.779998779297
610.3397421,121.569999694824
610.3553671,133.190002441406
610.3709921,142.669998168945
610.3866171,149.25
610.4022421,152.649993896484
610.4178671,153.179992675781
610.4334921,151.369995117188
610.4491171,147.649993896484
610.4647421,142.190002441406
610.4803671,134.690002441406
610.4959921,124.709999084473
610.5116171,112.470001220703
610.5272421,98.879997253418
610.5428671,84.75
610.5584921,69.8199996948242
610.5741171,51.9500007629395
610.5897421,27.2399997711182
610.6053671,-7.07000017166138
610.6209921,-48.5999984741211
610.6366171,-89.4300003051758
610.6522421,-120.26000213623
610.6678671,-135.580001831055
610.6834921,-136.460006713867
610.6991171,-129.309997558594
610.7147421,-121.669998168945
610.7303671,-118.669998168945
