Time(s),Value(%)
536.006776,0.100000001490116
536.022401,0.360000014305115
536.038026,0.610000014305115
536.053651,0.810000002384186
536.069276,0.930000007152557
536.084901,0.980000019073486
536.100526,0.990000009536743
536.116151,0.990000009536743
536.131776,1.0
536.147401,1.01999998092651
536.163026,0.990000009536743
536.178651,0.839999973773956
536.194276,0.569999992847443
536.209901,0.230000004172325
536.225526,-0.0900000035762787
536.241151,-0.340000003576279
536.256776,-0.490000009536743
536.272401,-0.579999983310699
536.288026,-0.620000004768372
536.303651,-0.629999995231628
536.319276,-0.579999983310699
536.334901,-0.439999997615814
536.350526,-0.230000004172325
536.366151,-0.0299999993294477
536.381776,0.0900000035762787
536.397401,0.109999999403954
536.413026,0.0299999993294477
536.428651,-0.119999997317791
536.444276,-0.349999994039536
536.459901,-0.620000004768372
536.475526,-0.839999973773956
536.491151,-0.870000004768372
536.506776,-0.649999976158142
536.522401,-0.189999997615814
536.538026,0.400000005960464
536.553651,0.949999988079071
536.569276,1.26999998092651
536.584901,1.27999997138977
536.600526,0.980000019073486
536.616151,0.5
536.631776,-0.0199999995529652
536.647401,-0.469999998807907
536.663026,-0.790000021457672
536.678651,-0.939999997615814
536.694276,-0.949999988079071
536.709901,-0.829999983310699
536.725526,-0.600000023841858
536.741151,-0.300000011920929
536.756776,0.0
536.772401,0.259999990463257
536.788026,0.419999986886978
536.803651,0.46000000834465
536.819276,0.409999996423721
536.834901,0.310000002384186
536.850526,0.170000001788139
536.866151,0.0
536.881776,-0.170000001788139
536.897401,-0.379999995231628
536.913026,-0.629999995231628
536.928651,-0.920000016689301
536.944276,-1.21000003814697
536.959901,-1.38999998569489
536.975526,-1.35000002384186
536.991151,-1.00999999046326
537.006776,-0.409999996423721
537.022401,0.28999999165535
537.038026,0.910000026226044
537.053651,1.30999994277954
537.069276,1.47000002861023
537.084901,1.45000004768372
537.100526,1.36000001430511
537.116151,1.24000000953674
537.131776,1.0900000333786
537.147401,0.889999985694885
537.163026,0.639999985694885
537.178651,0.340000003576279
537.194276,0.0
537.209901,-0.330000013113022
537.225526,-0.639999985694885
537.241151,-0.870000004768372
537.256776,-0.990000009536743
537.272401,-1.04999995231628
537.288026,-1.05999994277954
537.303651,-1.02999997138977
537.319276,-0.949999988079071
537.334901,-0.850000023841858
537.350526,-0.790000021457672
537.366151,-0.779999971389771
537.381776,-0.790000021457672
537.397401,-0.759999990463257
537.413026,-0.680000007152557
537.428651,-0.519999980926514
537.444276,-0.310000002384186
537.459901,-0.0900000035762787
537.475526,0.140000000596046
537.491151,0.439999997615814
537.506776,0.819999992847443
537.522401,1.22000002861023
537.538026,1.50999999046326
537.553651,1.57000005245209
537.569276,1.37000000476837
537.584901,0.990000009536743
537.600526,0.610000014305115
537.616151,0.340000003576279
537.631776,0.230000004172325
537.647401,0.219999998807907
537.663026,0.230000004172325
537.678651,0.180000007152557
537.694276,0.0500000007450581
537.709901,-0.109999999403954
537.725526,-0.270000010728836
537.741151,-0.419999986886978
537.756776,-0.560000002384186
537.772401,-0.699999988079071
537.788026,-0.810000002384186
537.803651,-0.819999992847443
537.819276,-0.689999997615814
537.834901,-0.479999989271164
537.850526,-0.310000002384186
537.866151,-0.239999994635582
537.881776,-0.259999990463257
537.897401,-0.300000011920929
537.913026,-0.259999990463257
537.928651,-0.0599999986588955
537.944276,0.300000011920929
537.959901,0.759999990463257
537.975526,1.16999995708466
537.991151,1.45000004768372
538.006776,1.58000004291534
538.022401,1.55999994277954
538.038026,1.4099999666214
538.053651,1.14999997615814
538.069276,0.839999973773956
538.084901,0.540000021457672
538.100526,0.259999990463257
538.116151,0.0
538.131776,-0.219999998807907
538.147401,-0.349999994039536
538.163026,-0.340000003576279
538.178651,-0.230000004172325
538.194276,-0.100000001490116
538.209901,-0.0299999993294477
538.225526,-0.0099999997764825
538.241151,-0.0399999991059303
538.256776,-0.0900000035762787
538.272401,-0.230000004172325
538.288026,-0.469999998807907
538.303651,-0.709999978542328
538.319276,-0.829999983310699
538.334901,-0.790000021457672
538.350526,-0.670000016689301
538.366151,-0.620000004768372
538.381776,-0.680000007152557
538.397401,-0.800000011920929
538.413026,-0.819999992847443
538.428651,-0.620000004768372
538.444276,-0.180000007152557
538.459901,0.419999986886978
538.475526,1.02999997138977
538.491151,1.46000003814697
538.506776,1.58000004291534
538.522401,1.46000003814697
538.538026,1.24000000953674
538.553651,1.0900000333786
538.569276,1.07000005245209
538.584901,1.10000002384186
538.600526,1.07000005245209
538.616151,0.889999985694885
538.631776,0.569999992847443
538.647401,0.239999994635582
538.663026,0.0199999995529652
538.678651,-0.0199999995529652
538.694276,0.0299999993294477
538.709901,0.100000001490116
538.725526,0.0199999995529652
538.741151,-0.239999994635582
538.756776,-0.610000014305115
538.772401,-0.939999997615814
538.788026,-1.11000001430511
538.803651,-1.13999998569489
538.819276,-1.0900000333786
538.834901,-1.02999997138977
538.850526,-1.0
538.866151,-1.0
538.881776,-0.990000009536743
538.897401,-0.889999985694885
538.913026,-0.660000026226044
538.928651,-0.230000004172325
538.944276,0.349999994039536
538.959901,0.970000028610229
538.975526,1.42999994754791
538.991151,1.63999998569489
539.006776,1.6599999666214
539.022401,1.57000005245209
539.038026,1.46000003814697
539.053651,1.33000004291534
539.069276,1.14999997615814
539.084901,0.860000014305115
539.100526,0.479999989271164
539.116151,0.0799999982118607
539.131776,-0.209999993443489
539.147401,-0.389999985694885
539.163026,-0.490000009536743
539.178651,-0.579999983310699
539.194276,-0.689999997615814
539.209901,-0.860000014305115
539.225526,-1.08000004291534
539.241151,-1.25999999046326
539.256776,-1.3400000333786
539.272401,-1.25
539.288026,-1.04999995231628
539.303651,-0.810000002384186
539.319276,-0.629999995231628
539.334901,-0.519999980926514
539.350526,-0.439999997615814
539.366151,-0.28999999165535
539.381776,-0.0099999997764825
539.397401,0.439999997615814
539.413026,1.04999995231628
539.428651,1.66999995708466
539.444276,2.17000007629395
539.459901,2.35999989509583
539.475526,2.1800000667572
539.491151,1.64999997615814
539.506776,0.930000007152557
539.522401,0.200000002980232
539.538026,-0.400000005960464
539.553651,-0.850000023841858
539.569276,-1.14999997615814
539.584901,-1.30999994277954
539.600526,-1.3400000333786
539.616151,-1.25
539.631776,-1.12000000476837
539.647401,-1.00999999046326
539.663026,-0.930000007152557
539.678651,-0.850000023841858
539.694276,-0.730000019073486
539.709901,-0.529999971389771
539.725526,-0.310000002384186
539.741151,-0.119999997317791
539.756776,0.0
539.772401,0.0599999986588955
539.788026,0.0799999982118607
539.803651,0.0399999991059303
539.819276,-0.0399999991059303
539.834901,-0.100000001490116
539.850526,-0.0599999986588955
539.866151,0.0599999986588955
539.881776,0.270000010728836
539.897401,0.479999989271164
539.913026,0.579999983310699
539.928651,0.509999990463257
539.944276,0.259999990463257
539.959901,-0.100000001490116
539.975526,-0.46000000834465
539.991151,-0.649999976158142
540.006776,-0.600000023841858
540.022401,-0.319999992847443
540.038026,0.0799999982118607
540.053651,0.469999998807907
540.069276,0.699999988079071
540.084901,0.709999978542328
540.100526,0.550000011920929
540.116151,0.319999992847443
540.131776,0.100000001490116
540.147401,-0.0900000035762787
540.163026,-0.300000011920929
540.178651,-0.540000021457672
540.194276,-0.800000011920929
540.209901,-0.990000009536743
540.225526,-1.00999999046326
540.241151,-0.889999985694885
540.256776,-0.769999980926514
540.272401,-0.790000021457672
540.288026,-0.910000026226044
540.303651,-0.980000019073486
540.319276,-0.819999992847443
540.334901,-0.300000011920929
540.350526,0.5
540.366151,1.32000005245209
540.381776,1.86000001430511
540.397401,1.95000004768372
540.413026,1.64999997615814
540.428651,1.21000003814697
540.444276,0.860000014305115
540.459901,0.689999997615814
540.475526,0.639999985694885
540.491151,0.569999992847443
540.506776,0.370000004768372
540.522401,0.0399999991059303
540.538026,-0.280000001192093
540.553651,-0.469999998807907
540.569276,-0.5
540.584901,-0.439999997615814
540.600526,-0.409999996423721
540.616151,-0.490000009536743
540.631776,-0.709999978542328
540.647401,-0.959999978542328
540.663026,-1.13999998569489
540.678651,-1.14999997615814
540.694276,-0.990000009536743
540.709901,-0.740000009536743
540.725526,-0.469999998807907
540.741151,-0.28999999165535
540.756776,-0.200000002980232
540.772401,-0.0900000035762787
540.788026,0.159999996423721
540.803651,0.620000004768372
540.819276,1.22000002861023
540.834901,1.77999997138977
540.850526,2.09999990463257
540.866151,2.03999996185303
540.881776,1.63999998569489
540.897401,1.0
540.913026,0.319999992847443
540.928651,-0.219999998807907
540.944276,-0.560000002384186
540.959901,-0.720000028610229
540.975526,-0.790000021457672
540.991151,-0.829999983310699
541.006776,-0.839999973773956
541.022401,-0.779999971389771
541.038026,-0.660000026226044
541.053651,-0.509999990463257
541.069276,-0.379999995231628
541.084901,-0.349999994039536
541.100526,-0.46000000834465
541.116151,-0.670000016689301
541.131776,-0.879999995231628
541.147401,-1.03999996185303
541.163026,-1.11000001430511
541.178651,-1.08000004291534
541.194276,-1.0
541.209901,-0.910000026226044
541.225526,-0.790000021457672
541.241151,-0.540000021457672
541.256776,-0.0599999986588955
541.272401,0.600000023841858
541.288026,1.29999995231628
541.303651,1.8400000333786
541.319276,2.05999994277954
541.334901,1.9099999666214
541.350526,1.51999998092651
541.366151,1.03999996185303
541.381776,0.620000004768372
541.397401,0.330000013113022
541.413026,0.189999997615814
541.428651,0.170000001788139
541.444276,0.219999998807907
541.459901,0.28999999165535
541.475526,0.330000013113022
541.491151,0.28999999165535
541.506776,0.180000007152557
541.522401,0.0399999991059303
541.538026,-0.0900000035762787
541.553651,-0.209999993443489
541.569276,-0.300000011920929
541.584901,-0.28999999165535
541.600526,-0.189999997615814
541.616151,-0.0500000007450581
541.631776,0.0
541.647401,-0.119999997317791
541.663026,-0.349999994039536
541.678651,-0.550000011920929
541.694276,-0.629999995231628
541.709901,-0.540000021457672
541.725526,-0.330000013113022
541.741151,-0.0599999986588955
541.756776,0.239999994635582
541.772401,0.509999990463257
541.788026,0.709999978542328
541.803651,0.790000021457672
541.819276,0.720000028610229
541.834901,0.519999980926514
541.850526,0.200000002980232
541.866151,-0.189999997615814
541.881776,-0.620000004768372
541.897401,-0.970000028610229
541.913026,-1.14999997615814
541.928651,-1.11000001430511
541.944276,-0.910000026226044
541.959901,-0.629999995231628
541.975526,-0.389999985694885
541.991151,-0.300000011920929
542.006776,-0.379999995231628
542.022401,-0.529999971389771
542.038026,-0.610000014305115
542.053651,-0.529999971389771
542.069276,-0.319999992847443
542.084901,-0.140000000596046
542.100526,-0.109999999403954
542.116151,-0.270000010728836
542.131776,-0.529999971389771
542.147401,-0.699999988079071
542.163026,-0.639999985694885
542.178651,-0.280000001192093
542.194276,0.280000001192093
542.209901,0.879999995231628
542.225526,1.26999998092651
542.241151,1.35000002384186
542.256776,1.1599999666214
542.272401,0.910000026226044
542.288026,0.790000021457672
542.303651,0.850000023841858
542.319276,1.02999997138977
542.334901,1.23000001907349
542.350526,1.33000004291534
542.366151,1.25999999046326
542.381776,0.990000009536743
542.397401,0.600000023841858
542.413026,0.209999993443489
542.428651,-0.0199999995529652
542.444276,-0.109999999403954
542.459901,-0.0900000035762787
542.475526,-0.0799999982118607
542.491151,-0.170000001788139
542.506776,-0.419999986886978
542.522401,-0.779999971389771
542.538026,-1.12999999523163
542.553651,-1.35000002384186
542.569276,-1.36000001430511
542.584901,-1.16999995708466
542.600526,-0.870000004768372
542.616151,-0.560000002384186
542.631776,-0.280000001192093
542.647401,0.0
542.663026,0.310000002384186
542.678651,0.680000007152557
542.694276,1.07000005245209
542.709901,1.37000000476837
542.725526,1.47000002861023
542.741151,1.3400000333786
542.756776,1.04999995231628
542.772401,0.769999980926514
542.788026,0.620000004768372
542.803651,0.610000014305115
542.819276,0.579999983310699
542.834901,0.360000014305115
542.850526,-0.0900000035762787
542.866151,-0.680000007152557
542.881776,-1.17999994754791
542.897401,-1.44000005722046
542.913026,-1.45000004768372
542.928651,-1.30999994277954
542.944276,-1.17999994754791
542.959901,-1.16999995708466
542.975526,-1.29999995231628
542.991151,-1.50999999046326
543.006776,-1.75
543.022401,-1.95000004768372
543.038026,-2.03999996185303
543.053651,-1.94000005722046
543.069276,-1.61000001430511
543.084901,-1.05999994277954
543.100526,-0.389999985694885
543.116151,0.230000004172325
543.131776,0.689999997615814
543.147401,0.930000007152557
543.163026,1.0
543.178651,0.959999978542328
543.194276,0.850000023841858
543.209901,0.689999997615814
543.225526,0.509999990463257
543.241151,0.360000014305115
543.256776,0.300000011920929
543.272401,0.349999994039536
543.288026,0.46000000834465
543.303651,0.529999971389771
543.319276,0.490000009536743
543.334901,0.319999992847443
543.350526,0.0500000007450581
543.366151,-0.25
543.381776,-0.509999990463257
543.397401,-0.649999976158142
543.413026,-0.629999995231628
543.428651,-0.469999998807907
543.444276,-0.25
543.459901,-0.0399999991059303
543.475526,0.0900000035762787
543.491151,0.129999995231628
543.506776,0.0799999982118607
543.522401,-0.0399999991059303
543.538026,-0.170000001788139
543.553651,-0.200000002980232
543.569276,-0.0700000002980232
543.584901,0.219999998807907
543.600526,0.629999995231628
543.616151,1.02999997138977
543.631776,1.24000000953674
543.647401,1.21000003814697
543.663026,1.00999999046326
543.678651,0.800000011920929
543.694276,0.660000026226044
543.709901,0.560000002384186
543.725526,0.430000007152557
543.741151,0.25
543.756776,0.0299999993294477
543.772401,-0.150000005960464
543.788026,-0.270000010728836
543.803651,-0.259999990463257
543.819276,-0.140000000596046
543.834901,-0.0500000007450581
543.850526,-0.100000001490116
543.866151,-0.310000002384186
543.881776,-0.610000014305115
543.897401,-0.810000002384186
543.913026,-0.839999973773956
543.928651,-0.769999980926514
543.944276,-0.629999995231628
543.959901,-0.469999998807907
543.975526,-0.340000003576279
543.991151,-0.340000003576279
544.006776,-0.430000007152557
544.022401,-0.419999986886978
544.038026,-0.129999995231628
544.053651,0.490000009536743
544.069276,1.30999994277954
544.084901,2.07999992370605
544.100526,2.58999991416931
544.116151,2.71000003814697
544.131776,2.49000000953674
544.147401,2.04999995231628
544.163026,1.57000005245209
544.178651,1.21000003814697
544.194276,0.990000009536743
544.209901,0.829999983310699
544.225526,0.639999985694885
544.241151,0.400000005960464
544.256776,0.159999996423721
544.272401,0.0
544.288026,-0.0199999995529652
544.303651,0.0700000002980232
544.319276,0.150000005960464
544.334901,0.0799999982118607
544.350526,-0.159999996423721
544.366151,-0.519999980926514
544.381776,-0.839999973773956
544.397401,-1.0
544.413026,-0.980000019073486
544.428651,-0.899999976158142
544.444276,-0.910000026226044
544.459901,-1.01999998092651
544.475526,-1.11000001430511
544.491151,-1.04999995231628
544.506776,-0.769999980926514
544.522401,-0.330000013113022
544.538026,0.140000000596046
544.553651,0.540000021457672
544.569276,0.790000021457672
544.584901,0.870000004768372
544.600526,0.800000011920929
544.616151,0.620000004768372
544.631776,0.439999997615814
544.647401,0.360000014305115
544.663026,0.430000007152557
544.678651,0.589999973773956
544.694276,0.709999978542328
544.709901,0.629999995231628
544.725526,0.310000002384186
544.741151,-0.140000000596046
544.756776,-0.589999973773956
544.772401,-0.920000016689301
544.788026,-1.05999994277954
544.803651,-1.04999995231628
544.819276,-0.939999997615814
544.834901,-0.829999983310699
544.850526,-0.810000002384186
544.866151,-0.899999976158142
544.881776,-1.05999994277954
544.897401,-1.17999994754791
544.913026,-1.21000003814697
544.928651,-1.11000001430511
544.944276,-0.899999976158142
544.959901,-0.579999983310699
544.975526,-0.170000001788139
544.991151,0.28999999165535
545.006776,0.730000019073486
545.022401,1.04999995231628
545.038026,1.21000003814697
545.053651,1.25
545.069276,1.21000003814697
545.084901,1.12999999523163
545.100526,1.03999996185303
545.116151,0.949999988079071
545.131776,0.819999992847443
545.147401,0.600000023841858
545.163026,0.319999992847443
545.178651,0.0099999997764825
545.194276,-0.259999990463257
545.209901,-0.5
545.225526,-0.699999988079071
545.241151,-0.850000023841858
545.256776,-0.930000007152557
545.272401,-0.860000014305115
545.288026,-0.620000004768372
545.303651,-0.25
545.319276,0.119999997317791
545.334901,0.379999995231628
545.350526,0.449999988079071
545.366151,0.310000002384186
545.381776,0.0
545.397401,-0.370000004768372
545.413026,-0.639999985694885
545.428651,-0.689999997615814
545.444276,-0.449999988079071
545.459901,0.0099999997764825
545.475526,0.540000021457672
545.491151,0.939999997615814
545.506776,1.07000005245209
545.522401,0.920000016689301
545.538026,0.610000014305115
545.553651,0.270000010728836
545.569276,0.0
545.584901,-0.109999999403954
545.600526,-0.0700000002980232
545.616151,0.0399999991059303
545.631776,0.0799999982118607
545.647401,-0.0599999986588955
545.663026,-0.330000013113022
545.678651,-0.589999973773956
545.694276,-0.709999978542328
545.709901,-0.699999988079071
545.725526,-0.660000026226044
545.741151,-0.680000007152557
545.756776,-0.800000011920929
545.772401,-0.939999997615814
545.788026,-0.980000019073486
545.803651,-0.870000004768372
545.819276,-0.689999997615814
545.834901,-0.620000004768372
545.850526,-0.769999980926514
545.866151,-1.0900000333786
545.881776,-1.41999995708466
545.897401,-1.52999997138977
545.913026,-1.26999998092651
545.928651,-0.689999997615814
545.944276,0.0199999995529652
545.959901,0.680000007152557
545.975526,1.11000001430511
545.991151,1.27999997138977
546.006776,1.21000003814697
546.022401,0.970000028610229
546.038026,0.670000016689301
546.053651,0.409999996423721
546.069276,0.219999998807907
546.084901,0.100000001490116
546.100526,0.0799999982118607
546.116151,0.129999995231628
546.131776,0.189999997615814
546.147401,0.170000001788139
546.163026,0.0599999986588955
546.178651,-0.119999997317791
546.194276,-0.360000014305115
546.209901,-0.560000002384186
546.225526,-0.660000026226044
546.241151,-0.629999995231628
546.256776,-0.519999980926514
546.272401,-0.430000007152557
546.288026,-0.430000007152557
546.303651,-0.5
546.319276,-0.589999973773956
546.334901,-0.639999985694885
546.350526,-0.589999973773956
546.366151,-0.449999988079071
546.381776,-0.230000004172325
546.397401,0.0700000002980232
546.413026,0.419999986886978
546.428651,0.769999980926514
546.444276,1.03999996185303
546.459901,1.14999997615814
546.475526,1.05999994277954
546.491151,0.769999980926514
546.506776,0.370000004768372
546.522401,-0.0099999997764825
546.538026,-0.28999999165535
546.553651,-0.439999997615814
546.569276,-0.490000009536743
546.584901,-0.490000009536743
546.600526,-0.469999998807907
546.616151,-0.400000005960464
546.631776,-0.28999999165535
546.647401,-0.170000001788139
546.663026,-0.0799999982118607
546.678651,-0.0299999993294477
546.694276,0.0
546.709901,0.0099999997764825
546.725526,0.0199999995529652
546.741151,0.0099999997764825
546.756776,0.0
546.772401,-0.0199999995529652
546.788026,0.0399999991059303
546.803651,0.239999994635582
546.819276,0.589999973773956
546.834901,1.01999998092651
546.850526,1.41999995708466
