Time(s),Value(%)
0.0912853,3.63000011444092
0.1069103,14.2700004577637
0.1225353,27.8400001525879
0.1381603,41.5800018310547
0.1537853,52.2200012207031
0.1694103,57.2599983215332
0.1850353,55.8899993896484
0.2006603,49.3600006103516
0.2162853,40.3199996948242
0.2319103,31.4500007629395
0.2475353,24.3400001525879
0.2631603,19.2299995422363
0.2787853,15.5299997329712
0.2944103,12.3199996948242
0.3100353,8.81999969482422
0.3256603,4.94000005722046
0.3412853,1.19000005722046
0.3569103,-1.94000005722046
0.3725353,-4.23999977111816
0.3881603,-5.57000017166138
0.4037853,-5.80000019073486
0.4194103,-5.32999992370605
0.4350353,-5.17000007629395
0.4506603,-6.44000005722046
0.4662853,-9.5600004196167
0.4819103,-14.0799999237061
0.4975353,-18.9699993133545
0.5131603,-23.1700000762939
0.5287853,-25.8799991607666
0.5444103,-26.7800006866455
0.5600353,-26.2199993133545
0.5756603,-24.8799991607666
0.5912853,-23.2600002288818
0.6069103,-21.4899997711182
0.6225353,-19.3899993896484
0.6381603,-16.5799999237061
0.6537853,-12.4200000762939
0.6694103,-6.21999979019165
0.6850353,2.69000005722046
0.7006603,14.7299995422363
0.7162853,29.4599990844727
0.7319103,44.9799995422363
0.7475353,58.2900009155273
0.7631603,66.4100036621094
0.7787853,67.9199981689453
0.7944103,63.4500007629395
0.8100353,55.2599983215332
0.8256603,46.0800018310547
0.8412853,38.0999984741211
0.8569103,32.2900009155273
0.8725353,28.1599998474121
0.8881603,24.2900009155273
0.9037853,19.4500007629395
0.9194103,13.539999961853
0.9350353,7.71999979019165
0.9506603,3.47000002861023
0.9662853,1.24000000953674
0.9819103,0.119999997317791
0.9975353,-1.37000000476837
1.0131603,-4.19999980926514
1.0287853,-8.35999965667725
1.0444103,-13.1599998474121
1.0600353,-17.8700008392334
1.0756603,-22.2299995422363
1.0912853,-26.5
1.1069103,-30.6399993896484
1.1225353,-33.8300018310547
1.1381603,-35.0200004577637
1.1537853,-33.8699989318848
1.1694103,-31.0599994659424
1.1850353,-27.75
1.2006603,-24.9099998474121
1.2162853,-23.1100006103516
1.2319103,-22.4599990844727
1.2475353,-22.2000007629395
1.2631603,-20.3199996948242
1.2787853,-14.1599998474121
1.2944103,-2.24000000953674
1.3100353,14.1700000762939
1.3256603,31.3400001525879
1.3412853,45.1500015258789
1.3569103,53.1300010681152
1.3725353,55.0499992370605
1.3881603,52.2000007629395
1.4037853,46.310001373291
1.4194103,38.9300003051758
1.4350353,31.2299995422363
1.4506603,23.7900009155273
1.4662853,16.5300006866455
1.4819103,8.93000030517578
1.4975353,0.379999995231628
1.5131603,-9.39000034332275
1.5287853,-20.0100002288818
1.5444103,-30.3500003814697
1.5600353,-39.0499992370605
1.5756603,-45.1399993896484
1.5912853,-48.2900009155273
1.6069103,-48.6599998474121
1.6225353,-46.6599998474121
1.6381603,-42.8300018310547
1.6537853,-37.8400001525879
1.6694103,-32.4799995422363
1.6850353,-27.2999992370605
1.7006603,-22.2999992370605
1.7162853,-17.0799999237061
1.7319103,-11.3699998855591
1.7475353,-5.51999998092651
1.7631603,-0.259999990463257
1.7787853,3.83999991416931
1.7944103,7.01000022888184
1.8100353,10.1599998474121
1.8256603,14.5900001525879
1.8412853,21.8600006103516
1.8569103,33.6100006103516
1.8725353,50.75
1.8881603,72.370002746582
1.9037853,95.6600036621094
1.9194103,117
1.9350353,133.529998779297
1.9506603,144.110000610352
1.9662853,149.270004272461
1.9819103,150.429992675781
1.9975353,148.720001220703
2.0131603,144.440002441406
2.0287853,137.279998779297
2.0444103,126.970001220703
2.0600353,113.440002441406
2.0756603,96.7099990844727
2.0912853,77
2.1069103,54.9500007629395
2.1225353,31.6000003814697
2.1381603,8.0600004196167
2.1537853,-14.8999996185303
2.1694103,-37.0299987792969
2.1850353,-58.1399993896484
2.2006603,-77.9899978637695
2.2162853,-96.370002746582
2.2319103,-112.870002746582
2.2475353,-126.709999084473
2.2631603,-137.149993896484
2.2787853,-144.020004272461
2.2944103,-147.869995117188
2.3100353,-149.630004882813
2.3256603,-150.050003051758
2.3412853,-149.649993896484
2.3569103,-148.820007324219
2.3725353,-147.919998168945
2.3881603,-147.300003051758
2.4037853,-146.990005493164
2.4194103,-146.259994506836
2.4350353,-143.199996948242
2.4506603,-135.110000610352
2.4662853,-120.050003051758
2.4819103,-98.5999984741211
2.4975353,-74.1999969482422
2.5131603,-51.560001373291
2.5287853,-34.439998626709
2.5444103,-24.2800006866455
2.5600353,-20.2399997711182
2.5756603,-19.9799995422363
2.5912853,-20.8899993896484
2.6069103,-21.0599994659424
2.6225353,-19.6599998474121
2.6381603,-16.9099998474121
2.6537853,-13.7600002288818
2.6694103,-11.4200000762939
2.6850353,-10.6300001144409
2.7006603,-11.3699998855591
2.7162853,-12.9700002670288
2.7319103,-14.5900001525879
2.7475353,-15.3400001525879
2.7631603,-14.5699996948242
2.7787853,-12.2700004577637
2.7944103,-9.19999980926514
2.8100353,-6.59000015258789
2.8256603,-5.3899998664856
2.8412853,-5.82999992370605
2.8569103,-7.46000003814697
2.8725353,-9.60000038146973
2.8881603,-12.1199998855591
2.9037853,-15.75
2.9194103,-21.6399993896484
2.9350353,-30.3700008392334
2.9506603,-41.3499984741211
2.9662853,-52.9099998474121
2.9819103,-63.2200012207031
2.9975353,-70.8600006103516
3.0131603,-74.620002746582
3.0287853,-72.8199996948242
3.0444103,-63.3600006103516
3.0600353,-44.9500007629395
3.0756603,-18.6200008392334
3.0912853,11.8999996185303
3.1069103,41.4000015258789
3.1225353,65.3899993896484
3.1381603,81.629997253418
3.1537853,90.4000015258789
3.1694103,93.4300003051758
3.1850353,92.620002746582
3.2006603,89.0999984741211
3.2162853,83.1600036621094
3.2319103,74.9700012207031
3.2475353,65.3000030517578
3.2631603,55.4700012207031
3.2787853,47.0499992370605
3.2944103,41.3300018310547
3.3100353,38.810001373291
3.3256603,38.8199996948242
3.3412853,39.8600006103516
3.3569103,40.6100006103516
3.3725353,40.7799987792969
3.3881603,40.8899993896484
3.4037853,41.3800010681152
3.4194103,41.9500007629395
3.4350353,41.9000015258789
3.4506603,40.7700004577637
3.4662853,38.75
3.4819103,36.25
3.4975353,33.5200004577637
3.5131603,30.5599994659424
3.5287853,27.3600006103516
3.5444103,24.0799999237061
3.5600353,20.9300003051758
3.5756603,18.2600002288818
3.5912853,16.8799991607666
3.6069103,18.4200000762939
3.6225353,25.1700000762939
3.6381603,39.060001373291
3.6537853,60.0900001525879
3.6694103,85.379997253418
3.6850353,109.76000213623
3.7006603,127.819999694824
3.7162853,136.289993286133
3.7319103,135.080001831055
3.7475353,126.629997253418
3.7631603,114.319999694824
3.7787853,100.900001525879
3.7944103,87.8300018310547
3.8100353,75.2099990844727
3.8256603,62.3400001525879
3.8412853,48.7200012207031
3.8569103,34.7799987792969
3.8725353,21.6599998474121
3.8881603,10.5
3.9037853,1.85000002384186
3.9194103,-4.46999979019165
3.9350353,-9.18000030517578
3.9506603,-13.0100002288818
3.9662853,-16.4099998474121
3.9819103,-19.7399997711182
3.9975353,-23.5200004577637
4.0131603,-28.0900001525879
4.0287853,-33.2599983215332
4.0444103,-38.5400009155273
4.0600353,-43.5400009155273
4.0756603,-48.1100006103516
4.0912853,-52.060001373291
4.1069103,-55.1500015258789
4.1225353,-57.4099998474121
4.1381603,-59.1599998474121
4.1537853,-60.8600006103516
4.1694103,-62.9099998474121
4.1850353,-65.1500015258789
4.2006603,-66.4300003051758
4.2162853,-64.8099975585938
4.2319103,-58.1300010681152
4.2475353,-44.9199981689453
4.2631603,-25.5300006866455
4.2787853,-2.67000007629395
4.2944103,19.4099998474121
4.3100353,36.7799987792969
4.3256603,47.1800003051758
4.3412853,50.5099983215332
4.3569103,48.2599983215332
4.3725353,42.4900016784668
4.3881603,34.8899993896484
4.4037853,26.4799995422363
4.4194103,17.5799999237061
4.4350353,8.06999969482422
4.4506603,-2.25
4.4662853,-12.9700002670288
4.4819103,-22.6599998474121
4.4975353,-29.4799995422363
4.5131603,-32.3800010681152
4.5287853,-31.6499996185303
4.5444103,-28.7099990844727
4.5600353,-25.2399997711182
4.5756603,-22.3500003814697
4.5912853,-20.3099994659424
4.6069103,-18.8400001525879
4.6225353,-17.7199993133545
4.6381603,-16.9899997711182
4.6537853,-17.0400009155273
4.6694103,-18.3600006103516
4.6850353,-21.1700000762939
4.7006603,-25.1499996185303
4.7162853,-29.5799999237061
4.7319103,-33.7799987792969
4.7475353,-37.3199996948242
4.7631603,-40.0400009155273
4.7787853,-41.9500007629395
4.7944103,-43.1800003051758
4.8100353,-43.7200012207031
4.8256603,-43.1699981689453
4.8412853,-40.5699996948242
4.8569103,-34.25
4.8725353,-22.1399993896484
4.8881603,-2.89000010490417
4.9037853,22.5100002288818
4.9194103,50.2099990844727
4.9350353,74.8499984741211
4.9506603,92.0599975585938
4.9662853,100.25
4.9819103,100.5
4.9975353,95.120002746582
5.0131603,86.129997253418
5.0287853,74.9700012207031
5.0444103,62.7000007629395
5.0600353,49.9000015258789
5.0756603,36.6800003051758
5.0912853,23
5.1069103,9.17000007629395
5.1225353,-3.9300000667572
5.1381603,-15.289999961853
5.1537853,-24.0599994659424
5.1694103,-29.9200000762939
5.1850353,-33.2400016784668
5.2006603,-35.0200004577637
5.2162853,-36.5400009155273
5.2319103,-38.8800010681152
5.2475353,-42.4300003051758
5.2631603,-46.8699989318848
5.2787853,-51.4300003051758
5.2944103,-55.2700004577637
5.3100353,-57.7900009155273
5.3256603,-58.8699989318848
5.3412853,-58.6699981689453
5.3569103,-57.4599990844727
5.3725353,-55.6100006103516
5.3881603,-53.7900009155273
5.4037853,-52.560001373291
5.4194103,-51.810001373291
5.4350353,-50.7299995422363
5.4506603,-48.3600006103516
5.4662853,-44.0400009155273
5.4819103,-37.4500007629395
5.4975353,-28.1000003814697
5.5131603,-14.8000001907349
5.5287853,3.72000002861023
5.5444103,27.1900005340576
5.5600353,52.7700004577637
5.5756603,75.8199996948242
5.5912853,91.9499969482422
5.6069103,98.8000030517578
5.6225353,96.6500015258789
5.6381603,87.7099990844727
5.6537853,75.0100021362305
5.6694103,61.3800010681152
5.6850353,48.5400009155273
5.7006603,36.8699989318848
5.7162853,25.9599990844727
5.7319103,15.6499996185303
5.7475353,6.30999994277954
5.7631603,-1.51999998092651
5.7787853,-7.46999979019165
5.7944103,-11.3900003433228
5.8100353,-13.4099998474121
5.8256603,-14
5.8412853,-13.8500003814697
5.8569103,-13.6300001144409
5.8725353,-13.8800001144409
5.8881603,-15.1400003433228
5.9037853,-18.0499992370605
5.9194103,-22.9500007629395
5.9350353,-29.4099998474121
5.9506603,-36.25
5.9662853,-41.8899993896484
5.9819103,-45.25
5.9975353,-46.4599990844727
6.0131603,-46.7400016784668
6.0287853,-47.4300003051758
6.0444103,-49.1599998474121
6.0600353,-51.4900016784668
6.0756603,-53.0099983215332
6.0912853,-51.7099990844727
6.1069103,-45.2099990844727
6.1225353,-31.3600006103516
6.1381603,-9.72000026702881
6.1537853,17.2099990844727
6.1694103,44.4900016784668
6.1850353,66.6900024414063
6.2006603,80.1399993896484
6.2162853,84.0800018310547
6.2319103,80.2600021362305
6.2475353,71.6900024414063
6.2631603,61.4300003051758
6.2787853,51.6599998474121
6.2944103,43.1300010681152
6.3100353,35.189998626709
6.3256603,26.4899997711182
6.3412853,16.1399993896484
6.3569103,4.42000007629395
6.3725353,-7.1399998664856
6.3881603,-16.5499992370605
6.4037853,-22.3299999237061
6.4194103,-24.2800006866455
6.4350353,-23.5699996948242
6.4506603,-22.1000003814697
6.4662853,-21.5400009155273
6.4819103,-22.7399997711182
6.4975353,-25.6700000762939
6.5131603,-29.8999996185303
6.5287853,-34.9700012207031
6.5444103,-40.4500007629395
6.5600353,-45.8199996948242
6.5756603,-50.4700012207031
6.5912853,-53.8400001525879
6.6069103,-55.7000007629395
6.6225353,-56.2999992370605
6.6381603,-56.1599998474121
6.6537853,-55.5
6.6694103,-54.0099983215332
6.6850353,-50.810001373291
6.7006603,-44.2400016784668
6.7162853,-31.9500007629395
6.7319103,-12.210000038147
6.7475353,14.2799997329712
6.7631603,43.5
6.7787853,69.2099990844727
6.7944103,85.9100036621094
6.8100353,91.4499969482422
6.8256603,87.3899993896484
6.8412853,77.4599990844727
6.8569103,65.5500030517578
6.8725353,54.6100006103516
6.8881603,46.2799987792969
6.9037853,41
6.9194103,38.2900009155273
6.9350353,37.2200012207031
6.9506603,36.9000015258789
6.9662853,37.0900001525879
6.9819103,38.189998626709
6.9975353,40.7099990844727
7.0131603,44.4599990844727
7.0287853,48.2900009155273
7.0444103,50.7000007629395
7.0600353,50.6100006103516
7.0756603,47.5999984741211
7.0912853,41.9300003051758
7.1069103,34.5200004577637
7.1225353,26.4699993133545
7.1381603,18.3299999237061
7.1537853,9.96000003814697
7.1694103,0.899999976158142
7.1850353,-8.92000007629395
7.2006603,-19.0499992370605
7.2162853,-28.5900001525879
7.2319103,-36.9099998474121
7.2475353,-43.7200012207031
7.2631603,-48.5400009155273
7.2787853,-49.7999992370605
7.2944103,-45.2599983215332
7.3100353,-33.6300010681152
7.3256603,-16.3799991607666
7.3412853,2.16000008583069
7.3569103,16.5699996948242
7.3725353,22.7099990844727
7.3881603,19.4200000762939
7.4037853,8.72999954223633
7.4194103,-5.34000015258789
7.4350353,-18.7900009155273
7.4506603,-29.2800006866455
7.4662853,-36.8199996948242
7.4819103,-43.0699996948242
7.4975353,-49.8499984741211
7.5131603,-57.6300010681152
7.5287853,-65.2399978637695
7.5444103,-70.6699981689453
7.5600353,-72.5599975585938
7.5756603,-71.3199996948242
7.5912853,-68.7699966430664
7.6069103,-66.8399963378906
7.6225353,-66.379997253418
7.6381603,-66.9499969482422
7.6537853,-67.2799987792969
7.6694103,-66.2600021362305
7.6850353,-63.7000007629395
7.7006603,-60.4900016784668
7.7162853,-58.1500015258789
7.7319103,-57.8499984741211
7.7475353,-59.6399993896484
7.7631603,-62.3300018310547
7.7787853,-64.1399993896484
7.7944103,-63.4099998474121
7.8100353,-58.9900016784668
7.8256603,-49.9599990844727
7.8412853,-35.2900009155273
7.8569103,-14.2399997711182
7.8725353,12.1400003433228
7.8881603,40.189998626709
7.9037853,64.8000030517578
7.9194103,82
7.9350353,90.6399993896484
7.9506603,92.25
7.9662853,89.870002746582
7.9819103,86.4199981689453
7.9975353,83.5599975585938
8.0131603,81.2200012207031
8.0287853,78.1500015258789
8.0444103,73.25
8.0600353,66.4800033569336
8.0756603,58.7999992370605
8.0912853,51.5800018310547
8.1069103,46.0699996948242
8.1225353,42.9900016784668
8.1381603,42.0900001525879
8.1537853,41.9799995422363
8.1694103,40.7999992370605
8.1850353,37.2200012207031
8.2006603,30.8299999237061
8.2162853,21.9400005340576
8.2319103,11.5200004577637
8.2475353,1.12000000476837
8.2631603,-7.6100001335144
8.2787853,-13.7700004577637
8.2944103,-17.4699993133545
8.3100353,-19.6399993896484
8.3256603,-21.5200004577637
8.3412853,-24.1599998474121
8.3569103,-27.9200000762939
8.3725353,-31.7900009155273
8.3881603,-33.0999984741211
8.4037853,-28.4200000762939
8.4194103,-15.8699998855591
8.4350353,3.02999997138977
8.4506603,23.6399993896484
8.4662853,40.310001373291
8.4819103,49.0299987792969
8.4975353,48.7400016784668
8.5131603,41.1399993896484
8.5287853,29.3299999237061
8.5444103,16.2800006866455
8.5600353,3.85999989509583
8.5756603,-7.21000003814697
8.5912853,-16.8700008392334
8.6069103,-25.1100006103516
8.6225353,-31.6200008392334
8.6381603,-36
8.6537853,-38
8.6694103,-37.4599990844727
8.6850353,-34.4300003051758
8.7006603,-29.5100002288818
8.7162853,-23.9500007629395
8.7319103,-18.9099998474121
8.7475353,-14.6599998474121
8.7631603,-10.6099996566772
8.7787853,-6.17999982833862
8.7944103,-1.3400000333786
8.8100353,3.70000004768372
8.8256603,8.82999992370605
8.8412853,13.7299995422363
8.8569103,17.8700008392334
8.8725353,20.75
8.8881603,22.1200008392334
8.9037853,21.9699993133545
8.9194103,20.4599990844727
8.9350353,18.4400005340576
8.9506603,17.9099998474121
8.9662853,21.5699996948242
8.9819103,31.0400009155273
8.9975353,44.9900016784668
9.0131603,59.2599983215332
9.0287853,68.8199996948242
9.0444103,70.4000015258789
9.0600353,63.8300018310547
9.0756603,51.5699996948242
9.0912853,37.060001373291
9.1069103,22.9699993133545
9.1225353,10.5
9.1381603,-0.180000007152557
9.1537853,-9.38000011444092
9.1694103,-17.4799995422363
9.1850353,-24.7299995422363
9.2006603,-30.9200000762939
9.2162853,-35.3800010681152
9.2319103,-37.560001373291
9.2475353,-37.5
9.2631603,-35.810001373291
9.2787853,-33.4500007629395
9.2944103,-31.2700004577637
9.3100353,-29.7700004577637
9.3256603,-29.0599994659424
9.3412853,-29.0499992370605
9.3569103,-29.6700000762939
9.3725353,-30.7999992370605
9.3881603,-32.1599998474121
9.4037853,-33.5499992370605
9.4194103,-34.9000015258789
9.4350353,-36.2700004577637
9.4506603,-37.7799987792969
9.4662853,-39.5099983215332
9.4819103,-41.1699981689453
9.4975353,-41.6800003051758
9.5131603,-38.939998626709
9.5287853,-30.5200004577637
9.5444103,-15.4300003051758
9.5600353,4.30999994277954
9.5756603,24.1000003814697
9.5912853,38.939998626709
9.6069103,46
9.6225353,45.5299987792969
9.6381603,39.8699989318848
9.6537853,31.8700008392334
9.6694103,23.6800003051758
9.6850353,16.2299995422363
9.7006603,9.44999980926514
9.7162853,2.98000001907349
9.7319103,-3.07999992370605
9.7475353,-8.15999984741211
9.7631603,-11.6099996566772
9.7787853,-13.1899995803833
9.7944103,-13.1300001144409
9.8100353,-11.7399997711182
9.8256603,-9.10000038146973
9.8412853,-5.21999979019165
9.8569103,-0.46000000834465
9.8725353,4.32000017166138
9.8881603,8.27999973297119
9.9037853,11.1099996566772
9.9194103,13.1300001144409
9.9350353,14.9700002670288
9.9506603,17.2700004577637
9.9662853,20.6000003814697
9.9819103,25.2199993133545
9.9975353,30.6800003051758
10.0131603,35.8899993896484
10.0287853,39.8899993896484
10.0444103,42.5400009155273
10.0600353,44.3400001525879
10.0756603,46.0400009155273
10.0912853,48.810001373291
10.1069103,54.2799987792969
10.1225353,63.5800018310547
10.1381603,75.9700012207031
10.1537853,88.4000015258789
10.1694103,96.6999969482422
10.1850353,97.5199966430664
10.2006603,89.9199981689453
10.2162853,75.5199966430664
10.2319103,57.2599983215332
10.2475353,37.8699989318848
10.2631603,19.1200008392334
10.2787853,1.75
10.2944103,-14.3900003433228
10.3100353,-30.1000003814697
10.3256603,-45.8800010681152
10.3412853,-61.2299995422363
10.3569103,-74.7699966430664
10.3725353,-84.9599990844727
10.3881603,-91.0599975585938
10.4037853,-93.5999984741211
10.4194103,-94.0299987792969
10.4350353,-93.6900024414063
10.4506603,-93.0999984741211
10.4662853,-92.3099975585938
10.4819103,-91.5500030517578
10.4975353,-91.3899993896484
10.5131603,-92.3199996948242
10.5287853,-94.0899963378906
10.5444103,-95.6500015258789
10.5600353,-95.6699981689453
10.5756603,-93.3000030517578
10.5912853,-88.6100006103516
10.6069103,-82.4899978637695
10.6225353,-76.0800018310547
10.6381603,-70.3000030517578
10.6537853,-65.620002746582
10.6694103,-61.9199981689453
10.6850353,-57.9300003051758
10.7006603,-51.0200004577637
10.7162853,-38.5200004577637
10.7319103,-20.0100002288818
10.7475353,1.64999997615814
10.7631603,21.6399993896484
10.7787853,35.5499992370605
10.7944103,41.1699981689453
10.8100353,38.8800010681152
10.8256603,31.1200008392334
10.8412853,21.2800006866455
10.8569103,12.2600002288818
10.8725353,5.42999982833862
10.8881603,0.439999997615814
10.9037853,-3.84999990463257
10.9194103,-8.22000026702881
10.9350353,-12.5
10.9506603,-15.8299999237061
10.9662853,-17.1499996185303
10.9819103,-15.7600002288818
10.9975353,-11.8900003433228
11.0131603,-6.80999994277954
11.0287853,-2.36999988555908
11.0444103,-0.209999993443489
11.0600353,-0.889999985694885
11.0756603,-3.64000010490417
11.0912853,-6.8600001335144
11.1069103,-9.10000038146973
11.1225353,-9.71000003814697
11.1381603,-8.81999969482422
11.1537853,-7.01000022888184
11.1694103,-4.96999979019165
11.1850353,-3.36999988555908
11.2006603,-2.55999994277954
11.2162853,-2.49000000953674
11.2319103,-2.78999996185303
11.2475353,-2.91000008583069
11.2631603,-2.02999997138977
11.2787853,1.17999994754791
11.2944103,8.38000011444092
11.3100353,20.6299991607666
11.3256603,37.3600006103516
11.3412853,55.8400001525879
11.3569103,71.8199996948242
11.3725353,81.3399963378906
11.3881603,82.7399978637695
11.4037853,77.1900024414063
11.4194103,67.6900024414063
11.4350353,57.4099998474121
11.4506603,48.4700012207031
11.4662853,41.3600006103516
11.4819103,35.3800010681152
11.4975353,29.5400009155273
11.5131603,23.4899997711182
11.5287853,17.6900005340576
11.5444103,12.9399995803833
11.5600353,9.68000030517578
11.5756603,7.59000015258789
