Time(s),Value(%)
0.0912853,3.63000011444092
0.1069103,14.2700004577637
0.1225353,27.8400001525879
0.1381603,41.5800018310547
0.1537853,52.2200012207031
0.1694103,57.2599983215332
0.1850353,55.8899993896484
0.2006603,49.3600006103516
0.2162853,40.3199996948242
0.2319103,31.4500007629395
0.2475353,24.3400001525879
0.2631603,19.2299995422363
0.2787853,15.5299997329712
0.2944103,12.3199996948242
0.3100353,8.81999969482422
0.3256603,4.94000005722046
0.3412853,1.19000005722046
0.3569103,-1.94000005722046
0.3725353,-4.23999977111816
0.3881603,-5.57000017166138
0.4037853,-5.80000019073486
0.4194103,-5.32999992370605
0.4350353,-5.17000007629395
0.4506603,-6.44000005722046
0.4662853,-9.5600004196167
0.4819103,-14.0799999237061
0.4975353,-18.9699993133545
0.5131603,-23.1700000762939
0.5287853,-25.8799991607666
0.5444103,-26.7800006866455
0.5600353,-26.2199993133545
0.5756603,-24.8799991607666
0.5912853,-23.2600002288818
0.6069103,-21.4899997711182
0.6225353,-19.3899993896484
0.6381603,-16.5799999237061
0.6537853,-12.4200000762939
0.6694103,-6.21999979019165
0.6850353,2.69000005722046
0.7006603,14.7299995422363
0.7162853,29.4599990844727
0.7319103,44.9799995422363
0.7475353,58.2900009155273
0.7631603,66.4100036621094
0.7787853,67.9199981689453
0.7944103,63.4500007629395
0.8100353,55.2599983215332
0.8256603,46.0800018310547
0.8412853,38.0999984741211
0.8569103,32.2900009155273
0.8725353,28.1599998474121
0.8881603,24.2900009155273
0.9037853,19.4500007629395
0.9194103,13.539999961853
0.9350353,7.71999979019165
0.9506603,3.47000002861023
0.9662853,1.24000000953674
0.9819103,0.119999997317791
0.9975353,-1.37000000476837
1.0131603,-4.19999980926514
1.0287853,-8.35999965667725
1.0444103,-13.1599998474121
1.0600353,-17.8700008392334
1.0756603,-22.2299995422363
1.0912853,-26.5
1.1069103,-30.6399993896484
1.1225353,-33.8300018310547
1.1381603,-35.0200004577637
1.1537853,-33.8699989318848
1.1694103,-31.0599994659424
1.1850353,-27.75
1.2006603,-24.9099998474121
1.2162853,-23.1100006103516
1.2319103,-22.4599990844727
1.2475353,-22.2000007629395
1.2631603,-20.3199996948242
1.2787853,-14.1599998474121
1.2944103,-2.24000000953674
1.3100353,14.1700000762939
1.3256603,31.3400001525879
1.3412853,45.1500015258789
1.3569103,53.1300010681152
1.3725353,55.0499992370605
1.3881603,52.2000007629395
1.4037853,46.310001373291
1.4194103,38.9300003051758
1.4350353,31.2299995422363
1.4506603,23.7900009155273
1.4662853,16.5300006866455
1.4819103,8.93000030517578
1.4975353,0.379999995231628
1.5131603,-9.39000034332275
1.5287853,-20.0100002288818
1.5444103,-30.3500003814697
1.5600353,-39.0499992370605
1.5756603,-45.1399993896484
1.5912853,-48.2900009155273
1.6069103,-48.6599998474121
1.6225353,-46.6599998474121
1.6381603,-42.8300018310547
1.6537853,-37.8400001525879
1.6694103,-32.4799995422363
1.6850353,-27.2999992370605
1.7006603,-22.2999992370605
1.7162853,-17.0799999237061
1.7319103,-11.3699998855591
1.7475353,-5.51999998092651
1.7631603,-0.259999990463257
1.7787853,3.83999991416931
1.7944103,7.01000022888184
1.8100353,10.1599998474121
1.8256603,14.5900001525879
1.8412853,21.8600006103516
1.8569103,33.6100006103516
1.8725353,50.75
1.8881603,72.370002746582
1.9037853,95.6600036621094
1.9194103,117
1.9350353,133.529998779297
1.9506603,144.110000610352
1.9662853,149.270004272461
1.9819103,150.429992675781
1.9975353,148.720001220703
2.0131603,144.440002441406
2.0287853,137.279998779297
2.0444103,126.970001220703
2.0600353,113.440002441406
2.0756603,96.7099990844727
2.0912853,77
2.1069103,54.9500007629395
2.1225353,31.6000003814697
2.1381603,8.0600004196167
2.1537853,-14.8999996185303
2.1694103,-37.0299987792969
2.1850353,-58.1399993896484
2.2006603,-77.9899978637695
2.2162853,-96.370002746582
2.2319103,-112.870002746582
2.2475353,-126.709999084473
2.2631603,-137.149993896484
2.2787853,-144.020004272461
2.2944103,-147.869995117188
2.3100353,-149.630004882813
2.3256603,-150.050003051758
2.3412853,-149.649993896484
2.3569103,-148.820007324219
2.3725353,-147.919998168945
2.3881603,-147.300003051758
2.4037853,-146.990005493164
2.4194103,-146.259994506836
2.4350353,-143.199996948242
2.4506603,-135.110000610352
2.4662853,-120.050003051758
2.4819103,-98.5999984741211
2.4975353,-74.1999969482422
2.5131603,-51.560001373291
2.5287853,-34.439998626709
2.5444103,-24.2800006866455
2.5600353,-20.2399997711182
2.5756603,-19.9799995422363
2.5912853,-20.8899993896484
2.6069103,-21.0599994659424
2.6225353,-19.6599998474121
2.6381603,-16.9099998474121
2.6537853,-13.7600002288818
2.6694103,-11.4200000762939
2.6850353,-10.6300001144409
2.7006603,-11.3699998855591
2.7162853,-12.9700002670288
2.7319103,-14.5900001525879
2.7475353,-15.3400001525879
2.7631603,-14.5699996948242
2.7787853,-12.2700004577637
2.7944103,-9.19999980926514
2.8100353,-6.59000015258789
2.8256603,-5.3899998664856
2.8412853,-5.82999992370605
2.8569103,-7.46000003814697
2.8725353,-9.60000038146973
2.8881603,-12.1199998855591
2.9037853,-15.75
2.9194103,-21.6399993896484
2.9350353,-30.3700008392334
2.9506603,-41.3499984741211
2.9662853,-52.9099998474121
2.9819103,-63.2200012207031
2.9975353,-70.8600006103516
3.0131603,-74.620002746582
3.0287853,-72.8199996948242
3.0444103,-63.3600006103516
3.0600353,-44.9500007629395
3.0756603,-18.6200008392334
3.0912853,11.8999996185303
3.1069103,41.4000015258789
3.1225353,65.3899993896484
3.1381603,81.629997253418
3.1537853,90.4000015258789
3.1694103,93.4300003051758
3.1850353,92.620002746582
3.2006603,89.0999984741211
3.2162853,83.1600036621094
3.2319103,74.9700012207031
3.2475353,65.3000030517578
3.2631603,55.4700012207031
3.2787853,47.0499992370605
3.2944103,41.3300018310547
3.3100353,38.810001373291
3.3256603,38.8199996948242
3.3412853,39.8600006103516
3.3569103,40.6100006103516
3.3725353,40.7799987792969
3.3881603,40.8899993896484
3.4037853,41.3800010681152
3.4194103,41.9500007629395
3.4350353,41.9000015258789
3.4506603,40.7700004577637
3.4662853,38.75
3.4819103,36.25
3.4975353,33.5200004577637
3.5131603,30.5599994659424
3.5287853,27.3600006103516
3.5444103,24.0799999237061
3.5600353,20.9300003051758
3.5756603,18.2600002288818
3.5912853,16.8799991607666
3.6069103,18.4200000762939
3.6225353,25.1700000762939
3.6381603,39.060001373291
3.6537853,60.0900001525879
3.6694103,85.379997253418
3.6850353,109.76000213623
3.7006603,127.819999694824
3.7162853,136.289993286133
3.7319103,135.080001831055
3.7475353,126.629997253418
3.7631603,114.319999694824
3.7787853,100.900001525879
3.7944103,87.8300018310547
3.8100353,75.2099990844727
3.8256603,62.3400001525879
3.8412853,48.7200012207031
3.8569103,34.7799987792969
3.8725353,21.6599998474121
3.8881603,10.5
3.9037853,1.85000002384186
3.9194103,-4.46999979019165
3.9350353,-9.18000030517578
3.9506603,-13.0100002288818
3.9662853,-16.4099998474121
3.9819103,-19.7399997711182
3.9975353,-23.5200004577637
4.0131603,-28.0900001525879
4.0287853,-33.2599983215332
4.0444103,-38.5400009155273
4.0600353,-43.5400009155273
4.0756603,-48.1100006103516
4.0912853,-52.060001373291
4.1069103,-55.1500015258789
4.1225353,-57.4099998474121
4.1381603,-59.1599998474121
4.1537853,-60.8600006103516
4.1694103,-62.9099998474121
4.1850353,-65.1500015258789
4.2006603,-66.4300003051758
4.2162853,-64.8099975585938
4.2319103,-58.1300010681152
4.2475353,-44.9199981689453
4.2631603,-25.5300006866455
4.2787853,-2.67000007629395
4.2944103,19.4099998474121
4.3100353,36.7799987792969
4.3256603,47.1800003051758
4.3412853,50.5099983215332
4.3569103,48.2599983215332
4.3725353,42.4900016784668
4.3881603,34.8899993896484
4.4037853,26.4799995422363
4.4194103,17.5799999237061
4.4350353,8.06999969482422
4.4506603,-2.25
4.4662853,-12.9700002670288
4.4819103,-22.6599998474121
4.4975353,-29.4799995422363
4.5131603,-32.3800010681152
4.5287853,-31.6499996185303
4.5444103,-28.7099990844727
4.5600353,-25.2399997711182
4.5756603,-22.3500003814697
4.5912853,-20.3099994659424
4.6069103,-18.8400001525879
4.6225353,-17.7199993133545
4.6381603,-16.9899997711182
4.6537853,-17.0400009155273
4.6694103,-18.3600006103516
4.6850353,-21.1700000762939
4.7006603,-25.1499996185303
4.7162853,-29.5799999237061
4.7319103,-33.7799987792969
4.7475353,-37.3199996948242
4.7631603,-40.0400009155273
4.7787853,-41.9500007629395
4.7944103,-43.1800003051758
4.8100353,-43.7200012207031
4.8256603,-43.1699981689453
4.8412853,-40.5699996948242
4.8569103,-34.25
4.8725353,-22.1399993896484
4.8881603,-2.89000010490417
4.9037853,22.5100002288818
4.9194103,50.2099990844727
4.9350353,74.8499984741211
4.9506603,92.0599975585938
4.9662853,100.25
4.9819103,100.5
4.9975353,95.120002746582
5.0131603,86.129997253418
5.0287853,74.9700012207031
5.0444103,62.7000007629395
5.0600353,49.9000015258789
5.0756603,36.6800003051758
5.0912853,23
5.1069103,9.17000007629395
5.1225353,-3.9300000667572
5.1381603,-15.289999961853
5.1537853,-24.0599994659424
5.1694103,-29.9200000762939
5.1850353,-33.2400016784668
5.2006603,-35.0200004577637
5.2162853,-36.5400009155273
5.2319103,-38.8800010681152
5.2475353,-42.4300003051758
5.2631603,-46.8699989318848
5.2787853,-51.4300003051758
5.2944103,-55.2700004577637
5.3100353,-57.7900009155273
5.3256603,-58.8699989318848
5.3412853,-58.6699981689453
5.3569103,-57.4599990844727
5.3725353,-55.6100006103516
5.3881603,-53.7900009155273
5.4037853,-52.560001373291
5.4194103,-51.810001373291
5.4350353,-50.7299995422363
5.4506603,-48.3600006103516
5.4662853,-44.0400009155273
5.4819103,-37.4500007629395
5.4975353,-28.1000003814697
5.5131603,-14.8000001907349
5.5287853,3.72000002861023
5.5444103,27.1900005340576
5.5600353,52.7700004577637
5.5756603,75.8199996948242
5.5912853,91.9499969482422
5.6069103,98.8000030517578
5.6225353,96.6500015258789
5.6381603,87.7099990844727
5.6537853,75.0100021362305
5.6694103,61.3800010681152
5.6850353,48.5400009155273
5.7006603,36.8699989318848
5.7162853,25.9599990844727
5.7319103,15.6499996185303
5.7475353,6.30999994277954
5.7631603,-1.51999998092651
5.7787853,-7.46999979019165
5.7944103,-11.3900003433228
5.8100353,-13.4099998474121
5.8256603,-14
5.8412853,-13.8500003814697
5.8569103,-13.6300001144409
5.8725353,-13.8800001144409
5.8881603,-15.1400003433228
5.9037853,-18.0499992370605
5.9194103,-22.9500007629395
5.9350353,-29.4099998474121
5.9506603,-36.25
5.9662853,-41.8899993896484
5.9819103,-45.25
5.9975353,-46.4599990844727
6.0131603,-46.7400016784668
6.0287853,-47.4300003051758
6.0444103,-49.1599998474121
6.0600353,-51.4900016784668
6.0756603,-53.0099983215332
6.0912853,-51.7099990844727
6.1069103,-45.2099990844727
6.1225353,-31.3600006103516
6.1381603,-9.72000026702881
6.1537853,17.2099990844727
6.1694103,44.4900016784668
6.1850353,66.6900024414063
6.2006603,80.1399993896484
6.2162853,84.0800018310547
6.2319103,80.2600021362305
6.2475353,71.6900024414063
6.2631603,61.4300003051758
6.2787853,51.6599998474121
6.2944103,43.1300010681152
6.3100353,35.189998626709
6.3256603,26.4899997711182
6.3412853,16.1399993896484
6.3569103,4.42000007629395
6.3725353,-7.1399998664856
6.3881603,-16.5499992370605
6.4037853,-22.3299999237061
6.4194103,-24.2800006866455
6.4350353,-23.5699996948242
6.4506603,-22.1000003814697
6.4662853,-21.5400009155273
6.4819103,-22.7399997711182
6.4975353,-25.6700000762939
6.5131603,-29.8999996185303
6.5287853,-34.9700012207031
6.5444103,-40.4500007629395
6.5600353,-45.8199996948242
6.5756603,-50.4700012207031
6.5912853,-53.8400001525879
6.6069103,-55.7000007629395
6.6225353,-56.2999992370605
6.6381603,-56.1599998474121
6.6537853,-55.5
6.6694103,-54.0099983215332
6.6850353,-50.810001373291
6.7006603,-44.2400016784668
6.7162853,-31.9500007629395
6.7319103,-12.210000038147
6.7475353,14.2799997329712
6.7631603,43.5
6.7787853,69.2099990844727
6.7944103,85.9100036621094
6.8100353,91.4499969482422
6.8256603,87.3899993896484
6.8412853,77.4599990844727
6.8569103,65.5500030517578
6.8725353,54.6100006103516
6.8881603,46.2799987792969
6.9037853,41
6.9194103,38.2900009155273
6.9350353,37.2200012207031
6.9506603,36.9000015258789
6.9662853,37.0900001525879
6.9819103,38.189998626709
6.9975353,40.7099990844727
7.0131603,44.4599990844727
7.0287853,48.2900009155273
7.0444103,50.7000007629395
7.0600353,50.6100006103516
7.0756603,47.5999984741211
7.0912853,41.9300003051758
7.1069103,34.5200004577637
7.1225353,26.4699993133545
7.1381603,18.3299999237061
7.1537853,9.96000003814697
7.1694103,0.899999976158142
7.1850353,-8.92000007629395
7.2006603,-19.0499992370605
7.2162853,-28.5900001525879
7.2319103,-36.9099998474121
7.2475353,-43.7200012207031
7.2631603,-48.5400009155273
7.2787853,-49.7999992370605
7.2944103,-45.2599983215332
7.3100353,-33.6300010681152
7.3256603,-16.3799991607666
7.3412853,2.16000008583069
7.3569103,16.5699996948242
7.3725353,22.7099990844727
7.3881603,19.4200000762939
7.4037853,8.72999954223633
7.4194103,-5.34000015258789
7.4350353,-18.7900009155273
7.4506603,-29.2800006866455
7.4662853,-36.8199996948242
7.4819103,-43.0699996948242
7.4975353,-49.8499984741211
7.5131603,-57.6300010681152
7.5287853,-65.2399978637695
7.5444103,-70.6699981689453
7.5600353,-72.5599975585938
7.5756603,-71.3199996948242
7.5912853,-68.7699966430664
7.6069103,-66.8399963378906
7.6225353,-66.379997253418
7.6381603,-66.9499969482422
7.6537853,-67.2799987792969
7.6694103,-66.2600021362305
7.6850353,-63.7000007629395
7.7006603,-60.4900016784668
7.7162853,-58.1500015258789
7.7319103,-57.8499984741211
7.7475353,-59.6399993896484
7.7631603,-62.3300018310547
7.7787853,-64.1399993896484
7.7944103,-63.4099998474121
7.8100353,-58.9900016784668
7.8256603,-49.9599990844727
7.8412853,-35.2900009155273
7.8569103,-14.2399997711182
7.8725353,12.1400003433228
7.8881603,40.189998626709
7.9037853,64.8000030517578
7.9194103,82
7.9350353,90.6399993896484
7.9506603,92.25
7.9662853,89.870002746582
7.9819103,86.4199981689453
7.9975353,83.5599975585938
8.0131603,81.2200012207031
8.0287853,78.1500015258789
8.0444103,73.25
8.0600353,66.4800033569336
8.0756603,58.7999992370605
8.0912853,51.5800018310547
8.1069103,46.0699996948242
8.1225353,42.9900016784668
8.1381603,42.0900001525879
8.1537853,41.9799995422363
8.1694103,40.7999992370605
8.1850353,37.2200012207031
8.2006603,30.8299999237061
8.2162853,21.9400005340576
8.2319103,11.5200004577637
8.2475353,1.12000000476837
8.2631603,-7.6100001335144
8.2787853,-13.7700004577637
8.2944103,-17.4699993133545
8.3100353,-19.6399993896484
8.3256603,-21.5200004577637
8.3412853,-24.1599998474121
8.3569103,-27.9200000762939
8.3725353,-31.7900009155273
8.3881603,-33.0999984741211
8.4037853,-28.4200000762939
8.4194103,-15.8699998855591
8.4350353,3.02999997138977
8.4506603,23.6399993896484
8.4662853,40.310001373291
8.4819103,49.0299987792969
8.4975353,48.7400016784668
8.5131603,41.1399993896484
8.5287853,29.3299999237061
8.5444103,16.2800006866455
8.5600353,3.85999989509583
8.5756603,-7.21000003814697
8.5912853,-16.8700008392334
8.6069103,-25.1100006103516
8.6225353,-31.6200008392334
8.6381603,-36
8.6537853,-38
8.6694103,-37.4599990844727
8.6850353,-34.4300003051758
8.7006603,-29.5100002288818
8.7162853,-23.9500007629395
8.7319103,-18.9099998474121
8.7475353,-14.6599998474121
8.7631603,-10.6099996566772
8.7787853,-6.17999982833862
8.7944103,-1.3400000333786
8.8100353,3.70000004768372
8.8256603,8.82999992370605
8.8412853,13.7299995422363
8.8569103,17.8700008392334
8.8725353,20.75
8.8881603,22.1200008392334
8.9037853,21.9699993133545
8.9194103,20.4599990844727
8.9350353,18.4400005340576
8.9506603,17.9099998474121
8.9662853,21.5699996948242
8.9819103,31.0400009155273
8.9975353,44.9900016784668
9.0131603,59.2599983215332
9.0287853,68.8199996948242
9.0444103,70.4000015258789
9.0600353,63.8300018310547
9.0756603,51.5699996948242
9.0912853,37.060001373291
9.1069103,22.9699993133545
9.1225353,10.5
9.1381603,-0.180000007152557
9.1537853,-9.38000011444092
9.1694103,-17.4799995422363
9.1850353,-24.7299995422363
9.2006603,-30.9200000762939
9.2162853,-35.3800010681152
9.2319103,-37.560001373291
9.2475353,-37.5
9.2631603,-35.810001373291
9.2787853,-33.4500007629395
9.2944103,-31.2700004577637
9.3100353,-29.7700004577637
9.3256603,-29.0599994659424
9.3412853,-29.0499992370605
9.3569103,-29.6700000762939
9.3725353,-30.7999992370605
9.3881603,-32.1599998474121
9.4037853,-33.5499992370605
9.4194103,-34.9000015258789
9.4350353,-36.2700004577637
9.4506603,-37.7799987792969
9.4662853,-39.5099983215332
9.4819103,-41.1699981689453
9.4975353,-41.6800003051758
9.5131603,-38.939998626709
9.5287853,-30.5200004577637
9.5444103,-15.4300003051758
9.5600353,4.30999994277954
9.5756603,24.1000003814697
9.5912853,38.939998626709
9.6069103,46
9.6225353,45.5299987792969
9.6381603,39.8699989318848
9.6537853,31.8700008392334
9.6694103,23.6800003051758
9.6850353,16.2299995422363
9.7006603,9.44999980926514
9.7162853,2.98000001907349
9.7319103,-3.07999992370605
9.7475353,-8.15999984741211
9.7631603,-11.6099996566772
9.7787853,-13.1899995803833
9.7944103,-13.1300001144409
9.8100353,-11.7399997711182
9.8256603,-9.10000038146973
9.8412853,-5.21999979019165
9.8569103,-0.46000000834465
9.8725353,4.32000017166138
9.8881603,8.27999973297119
9.9037853,11.1099996566772
9.9194103,13.1300001144409
9.9350353,14.9700002670288
9.9506603,17.2700004577637
9.9662853,20.6000003814697
9.9819103,25.2199993133545
9.9975353,30.6800003051758
10.0131603,35.8899993896484
10.0287853,39.8899993896484
10.0444103,42.5400009155273
10.0600353,44.3400001525879
10.0756603,46.0400009155273
10.0912853,48.810001373291
10.1069103,54.2799987792969
10.1225353,63.5800018310547
10.1381603,75.9700012207031
10.1537853,88.4000015258789
10.1694103,96.6999969482422
10.1850353,97.5199966430664
10.2006603,89.9199981689453
10.2162853,75.5199966430664
10.2319103,57.2599983215332
10.2475353,37.8699989318848
10.2631603,19.1200008392334
10.2787853,1.75
10.2944103,-14.3900003433228
10.3100353,-30.1000003814697
10.3256603,-45.8800010681152
10.3412853,-61.2299995422363
10.3569103,-74.7699966430664
10.3725353,-84.9599990844727
10.3881603,-91.0599975585938
10.4037853,-93.5999984741211
10.4194103,-94.0299987792969
10.4350353,-93.6900024414063
10.4506603,-93.0999984741211
10.4662853,-92.3099975585938
10.4819103,-91.5500030517578
10.4975353,-91.3899993896484
10.5131603,-92.3199996948242
10.5287853,-94.0899963378906
10.5444103,-95.6500015258789
10.5600353,-95.6699981689453
10.5756603,-93.3000030517578
10.5912853,-88.6100006103516
10.6069103,-82.4899978637695
10.6225353,-76.0800018310547
10.6381603,-70.3000030517578
10.6537853,-65.620002746582
10.6694103,-61.9199981689453
10.6850353,-57.9300003051758
10.7006603,-51.0200004577637
10.7162853,-38.5200004577637
10.7319103,-20.0100002288818
10.7475353,1.64999997615814
10.7631603,21.6399993896484
10.7787853,35.5499992370605
10.7944103,41.1699981689453
10.8100353,38.8800010681152
10.8256603,31.1200008392334
10.8412853,21.2800006866455
10.8569103,12.2600002288818
10.8725353,5.42999982833862
10.8881603,0.439999997615814
10.9037853,-3.84999990463257
10.9194103,-8.22000026702881
10.9350353,-12.5
10.9506603,-15.8299999237061
10.9662853,-17.1499996185303
10.9819103,-15.7600002288818
10.9975353,-11.8900003433228
11.0131603,-6.80999994277954
11.0287853,-2.36999988555908
11.0444103,-0.209999993443489
11.0600353,-0.889999985694885
11.0756603,-3.64000010490417
11.0912853,-6.8600001335144
11.1069103,-9.10000038146973
11.1225353,-9.71000003814697
11.1381603,-8.81999969482422
11.1537853,-7.01000022888184
11.1694103,-4.96999979019165
11.1850353,-3.36999988555908
11.2006603,-2.55999994277954
11.2162853,-2.49000000953674
11.2319103,-2.78999996185303
11.2475353,-2.91000008583069
11.2631603,-2.02999997138977
11.2787853,1.17999994754791
11.2944103,8.38000011444092
11.3100353,20.6299991607666
11.3256603,37.3600006103516
11.3412853,55.8400001525879
11.3569103,71.8199996948242
11.3725353,81.3399963378906
11.3881603,82.7399978637695
11.4037853,77.1900024414063
11.4194103,67.6900024414063
11.4350353,57.4099998474121
11.4506603,48.4700012207031
11.4662853,41.3600006103516
11.4819103,35.3800010681152
11.4975353,29.5400009155273
11.5131603,23.4899997711182
11.5287853,17.6900005340576
11.5444103,12.9399995803833
11.5600353,9.68000030517578
11.5756603,7.59000015258789
11.5912853,5.98000001907349
11.6069103,4.48999977111816
11.6225353,3.39000010490417
11.6381603,3.05999994277954
11.6537853,3.41000008583069
11.6694103,3.89000010490417
11.6850353,3.99000000953674
11.7006603,3.44000005722046
11.7162853,2.34999990463257
11.7319103,1.11000001430511
11.7475353,0.109999999403954
11.7631603,-0.360000014305115
11.7787853,-0.310000002384186
11.7944103,-0.0299999993294477
11.8100353,0
11.8256603,-0.519999980926514
11.8412853,-1.5
11.8569103,-2.5
11.8725353,-3.03999996185303
11.8881603,-2.36999988555908
11.9037853,1.10000002384186
11.9194103,9.60999965667725
11.9350353,24.3799991607666
11.9506603,43.9199981689453
11.9662853,63.9199981689453
11.9819103,79.1800003051758
11.9975353,86.1500015258789
12.0131603,84.370002746582
12.0287853,76.1100006103516
12.0444103,64.7200012207031
12.0600353,52.9300003051758
12.0756603,42.0800018310547
12.0912853,32.25
12.1069103,22.9699993133545
12.1225353,13.9899997711182
12.1381603,5.82999992370605
12.1537853,-0.409999996423721
12.1694103,-3.96000003814697
12.1850353,-4.98999977111816
12.2006603,-4.44000005722046
12.2162853,-3.36999988555908
12.2319103,-2.51999998092651
12.2475353,-2.1800000667572
12.2631603,-2.39000010490417
12.2787853,-3.05999994277954
12.2944103,-4
12.3100353,-4.94000005722046
12.3256603,-5.67999982833862
12.3412853,-6.1399998664856
12.3569103,-6.44000005722046
12.3725353,-6.96999979019165
12.3881603,-8.18000030517578
12.4037853,-10.1700000762939
12.4194103,-12.6599998474121
12.4350353,-15.3699998855591
12.4506603,-18.3199996948242
12.4662853,-21.4400005340576
12.4819103,-24.1000003814697
12.4975353,-24.7199993133545
12.5131603,-21.1499996185303
12.5287853,-11.8999996185303
12.5444103,2.3199999332428
12.5600353,18.1000003814697
12.5756603,30.4099998474121
12.5912853,35.0299987792969
12.6069103,30.6800003051758
12.6225353,19.25
12.6381603,4.40000009536743
12.6537853,-10.2799997329712
12.6694103,-22.5
12.6850353,-31.1700000762939
12.7006603,-36
12.7162853,-37.0999984741211
12.7319103,-34.7700004577637
12.7475353,-29.2900009155273
12.7631603,-21.0400009155273
12.7787853,-10.8100004196167
12.7944103,0.0299999993294477
12.8100353,10.0600004196167
12.8256603,18.1599998474121
12.8412853,24.0499992370605
12.8569103,28.5300006866455
12.8725353,33.2599983215332
12.8881603,39.5200004577637
12.9037853,47.1100006103516
12.9194103,54.5499992370605
12.9350353,60.1199989318848
12.9506603,62.6399993896484
12.9662853,61.5800018310547
12.9819103,56.8199996948242
12.9975353,48.4300003051758
13.0131603,36.75
13.0287853,22.5499992370605
13.0444103,6.92999982833862
13.0600353,-8.86999988555908
13.0756603,-23.5300006866455
13.0912853,-35.1399993896484
13.1069103,-41.1500015258789
13.1225353,-39.9000015258789
13.1381603,-32.3499984741211
13.1537853,-22.3299999237061
13.1694103,-14.5900001525879
13.1850353,-12.460000038147
13.2006603,-16.4400005340576
13.2162853,-24.4899997711182
13.2319103,-33.310001373291
13.2475353,-39.8400001525879
13.2631603,-42.5
13.2787853,-41.6199989318848
13.2944103,-39.0099983215332
13.3100353,-36.7900009155273
13.3256603,-36.1699981689453
13.3412853,-36.7099990844727
13.3569103,-36.9700012207031
13.3725353,-35.5299987792969
13.3881603,-31.8199996948242
13.4037853,-26.1000003814697
13.4194103,-19.0699996948242
13.4350353,-11.6300001144409
13.4506603,-4.96999979019165
13.4662853,-0.519999980926514
13.4819103,0.479999989271164
13.4975353,-2.3199999332428
13.5131603,-8.22000026702881
13.5287853,-15.6400003433228
13.5444103,-22.6599998474121
13.5600353,-27.6700000762939
13.5756603,-29.8899993896484
13.5912853,-29.5
13.6069103,-27.3899993896484
13.6225353,-24.7399997711182
13.6381603,-22.7399997711182
13.6537853,-22.2299995422363
13.6694103,-23.1399993896484
13.6850353,-24.0799999237061
13.7006603,-22.5300006866455
13.7162853,-16.1200008392334
13.7319103,-4.38000011444092
13.7475353,10.2399997711182
13.7631603,23.1499996185303
13.7787853,29.5900001525879
13.7944103,26.6200008392334
13.8100353,13.9099998474121
13.8256603,-6.6100001335144
13.8412853,-31.7199993133545
13.8569103,-57.6699981689453
13.8725353,-80.9199981689453
13.8881603,-98.8199996948242
13.9037853,-110.279998779297
13.9194103,-115.889999389648
13.9350353,-117.230003356934
13.9506603,-115.779998779297
13.9662853,-112.220001220703
13.9819103,-106.470001220703
13.9975353,-98.120002746582
14.0131603,-86.9100036621094
14.0287853,-73.0800018310547
14.0444103,-57.3600006103516
14.0600353,-40.6199989318848
14.0756603,-23.7299995422363
14.0912853,-7.6399998664856
14.1069103,6.61999988555908
14.1225353,18.2299995422363
14.1381603,26.9400005340576
14.1537853,33.2000007629395
14.1694103,37.7799987792969
14.1850353,41.2900009155273
14.2006603,44.2700004577637
14.2162853,47.310001373291
14.2319103,50.7900009155273
14.2475353,54.5900001525879
14.2631603,58.3400001525879
14.2787853,61.8699989318848
14.2944103,65.6500015258789
14.3100353,70.9599990844727
14.3256603,79.879997253418
14.3412853,95.1100006103516
14.3569103,119.029998779297
14.3725353,152.220001220703
14.3881603,191.910003662109
14.4037853,232.119995117188
14.4194103,265.619995117188
14.4350353,286.660003662109
14.4506603,292.760009765625
14.4662853,284.910003662109
14.4819103,266.600006103516
14.4975353,242.160003662109
14.5131603,215.080001831055
14.5287853,186.990005493164
14.5444103,157.860000610352
14.5600353,127.449996948242
14.5756603,96.7600021362305
14.5912853,68.3600006103516
14.6069103,45.2900009155273
14.6225353,29.2999992370605
14.6381603,19.4899997711182
14.6537853,11.7799997329712
14.6694103,0.0700000002980232
14.6850353,-21.1399993896484
14.7006603,-53.5
14.7162853,-93.2600021362305
14.7319103,-133.039993286133
14.7475353,-165.779998779297
14.7631603,-188.149993896484
14.7787853,-201.169998168945
14.7944103,-208.289993286133
14.8100353,-212.559997558594
14.8256603,-215.020004272461
14.8412853,-214.919998168945
14.8569103,-211.179992675781
14.8725353,-203.580001831055
14.8881603,-192.979995727539
14.9037853,-181.039993286133
14.9194103,-169.600006103516
14.9350353,-159.669998168945
14.9506603,-150.300003051758
14.9662853,-138.610000610352
14.9819103,-121.550003051758
14.9975353,-98.129997253418
15.0131603,-70.4000015258789
15.0287853,-42.6500015258789
15.0444103,-19.6000003814697
15.0600353,-4.71999979019165
15.0756603,0.910000026226044
15.0912853,-1.20000004768372
15.1069103,-7.88000011444092
15.1225353,-15.75
15.1381603,-22.5100002288818
15.1537853,-27.5799999237061
15.1694103,-31.9200000762939
15.1850353,-37
15.2006603,-43.439998626709
15.2162853,-50.4099998474121
15.2319103,-56.2299995422363
15.2475353,-59.4099998474121
15.2631603,-59.3199996948242
15.2787853,-56.0900001525879
15.2944103,-50.3400001525879
15.3100353,-42.939998626709
15.3256603,-35.2099990844727
15.3412853,-28.8600006103516
15.3569103,-25.3199996948242
15.3725353,-24.8299999237061
15.3881603,-26.1399993896484
15.4037853,-27.1399993896484
15.4194103,-25.9599990844727
15.4350353,-21.7999992370605
15.4506603,-15.3500003814697
15.4662853,-8.25
15.4819103,-2.3199999332428
15.4975353,1.08000004291534
15.5131603,1.41999995708466
15.5287853,-0.769999980926514
15.5444103,-4.05000019073486
15.5600353,-6.73000001907349
15.5756603,-7.73000001907349
15.5912853,-6.3899998664856
15.6069103,-1.49000000953674
15.6225353,8.85000038146973
15.6381603,25.5900001525879
15.6537853,47.1199989318848
15.6694103,69.2300033569336
15.6850353,87.1699981689453
15.7006603,97.879997253418
15.7162853,100.959999084473
15.7319103,98.0100021362305
15.7475353,91.4599990844727
15.7631603,83.4899978637695
15.7787853,75.3099975585938
15.7944103,67.2099990844727
15.8100353,59.1800003051758
15.8256603,51.1800003051758
15.8412853,43.2599983215332
15.8569103,35.7900009155273
15.8725353,29.5900001525879
15.8881603,25.5100002288818
15.9037853,23.9200000762939
15.9194103,24.3999996185303
15.9350353,25.7700004577637
15.9506603,26.5799999237061
15.9662853,26.0699996948242
15.9819103,24.6399993896484
15.9975353,23.2600002288818
16.0131603,22.6000003814697
16.0287853,22.6900005340576
16.0444103,23
16.0600353,22.9400005340576
16.0756603,22.1700000762939
16.0912853,20.9200000762939
16.1069103,20
16.1225353,20.3400001525879
16.1381603,22.0900001525879
16.1537853,24.3600006103516
16.1694103,26.0200004577637
16.1850353,27.0699996948242
16.2006603,29.1299991607666
16.2162853,34.8800010681152
16.2319103,46.4700012207031
16.2475353,63.8199996948242
16.2631603,83.9499969482422
16.2787853,102.059997558594
16.2944103,113.73999786377
16.3100353,117.069999694824
16.3256603,113.069999694824
16.3412853,104.839996337891
16.3569103,95.7699966430664
16.3725353,87.8000030517578
16.3881603,80.5400009155273
16.4037853,71.9899978637695
16.4194103,60.439998626709
16.4350353,45.9000015258789
16.4506603,30.2399997711182
16.4662853,16.2299995422363
16.4819103,6.11999988555908
16.4975353,0.689999997615814
16.5131603,-0.769999980926514
16.5287853,0.00999999977648258
16.5444103,1.33000004291534
16.5600353,2.17000007629395
16.5756603,2.33999991416931
16.5912853,1.95000004768372
16.6069103,0.790000021457672
16.6225353,-1.64999997615814
16.6381603,-5.86999988555908
16.6537853,-11.9300003051758
16.6694103,-19.3500003814697
16.6850353,-27.2099990844727
16.7006603,-34.4900016784668
16.7162853,-40.310001373291
16.7319103,-44.0900001525879
16.7475353,-45.5499992370605
16.7631603,-44.6800003051758
16.7787853,-41.6800003051758
16.7944103,-36.6699981689453
16.8100353,-29.1900005340576
16.8256603,-18.3899993896484
16.8412853,-4.03000020980835
16.8569103,12.5699996948242
16.8725353,28.3899993896484
16.8881603,39.8699989318848
16.9037853,44.8400001525879
16.9194103,43.6599998474121
16.9350353,38.689998626709
16.9506603,32.689998626709
16.9662853,27.2999992370605
16.9819103,22.7299995422363
16.9975353,18.3600006103516
17.0131603,13.6000003814697
17.0287853,8.27999973297119
17.0444103,2.79999995231628
17.0600353,-1.92999994754791
17.0756603,-4.96000003814697
17.0912853,-5.86999988555908
17.1069103,-5.28000020980835
17.1225353,-4.59999990463257
17.1381603,-5.17000007629395
17.1537853,-7.69000005722046
17.1694103,-12.1999998092651
17.1850353,-18.3500003814697
17.2006603,-25.4799995422363
17.2162853,-32.6300010681152
17.2319103,-38.7000007629395
17.2475353,-42.9199981689453
17.2631603,-45.25
17.2787853,-46.3199996948242
17.2944103,-47.0099983215332
17.3100353,-47.9900016784668
17.3256603,-49.3499984741211
17.3412853,-50.3300018310547
17.3569103,-49.5099983215332
17.3725353,-46.0099983215332
17.3881603,-40.4900016784668
17.4037853,-35.060001373291
17.4194103,-31.8199996948242
17.4350353,-31.6200008392334
17.4506603,-34.2299995422363
17.4662853,-39.5699996948242
17.4819103,-48.3300018310547
17.4975353,-61.2900009155273
17.5131603,-78.0800018310547
17.5287853,-96.4700012207031
17.5444103,-112.849998474121
17.5600353,-123.419998168945
17.5756603,-125.580001831055
17.5912853,-118.860000610352
17.6069103,-105.139999389648
17.6225353,-87.75
17.6381603,-70.1900024414063
17.6537853,-54.7900009155273
17.6694103,-41.9700012207031
17.6850353,-30.5300006866455
17.7006603,-18.8299999237061
17.7162853,-5.96999979019165
17.7319103,7.80999994277954
17.7475353,21.3299999237061
17.7631603,33.2299995422363
17.7787853,42.5200004577637
17.7944103,48.689998626709
17.8100353,51.8499984741211
17.8256603,52.8899993896484
17.8412853,53.1399993896484
17.8569103,53.6100006103516
17.8725353,54.8499984741211
17.8881603,57.2000007629395
17.9037853,60.9199981689453
17.9194103,65.9700012207031
17.9350353,71.7200012207031
17.9506603,77.1900024414063
17.9662853,81.4499969482422
17.9819103,83.870002746582
17.9975353,84.4100036621094
18.0131603,83.870002746582
18.0287853,84.1500015258789
18.0444103,88.120002746582
18.0600353,98.4700012207031
18.0756603,115.819999694824
18.0912853,137.570007324219
18.1069103,158.839996337891
18.1225353,174.639999389648
18.1381603,181.880004882813
18.1537853,179.770004272461
18.1694103,168.740005493164
18.1850353,148.990005493164
18.2006603,119.76000213623
18.2162853,80.3600006103516
18.2319103,32.0400009155273
18.2475353,-20.5599994659424
18.2631603,-70.0699996948242
18.2787853,-108.919998168945
18.2944103,-132.289993286133
18.3100353,-139.440002441406
18.3256603,-132.929992675781
18.3412853,-117.059997558594
18.3569103,-96.5199966430664
18.3725353,-75.6900024414063
18.3881603,-58.0699996948242
18.4037853,-45.8699989318848
18.4194103,-39.7400016784668
18.4350353,-39.3499984741211
18.4506603,-44.1199989318848
18.4662853,-53.7299995422363
18.4819103,-67.75
18.4975353,-84.9599990844727
18.5131603,-103.23999786377
18.5287853,-120.139999389648
18.5444103,-133.720001220703
18.5600353,-143.229995727539
18.5756603,-149.610000610352
18.5912853,-155.449996948242
18.6069103,-163.699996948242
18.6225353,-175.820007324219
18.6381603,-190.529998779297
18.6537853,-204.210006713867
18.6694103,-212.850006103516
18.6850353,-214.630004882813
18.7006603,-210.710006713867
18.7162853,-203.729995727539
18.7319103,-195.389999389648
18.7475353,-185.729995727539
18.7631603,-174.149993896484
18.7787853,-160.710006713867
18.7944103,-146.179992675781
18.8100353,-131.470001220703
18.8256603,-117.300003051758
18.8412853,-104.300003051758
18.8569103,-92.9599990844727
18.8725353,-83.1999969482422
18.8881603,-74.3000030517578
18.9037853,-65.1500015258789
18.9194103,-54.7000007629395
18.9350353,-42.4000015258789
18.9506603,-28.3799991607666
18.9662853,-13.3400001525879
18.9819103,1.85000002384186
18.9975353,16.4500007629395
19.0131603,30.0100002288818
19.0287853,42.3499984741211
19.0444103,53.5200004577637
19.0600353,63.7099990844727
19.0756603,73.0100021362305
19.0912853,81.4100036621094
19.1069103,88.8499984741211
19.1225353,95.3499984741211
19.1381603,101.319999694824
19.1537853,107.970001220703
19.1694103,117.419998168945
19.1850353,132.5
19.2006603,156.949996948242
19.2162853,195.690002441406
19.2319103,251.910003662109
19.2475353,320.329986572266
19.2631603,327.670013427734
19.2787853,327.670013427734
19.2944103,327.670013427734
19.3100353,327.670013427734
19.3256603,327.670013427734
19.3412853,327.670013427734
19.3569103,309.760009765625
19.3725353,287.440002441406
19.3881603,271.170013427734
19.4037853,256.970001220703
19.4194103,241.910003662109
19.4350353,224.990005493164
19.4506603,206.789993286133
19.4662853,188.490005493164
19.4819103,170.360000610352
19.4975353,146.210006713867
19.5131603,96.1399993896484
19.5287853,-4.07000017166138
19.5444103,-154.059997558594
19.5600353,-316.049987792969
19.5756603,-327.679992675781
19.5912853,-327.679992675781
19.6069103,-327.679992675781
19.6225353,-327.679992675781
19.6381603,-327.679992675781
19.6537853,-324.100006103516
19.6694103,-297.260009765625
19.6850353,-284.320007324219
19.7006603,-276.209991455078
19.7162853,-265.829986572266
19.7319103,-250.449996948242
19.7475353,-231.110000610352
19.7631603,-210.509994506836
19.7787853,-191.080001831055
19.7944103,-173.910003662109
19.8100353,-158.869995117188
19.8256603,-144.479995727539
19.8412853,-126.529998779297
19.8569103,-97.2900009155273
19.8725353,-49.4199981689453
19.8881603,17.9200000762939
19.9037853,97.1600036621094
19.9194103,176.059997558594
19.9350353,243.479995727539
19.9506603,292.989990234375
19.9662853,323.390014648438
19.9819103,327.670013427734
19.9975353,327.670013427734
20.0131603,326.739990234375
20.0287853,307.519989013672
20.0444103,280.820007324219
20.0600353,248.460006713867
20.0756603,212.960006713867
20.0912853,177.169998168945
20.1069103,143.649993896484
20.1225353,113.75
20.1381603,87.0500030517578
20.1537853,61.75
20.1694103,35.6100006103516
20.1850353,7
20.2006603,-24.1599998474121
20.2162853,-56.0999984741211
20.2319103,-85.8000030517578
20.2475353,-110.120002746582
20.2631603,-127.139999389648
20.2787853,-136.809997558594
20.2944103,-140.479995727539
20.3100353,-139.979995727539
20.3256603,-137.080001831055
20.3412853,-133.460006713867
20.3569103,-130.279998779297
20.3725353,-127.589996337891
20.3881603,-124.379997253418
20.4037853,-119.199996948242
20.4194103,-110.400001525879
20.4350353,-96.3399963378906
20.4506603,-76.25
20.4662853,-51.7299995422363
20.4819103,-27.3600006103516
20.4975353,-10.0299997329712
20.5131603,-6.8600001335144
20.5287853,-22.0799999237061
20.5444103,-53.2700004577637
20.5600353,-90.1800003051758
20.5756603,-119.430000305176
20.5912853,-131.979995727539
20.6069103,-127.160003662109
20.6225353,-110.930000305176
20.6381603,-91.3099975585938
20.6537853,-74.2900009155273
20.6694103,-62.0400009155273
20.6850353,-52.8600006103516
20.7006603,-42.1199989318848
20.7162853,-24.6399993896484
20.7319103,1.88999998569489
20.7475353,35.2299995422363
20.7631603,70.1399993896484
20.7787853,101.680000305176
20.7944103,127.209999084473
20.8100353,146.509994506836
20.8256603,160.440002441406
20.8412853,169.660003662109
20.8569103,174.309997558594
20.8725353,174.669998168945
20.8881603,171.580001831055
20.9037853,166.039993286133
20.9194103,158.699996948242
20.9350353,149.619995117188
20.9506603,138.679992675781
20.9662853,126.23999786377
20.9819103,113.360000610352
20.9975353,101.580001831055
21.0131603,92.7699966430664
21.0287853,89.0500030517578
21.0444103,91.9499969482422
21.0600353,101.169998168945
21.0756603,114.069999694824
21.0912853,126.580001831055
21.1069103,134.970001220703
21.1225353,137.179992675781
21.1381603,133.059997558594
21.1537853,123.800003051758
21.1694103,111.190002441406
21.1850353,97.1800003051758
21.2006603,83.4800033569336
21.2162853,71.2099990844727
21.2319103,60.4799995422363
21.2475353,50.7299995422363
21.2631603,41.7200012207031
21.2787853,34.5499992370605
21.2944103,31.6000003814697
21.3100353,35.560001373291
21.3256603,48.1399993896484
21.3412853,69.2399978637695
21.3569103,96.9300003051758
21.3725353,128.190002441406
21.3881603,159.479995727539
21.4037853,186.860000610352
21.4194103,205.860000610352
21.4350353,212.440002441406
21.4506603,204.649993896484
21.4662853,183.630004882813
21.4819103,153.050003051758
21.4975353,117.580001831055
21.5131603,81.7099990844727
21.5287853,49.1800003051758
21.5444103,22.2800006866455
21.5600353,1.02999997138977
21.5756603,-16.7199993133545
21.5912853,-34.5999984741211
21.6069103,-57.4099998474121
21.6225353,-91.4400024414063
21.6381603,-143.460006713867
21.6537853,-216.350006103516
21.6694103,-302.5
21.6850353,-327.679992675781
21.7006603,-327.679992675781
21.7162853,-327.679992675781
21.7319103,-327.679992675781
21.7475353,-327.679992675781
21.7631603,-224.630004882813
21.7787853,-108.550003051758
21.7944103,-5.8600001335144
21.8100353,67.4199981689453
21.8256603,106.160003662109
21.8412853,115.300003051758
21.8569103,105.230003356934
21.8725353,86.4000015258789
21.8881603,65.6600036621094
21.9037853,45.5800018310547
21.9194103,26.0499992370605
21.9350353,6.46000003814697
21.9506603,-13.1199998855591
21.9662853,-31.9099998474121
21.9819103,-49.0800018310547
21.9975353,-64.4400024414063
22.0131603,-78.9100036621094
22.0287853,-94.0899963378906
22.0444103,-111.26000213623
22.0600353,-130.119995117188
22.0756603,-148.699996948242
22.0912853,-164.610000610352
22.1069103,-176.360000610352
22.1225353,-183.789993286133
22.1381603,-187.800003051758
22.1537853,-189.839996337891
22.1694103,-190.960006713867
22.1850353,-191.25
22.2006603,-190.179992675781
22.2162853,-187.559997558594
22.2319103,-183.610000610352
22.2475353,-178.169998168945
22.2631603,-170.089996337891
22.2787853,-157.929992675781
22.2944103,-141.619995117188
22.3100353,-123.540000915527
22.3256603,-108.019996643066
22.3412853,-99.6900024414063
22.3569103,-101.790000915527
22.3725353,-115.209999084473
22.3881603,-138.100006103516
22.4037853,-166.190002441406
22.4194103,-193.789993286133
22.4350353,-215.350006103516
22.4506603,-226.839996337891
22.4662853,-226.490005493164
22.4819103,-214.710006713867
22.4975353,-193.050003051758
22.5131603,-162.759994506836
22.5287853,-124.209999084473
22.5444103,-77.25
22.5600353,-22.1399993896484
22.5756603,39.3699989318848
22.5912853,103.830001831055
22.6069103,166.570007324219
22.6225353,222.559997558594
22.6381603,266.959991455078
22.6537853,295.700012207031
22.6694103,306.350006103516
22.6850353,298.920013427734
22.7006603,275.799987792969
22.7162853,241.070007324219
22.7319103,199.809997558594
22.7475353,157.410003662109
22.7631603,118.709999084473
22.7787853,86.9700012207031
22.7944103,63.4000015258789
22.8100353,47.4099998474121
22.8256603,37.5099983215332
22.8412853,32.1699981689453
22.8569103,30.2700004577637
22.8725353,31.1399993896484
22.8881603,34.7099990844727
22.9037853,40.9799995422363
22.9194103,48.9799995422363
22.9350353,56.4000015258789
22.9506603,60.4300003051758
22.9662853,59.2200012207031
22.9819103,52.6599998474121
22.9975353,42.060001373291
23.0131603,29.2299995422363
23.0287853,15.4899997711182
23.0444103,0.879999995231628
23.0600353,-16.25
23.0756603,-38.8600006103516
23.0912853,-69.9499969482422
23.1069103,-111.059997558594
23.1225353,-160.580001831055
23.1381603,-212.669998168945
23.1537853,-257.700012207031
23.1694103,-285.679992675781
23.1850353,-291.510009765625
23.2006603,-277.179992675781
23.2162853,-248.789993286133
23.2319103,-211.779998779297
23.2475353,-169.339996337891
23.2631603,-123.930000305176
23.2787853,-78.5800018310547
23.2944103,-36.6500015258789
23.3100353,-1.0900000333786
23.3256603,26.1299991607666
23.3412853,44.5
23.3569103,54.9500007629395
23.3725353,59.5099983215332
23.3881603,60.5400009155273
23.4037853,60.0400009155273
23.4194103,59.3499984741211
23.4350353,58.9700012207031
23.4506603,58.7700004577637
23.4662853,58.4599990844727
23.4819103,58.2200012207031
23.4975353,59.2900009155273
23.5131603,63.8400001525879
23.5287853,73.9000015258789
23.5444103,89.9100036621094
23.5600353,109.919998168945
23.5756603,130.289993286133
23.5912853,147.360000610352
23.6069103,159.050003051758
23.6225353,165.330001831055
23.6381603,167.5
23.6537853,166.949996948242
23.6694103,164.509994506836
23.6850353,160.110000610352
23.7006603,153.080001831055
23.7162853,142.740005493164
23.7319103,129.320007324219
23.7475353,114.25
23.7631603,99.620002746582
23.7787853,87.1900024414063
23.7944103,77.6500015258789
23.8100353,70.6100006103516
23.8256603,65.2600021362305
23.8412853,60.9000015258789
23.8569103,57.1199989318848
23.8725353,53.5999984741211
23.8881603,50.1399993896484
23.9037853,46.7700004577637
23.9194103,43.7599983215332
23.9350353,41.2700004577637
23.9506603,39.2900009155273
23.9662853,37.75
23.9819103,36.7200012207031
23.9975353,36.2999992370605
24.0131603,36.3600006103516
24.0287853,36.5699996948242
24.0444103,36.6599998474121
24.0600353,36.5299987792969
24.0756603,36.0900001525879
24.0912853,35.060001373291
24.1069103,33.2799987792969
24.1225353,31.3899993896484
24.1381603,31.2299995422363
24.1537853,35.0900001525879
24.1694103,44.1800003051758
24.1850353,57.2900009155273
24.2006603,70.9800033569336
24.2162853,81.3099975585938
24.2319103,85.8000030517578
24.2475353,84.3399963378906
24.2631603,79.0400009155273
24.2787853,73.2699966430664
24.2944103,70.3600006103516
24.3100353,72.7099990844727
24.3256603,81.75
24.3412853,98.379997253418
24.3569103,122.790000915527
24.3725353,153.399993896484
24.3881603,186.149993896484
24.4037853,215.169998168945
24.4194103,234.610000610352
24.4350353,240.460006713867
24.4506603,231.720001220703
24.4662853,209.929992675781
24.4819103,177.710006713867
24.4975353,137.529998779297
24.5131603,91.6500015258789
24.5287853,42.5099983215332
24.5444103,-6.90999984741211
24.5600353,-53.6599998474121
24.5756603,-95.5400009155273
24.5912853,-131.649993896484
24.6069103,-162.320007324219
24.6225353,-188.639999389648
24.6381603,-212
24.6537853,-233.5
24.6694103,-253.440002441406
24.6850353,-271.059997558594
24.7006603,-284.75
24.7162853,-292.929992675781
24.7319103,-294.730010986328
24.7475353,-289.940002441406
24.7631603,-278.470001220703
24.7787853,-259.820007324219
24.7944103,-233.509994506836
24.8100353,-200.199996948242
24.8256603,-162.199996948242
24.8412853,-122.589996337891
24.8569103,-83.7600021362305
24.8725353,-46.7999992370605
24.8881603,-11.75
24.9037853,21.8099994659424
24.9194103,54.0800018310547
24.9350353,84.4700012207031
24.9506603,111.279998779297
24.9662853,131.949996948242
24.9819103,143.820007324219
24.9975353,144.720001220703
25.0131603,133.220001220703
25.0287853,108.639999389648
25.0444103,71.1399993896484
25.0600353,21.7399997711182
25.0756603,-37.3400001525879
25.0912853,-102.220001220703
25.1069103,-167.169998168945
25.1225353,-225.460006713867
25.1381603,-270.790008544922
25.1537853,-298.679992675781
25.1694103,-306.910003662109
25.1850353,-295.600006103516
25.2006603,-267.220001220703
25.2162853,-226.070007324219
25.2319103,-177.229995727539
25.2475353,-125.629997253418
25.2631603,-75.5899963378906
25.2787853,-30.5799999237061
25.2944103,7.07999992370605
25.3100353,36.2999992370605
25.3256603,57.0499992370605
25.3412853,70.1399993896484
25.3569103,77.0199966430664
25.3725353,79.5999984741211
25.3881603,80.2200012207031
25.4037853,81.2900009155273
25.4194103,84.2399978637695
25.4350353,88.5
25.4506603,91.4599990844727
25.4662853,90.120002746582
25.4819103,83.2699966430664
25.4975353,72.2799987792969
25.5131603,60.2099990844727
25.5287853,50.0200004577637
25.5444103,43.3300018310547
25.5600353,40.2400016784668
25.5756603,39.8199996948242
25.5912853,40.5400009155273
25.6069103,40.7200012207031
25.6225353,38.9500007629395
25.6381603,34.5999984741211
25.6537853,27.9599990844727
25.6694103,20.0400009155273
25.6850353,12.0699996948242
25.7006603,5.15999984741211
25.7162853,-0.109999999403954
25.7319103,-3.90000009536743
25.7475353,-6.71000003814697
25.7631603,-9.07999992370605
25.7787853,-11.3699998855591
25.7944103,-13.7799997329712
25.8100353,-16.2700004577637
25.8256603,-18.3899993896484
25.8412853,-19.2900009155273
25.8569103,-18.3600006103516
25.8725353,-15.6800003051758
25.8881603,-11.9399995803833
25.9037853,-8
25.9194103,-4.5
25.9350353,-1.75999999046326
25.9506603,0.280000001192093
25.9662853,2.25999999046326
25.9819103,5.51000022888184
25.9975353,11.9799995422363
26.0131603,23.2800006866455
26.0287853,39.3800010681152
26.0444103,57.9599990844727
26.0600353,75
26.0756603,86.3300018310547
26.0912853,89.4000015258789
26.1069103,84.4800033569336
26.1225353,74.5
26.1381603,63.5
26.1537853,54.4300003051758
26.1694103,48.0299987792969
26.1850353,43.2099990844727
26.2006603,38.2599983215332
26.2162853,32.0299987792969
26.2319103,24.6000003814697
26.2475353,16.9899997711182
26.2631603,10.3000001907349
26.2787853,4.96999979019165
26.2944103,0.579999983310699
26.3100353,-3.54999995231628
26.3256603,-7.67000007629395
26.3412853,-11.3299999237061
26.3569103,-13.8500003814697
26.3725353,-14.9099998474121
26.3881603,-15.0100002288818
26.4037853,-15.2200002670288
26.4194103,-16.5400009155273
26.4350353,-19.1499996185303
26.4506603,-22.3299999237061
26.4662853,-25.1700000762939
26.4819103,-27.3600006103516
26.4975353,-29.1200008392334
26.5131603,-30.7600002288818
26.5287853,-32.2099990844727
26.5444103,-33.0099983215332
26.5600353,-32.5999984741211
26.5756603,-30.6700000762939
26.5912853,-26.9400005340576
26.6069103,-20.6700000762939
26.6225353,-10.8400001525879
26.6381603,2.64000010490417
26.6537853,17.8799991607666
26.6694103,31.1399993896484
26.6850353,38.5800018310547
26.7006603,38.4099998474121
26.7162853,31.7299995422363
26.7319103,21.4400005340576
26.7475353,10.3299999237061
26.7631603,-0.0399999991059303
26.7787853,-9.30000019073486
26.7944103,-17.4799995422363
26.8100353,-24.5699996948242
26.8256603,-30.5699996948242
26.8412853,-35.5
26.8569103,-39.1500015258789
26.8725353,-41.0999984741211
26.8881603,-40.7200012207031
26.9037853,-37.5900001525879
26.9194103,-31.8999996185303
26.9350353,-24.6200008392334
26.9506603,-17.1399993896484
26.9662853,-10.4300003051758
26.9819103,-4.63000011444092
26.9975353,0.649999976158142
27.0131603,5.8600001335144
27.0287853,11.2600002288818
27.0444103,16.8799991607666
27.0600353,22.6499996185303
27.0756603,28.4099998474121
27.0912853,34.0099983215332
27.1069103,39.310001373291
27.1225353,43.9199981689453
27.1381603,47.0900001525879
27.1537853,47.9599990844727
27.1694103,46.3400001525879
27.1850353,43.4799995422363
27.2006603,41.9099998474121
27.2162853,43.9599990844727
27.2319103,49.8600006103516
27.2475353,57.2999992370605
27.2631603,62.5200004577637
27.2787853,62.3300018310547
27.2944103,55.4599990844727
27.3100353,43.060001373291
27.3256603,27.9699993133545
27.3412853,13.3400001525879
27.3569103,1.30999994277954
27.3725353,-7.53999996185303
27.3881603,-14.1099996566772
27.4037853,-19.8899993896484
27.4194103,-25.9200000762939
27.4350353,-32.0900001525879
27.4506603,-37.2200012207031
27.4662853,-39.6100006103516
27.4819103,-38.1399993896484
27.4975353,-33
27.5131603,-25.5799999237061
27.5287853,-17.6399993896484
27.5444103,-10.5
27.5600353,-4.92000007629395
27.5756603,-1.24000000953674
27.5912853,0.46000000834465
27.6069103,0.419999986886978
27.6225353,-1.01999998092651
27.6381603,-3.49000000953674
27.6537853,-6.65999984741211
27.6694103,-10.3000001907349
27.6850353,-14.2399997711182
27.7006603,-18.4400005340576
27.7162853,-23.0100002288818
27.7319103,-27.9400005340576
27.7475353,-32.7700004577637
27.7631603,-36.3300018310547
27.7787853,-36.7299995422363
27.7944103,-32.0099983215332
27.8100353,-21.4500007629395
27.8256603,-6.63000011444092
27.8412853,8.64999961853027
27.8569103,20.1399993896484
27.8725353,25.0699996948242
27.8881603,23.4200000762939
27.9037853,17.6200008392334
27.9194103,11.2399997711182
27.9350353,7.32000017166138
27.9506603,7.05999994277954
27.9662853,9.71000003814697
27.9819103,13.4899997711182
27.9975353,16.6800003051758
28.0131603,18.5499992370605
28.0287853,19.4099998474121
28.0444103,20.0300006866455
28.0600353,20.8899993896484
28.0756603,22.0699996948242
28.0912853,23.1100006103516
28.1069103,23.1100006103516
28.1225353,21.0499992370605
28.1381603,16.5400009155273
28.1537853,10.1000003814697
28.1694103,2.75999999046326
28.1850353,-4.48999977111816
28.2006603,-11.1199998855591
28.2162853,-17.1499996185303
28.2319103,-23.0300006866455
28.2475353,-29.3299999237061
28.2631603,-36.2200012207031
28.2787853,-43.2999992370605
28.2944103,-49.7200012207031
28.3100353,-54.5699996948242
28.3256603,-57.0900001525879
28.3412853,-56.6199989318848
28.3569103,-52.2200012207031
28.3725353,-42.7900009155273
28.3881603,-28.2399997711182
28.4037853,-10.3900003433228
28.4194103,7.23999977111816
28.4350353,20.9099998474121
28.4506603,28.2199993133545
28.4662853,28.8600006103516
28.4819103,24.3600006103516
28.4975353,17.0699996948242
28.5131603,9.07999992370605
28.5287853,1.41999995708466
28.5444103,-5.96999979019165
28.5600353,-13.6000003814697
28.5756603,-21.6499996185303
28.5912853,-29.5699996948242
28.6069103,-36.1100006103516
28.6225353,-39.9000015258789
28.6381603,-40.4099998474121
28.6537853,-38.310001373291
28.6694103,-34.9000015258789
28.6850353,-31.3799991607666
28.7006603,-28.4899997711182
28.7162853,-26.5100002288818
28.7319103,-25.5200004577637
28.7475353,-25.4200000762939
28.7631603,-25.8600006103516
28.7787853,-26.3899993896484
28.7944103,-26.6299991607666
28.8100353,-26.5
28.8256603,-26.1499996185303
28.8412853,-25.9899997711182
28.8569103,-26.4400005340576
28.8725353,-27.7399997711182
28.8881603,-29.9099998474121
28.9037853,-32.7099990844727
28.9194103,-35.6100006103516
28.9350353,-37.689998626709
28.9506603,-37.3899993896484
28.9662853,-32.7599983215332
28.9819103,-22.4300003051758
28.9975353,-6.78000020980835
29.0131603,11.6800003051758
29.0287853,29.2099990844727
29.0444103,42.3400001525879
29.0600353,49
29.0756603,48.6699981689453
29.0912853,41.8800010681152
29.1069103,29.6900005340576
29.1225353,13.789999961853
29.1381603,-3.38000011444092
29.1537853,-19.4300003051758
29.1694103,-32.9099998474121
29.1850353,-43.5900001525879
29.2006603,-51.7900009155273
29.2162853,-57.6300010681152
29.2319103,-60.7700004577637
29.2475353,-60.7000007629395
29.2631603,-57.25
29.2787853,-51.060001373291
29.2944103,-43.3600006103516
29.3100353,-35.5099983215332
29.3256603,-28.3500003814697
29.3412853,-22.0599994659424
29.3569103,-16.5499992370605
29.3725353,-11.9200000762939
29.3881603,-8.30000019073486
29.4037853,-5.46000003814697
29.4194103,-2.72000002861023
29.4350353,0.639999985694885
29.4506603,4.96000003814697
29.4662853,9.72999954223633
29.4819103,13.8500003814697
29.4975353,16.1599998474121
29.5131603,16.2299995422363
29.5287853,14.8299999237061
29.5444103,13.9799995422363
29.5600353,16.3700008392334
29.5756603,24.2999992370605
29.5912853,38.3400001525879
29.6069103,56.5699996948242
29.6225353,75.0500030517578
29.6381603,89.379997253418
29.6537853,96.5500030517578
29.6694103,95.9400024414063
29.6850353,89.2900009155273
29.7006603,79.6800003051758
29.7162853,70.1999969482422
29.7319103,62.6599998474121
29.7475353,56.939998626709
29.7631603,51.7099990844727
29.7787853,45.7700004577637
29.7944103,38.9300003051758
29.8100353,32.0699996948242
29.8256603,26.5
29.8412853,23.2299995422363
29.8569103,22.5300006866455
29.8725353,23.8899993896484
29.8881603,26.1800003051758
29.9037853,28
29.9194103,28.2099990844727
29.9350353,26.4799995422363
29.9506603,23.3600006103516
29.9662853,20.2199993133545
29.9819103,18.7099990844727
29.9975353,19.9400005340576
30.0131603,23.7399997711182
30.0287853,28.8299999237061
30.0444103,33.4700012207031
30.0600353,36.189998626709
30.0756603,36.2299995422363
30.0912853,33.7799987792969
30.1069103,29.8799991607666
30.1225353,26.1000003814697
30.1381603,24.1700000762939
30.1537853,25.6499996185303
30.1694103,31.8400001525879
30.1850353,43.4900016784668
30.2006603,60.060001373291
30.2162853,78.9499969482422
30.2319103,95.75
30.2475353,105.800003051758
30.2631603,106.360000610352
30.2787853,97.7399978637695
30.2944103,83.0400009155273
30.3100353,66.6999969482422
30.3256603,52.6399993896484
30.3412853,42.9199981689453
30.3569103,37.189998626709
30.3725353,33.4199981689453
30.3881603,29.3600006103516
30.4037853,24.0100002288818
30.4194103,17.9400005340576
30.4350353,12.289999961853
30.4506603,7.61999988555908
30.4662853,3.57999992370605
30.4819103,-0.620000004768372
30.4975353,-5.73999977111816
30.5131603,-12.1499996185303
30.5287853,-19.5699996948242
30.5444103,-27.1299991607666
30.5600353,-33.8499984741211
30.5756603,-39.0200004577637
30.5912853,-42.3600006103516
30.6069103,-44.0200004577637
30.6225353,-44.5900001525879
30.6381603,-44.8800010681152
30.6537853,-45.4700012207031
30.6694103,-46.3899993896484
30.6850353,-47.2200012207031
30.7006603,-47.4799995422363
30.7162853,-47.0400009155273
30.7319103,-46.2200012207031
30.7475353,-45.4300003051758
30.7631603,-44.6199989318848
30.7787853,-42.939998626709
30.7944103,-38.7200012207031
30.8100353,-30.4899997711182
30.8256603,-18.5300006866455
30.8412853,-5.53999996185303
30.8569103,4.55000019073486
30.8725353,8.81999969482422
30.8881603,6.80999994277954
30.9037853,0.519999980926514
30.9194103,-7
30.9350353,-13.460000038147
30.9506603,-18.2299995422363
30.9662853,-22.0400009155273
30.9819103,-25.9300003051758
30.9975353,-30.5499992370605
31.0131603,-35.8899993896484
31.0287853,-41.439998626709
31.0444103,-46.5800018310547
31.0600353,-50.7400016784668
31.0756603,-53.5499992370605
31.0912853,-55.0900001525879
31.1069103,-55.75
31.1225353,-56.0200004577637
31.1381603,-56.1699981689453
31.1537853,-56.1500015258789
31.1694103,-55.5499992370605
31.1850353,-53.810001373291
31.2006603,-50.7000007629395
31.2162853,-46.689998626709
31.2319103,-42.8300018310547
31.2475353,-40.0099983215332
31.2631603,-38.4599990844727
31.2787853,-38.0999984741211
31.2944103,-38.810001373291
31.3100353,-40.3699989318848
31.3256603,-42.4199981689453
31.3412853,-44.560001373291
31.3569103,-46.2700004577637
31.3725353,-46.8699989318848
31.3881603,-45.560001373291
31.4037853,-41.5800018310547
31.4194103,-34.2099990844727
31.4350353,-23.0799999237061
31.4506603,-8.57999992370605
31.4662853,7.65999984741211
31.4819103,22.9400005340576
31.4975353,34.3800010681152
31.5131603,40.0900001525879
31.5287853,39.8800010681152
31.5444103,34.939998626709
31.5600353,27.2099990844727
31.5756603,18.6299991607666
31.5912853,10.6899995803833
31.6069103,4.26999998092651
31.6225353,-0.340000003576279
31.6381603,-3.3199999332428
31.6537853,-4.73000001907349
31.6694103,-4.3899998664856
31.6850353,-2.23000001907349
31.7006603,1.39999997615814
31.7162853,5.88000011444092
31.7319103,10.4099998474121
31.7475353,14.210000038147
31.7631603,16.7399997711182
31.7787853,17.9400005340576
31.7944103,18.0200004577637
31.8100353,17.1800003051758
31.8256603,15.4700002670288
31.8412853,12.8400001525879
31.8569103,9.39000034332275
31.8725353,5.57000017166138
31.8881603,1.99000000953674
31.9037853,-0.870000004768372
31.9194103,-2.90000009536743
31.9350353,-4.26000022888184
31.9506603,-5.07000017166138
31.9662853,-5.1399998664856
31.9819103,-4.28999996185303
31.9975353,-2.80999994277954
32.0131603,-1.39999997615814
32.0287853,-0.709999978542328
32.0444103,-0.610000014305115
32.0600353,0.270000010728836
32.0756603,4.1100001335144
32.0912853,12.1800003051758
32.1069103,23.3099994659424
32.1225353,33.9500007629395
32.1381603,40.060001373291
32.1537853,39.3400001525879
32.1694103,32.2200012207031
32.1850353,21.1800003051758
32.2006603,9.26000022888184
32.2162853,-1.33000004291534
32.2319103,-9.85000038146973
32.2475353,-16.5799999237061
32.2631603,-22.0799999237061
32.2787853,-26.5599994659424
32.2944103,-29.8299999237061
32.3100353,-31.5200004577637
32.3256603,-31.3899993896484
32.3412853,-29.4300003051758
32.3569103,-25.9200000762939
32.3725353,-21.2900009155273
32.3881603,-16.1700000762939
32.4037853,-11.3299999237061
32.4194103,-7.32999992370605
32.4350353,-4.23999977111816
32.4506603,-1.9099999666214
32.4662853,-0.159999996423721
32.4819103,1.25
32.4975353,2.83999991416931
32.5131603,4.98999977111816
32.5287853,7.6399998664856
32.5444103,10.1899995803833
32.5600353,11.960000038147
32.5756603,12.6800003051758
32.5912853,12.7600002288818
32.6069103,13.1300001144409
32.6225353,14.5600004196167
32.6381603,17.0900001525879
32.6537853,20.1599998474121
32.6694103,23.7099990844727
32.6850353,28.7900009155273
32.7006603,36.9000015258789
32.7162853,48.3400001525879
32.7319103,61.0499992370605
32.7475353,71.2799987792969
32.7631603,75.7300033569336
32.7787853,73.4499969482422
32.7944103,66.1999969482422
32.8100353,57.1599998474121
32.8256603,48.9500007629395
32.8412853,42.4799995422363
32.8569103,37.060001373291
32.8725353,31.3199996948242
32.8881603,24.3500003814697
32.9037853,16.4200000762939
32.9194103,8.86999988555908
32.9350353,3.22000002861023
32.9506603,0.0500000007450581
32.9662853,-1.37999999523163
32.9819103,-2.59999990463257
32.9975353,-5.03000020980835
33.0131603,-9.5
33.0287853,-16.2900009155273
33.0444103,-25.1299991607666
33.0600353,-34.9300003051758
33.0756603,-43.0299987792969
33.0912853,-44.5099983215332
33.1069103,-32.0099983215332
33.1225353,2.80999994277954
33.1381603,63.9900016784668
33.1537853,143.539993286133
33.1694103,220.550003051758
33.1850353,272.25
33.2006603,287.609985351563
33.2162853,271.440002441406
33.2319103,238.350006103516
33.2475353,203.470001220703
33.2631603,176.119995117188
33.2787853,158.25
33.2944103,146.860000610352
33.3100353,137.5
33.3256603,126.930000305176
33.3412853,114.129997253418
33.3569103,99.7799987792969
33.3725353,85.2399978637695
33.3881603,71.5999984741211
33.4037853,59.2900009155273
33.4194103,46.8600006103516
33.4350353,27.7199993133545
33.4506603,-10.6099996566772
33.4662853,-79.7300033569336
33.4819103,-181.279998779297
33.4975353,-303.029998779297
33.5131603,-327.679992675781
33.5287853,-327.679992675781
33.5444103,-327.679992675781
33.5600353,-327.679992675781
33.5756603,-327.679992675781
33.5912853,-327.679992675781
33.6069103,-327.679992675781
33.6225353,-327.679992675781
33.6381603,-327.679992675781
33.6537853,-327.679992675781
33.6694103,-322.429992675781
33.6850353,-303.299987792969
33.7006603,-281.739990234375
33.7162853,-259.269989013672
33.7319103,-237.470001220703
33.7475353,-217.25
33.7631603,-198.699996948242
33.7787853,-181.399993896484
33.7944103,-164.809997558594
33.8100353,-148.570007324219
33.8256603,-132.610000610352
33.8412853,-117
33.8569103,-101.910003662109
33.8725353,-87.2699966430664
33.8881603,-71.9000015258789
33.9037853,-52.3600006103516
33.9194103,-23.7299995422363
33.9350353,16.7399997711182
33.9506603,66.4000015258789
33.9662853,117.550003051758
33.9819103,161.289993286133
33.9975353,191.789993286133
34.0131603,208.119995117188
34.0287853,213.149993896484
34.0444103,211.160003662109
34.0600353,205.910003662109
34.0756603,199.720001220703
34.0912853,193.529998779297
34.1069103,187.5
34.1225353,181.360000610352
34.1381603,174.869995117188
34.1537853,168.130004882813
34.1694103,161.639999389648
34.1850353,155.949996948242
34.2006603,151.190002441406
34.2162853,147.009994506836
34.2319103,142.949996948242
34.2475353,138.830001831055
34.2631603,134.779998779297
34.2787853,131
34.2944103,127.459999084473
34.3100353,124.089996337891
34.3256603,121.139999389648
34.3412853,119.139999389648
34.3569103,118.300003051758
34.3725353,118.279998779297
34.3881603,118.349998474121
34.4037853,117.900001525879
34.4194103,116.389999389648
34.4350353,113.410003662109
34.4506603,108.849998474121
34.4662853,103.209999084473
34.4819103,97.6999969482422
34.4975353,93.9599990844727
34.5131603,93.6100006103516
34.5287853,97.8300018310547
34.5444103,106.690002441406
34.5600353,118.349998474121
34.5756603,129.100006103516
34.5912853,134.830001831055
34.6069103,133.179992675781
34.6225353,124.480003356934
34.6381603,111.160003662109
34.6537853,96.4100036621094
34.6694103,82.8600006103516
34.6850353,71.7099990844727
34.7006603,62.7799987792969
34.7162853,55.1399993896484
34.7319103,47.9599990844727
34.7475353,40.7400016784668
34.7631603,33.3300018310547
34.7787853,26.0400009155273
34.7944103,19.5599994659424
34.8100353,14.5200004577637
34.8256603,11.1499996185303
34.8412853,8.88000011444092
34.8569103,6.53000020980835
34.8725353,2.96000003814697
34.8881603,-2.09999990463257
34.9037853,-8.06999969482422
34.9194103,-14.1800003051758
34.9350353,-19.9799995422363
34.9506603,-25.1800003051758
34.9662853,-29.2199993133545
34.9819103,-31.4200000762939
34.9975353,-31.5699996948242
35.0131603,-30.3099994659424
35.0287853,-28.9099998474121
35.0444103,-28.4799995422363
35.0600353,-29.5200004577637
35.0756603,-31.5100002288818
35.0912853,-32.7700004577637
35.1069103,-30.8700008392334
35.1225353,-23.8600006103516
35.1381603,-11.960000038147
35.1537853,1.95000004768372
35.1694103,13.8699998855591
35.1850353,20.9799995422363
35.2006603,22.9099998474121
35.2162853,21.1000003814697
35.2319103,17.4099998474121
35.2475353,13.1599998474121
35.2631603,8.88000011444092
35.2787853,4.59000015258789
35.2944103,0.200000002980232
35.3100353,-4.5
35.3256603,-10.0200004577637
35.3412853,-16.8199996948242
35.3569103,-24.7900009155273
35.3725353,-33.0800018310547
35.3881603,-40.6300010681152
35.4037853,-46.6199989318848
35.4194103,-50.7299995422363
35.4350353,-53.0699996948242
35.4506603,-54.0999984741211
35.4662853,-54.4199981689453
35.4819103,-54.6100006103516
35.4975353,-55.2599983215332
35.5131603,-56.9000015258789
35.5287853,-59.7000007629395
35.5444103,-63.1500015258789
35.5600353,-66.4899978637695
35.5756603,-69.3300018310547
35.5912853,-71.8000030517578
35.6069103,-74.1800003051758
35.6225353,-76.6699981689453
35.6381603,-79.1900024414063
35.6537853,-81.1900024414063
35.6694103,-81.2799987792969
35.6850353,-77.2099990844727
35.7006603,-66.9700012207031
35.7162853,-50.560001373291
35.7319103,-30.6000003814697
35.7475353,-11.3000001907349
35.7631603,3.36999988555908
35.7787853,11.2600002288818
35.7944103,12.5699996948242
35.8100353,9.26000022888184
35.8256603,3.71000003814697
35.8412853,-2.29999995231628
35.8569103,-7.86999988555908
35.8725353,-12.5299997329712
35.8881603,-16.1499996185303
35.9037853,-18.8899993896484
35.9194103,-21.0699996948242
35.9350353,-23.0200004577637
35.9506603,-24.9599990844727
35.9662853,-27.1700000762939
35.9819103,-29.9300003051758
35.9975353,-33.2999992370605
36.0131603,-37.0099983215332
36.0287853,-40.689998626709
36.0444103,-44
36.0600353,-46.6800003051758
36.0756603,-48.6699981689453
36.0912853,-50.0400009155273
36.1069103,-50.9199981689453
36.1225353,-51.6300010681152
36.1381603,-52.5999984741211
36.1537853,-54.060001373291
36.1694103,-55.9099998474121
36.1850353,-57.9300003051758
36.2006603,-59.8600006103516
36.2162853,-61.2900009155273
36.2319103,-61.5200004577637
36.2475353,-59.6699981689453
36.2631603,-54.7000007629395
36.2787853,-45.4099998474121
36.2944103,-31.25
36.3100353,-13.6099996566772
36.3256603,3.98000001907349
36.3412853,17.5599994659424
36.3569103,24.8999996185303
36.3725353,26.2299995422363
36.3881603,23.2299995422363
36.4037853,17.6499996185303
36.4194103,10.6700000762939
36.4350353,3.16000008583069
36.4506603,-4.05999994277954
36.4662853,-10.3400001525879
36.4819103,-15.3900003433228
36.4975353,-19.3199996948242
36.5131603,-22.2999992370605
36.5287853,-24.4400005340576
36.5444103,-25.6700000762939
36.5600353,-25.7900009155273
36.5756603,-24.5200004577637
36.5912853,-22.0100002288818
36.6069103,-19.0200004577637
36.6225353,-16.75
36.6381603,-16.25
36.6537853,-17.8099994659424
36.6694103,-20.8099994659424
36.6850353,-24.2099990844727
36.7006603,-27.1499996185303
36.7162853,-29.2800006866455
36.7319103,-30.6800003051758
36.7475353,-31.6700000762939
36.7631603,-32.4900016784668
36.7787853,-33.25
36.7944103,-33.9199981689453
36.8100353,-34.4000015258789
36.8256603,-34.4799995422363
36.8412853,-33.7200012207031
36.8569103,-31.1900005340576
36.8725353,-25.3700008392334
36.8881603,-15.0900001525879
36.9037853,-0.819999992847443
36.9194103,15.0100002288818
36.9350353,29.1000003814697
36.9506603,38.7000007629395
36.9662853,42.6699981689453
36.9819103,41.810001373291
36.9975353,38.3300018310547
37.0131603,34.6199989318848
37.0287853,32.2299995422363
37.0444103,31.4099998474121
37.0600353,31.2800006866455
37.0756603,30.4300003051758
37.0912853,27.6599998474121
37.1069103,22.6200008392334
37.1225353,15.9099998474121
37.1381603,8.94999980926514
37.1537853,3.25999999046326
37.1694103,-0.400000005960464
37.1850353,-2.27999997138977
37.2006603,-3.24000000953674
37.2162853,-4.1399998664856
37.2319103,-5.67999982833862
37.2475353,-8.38000011444092
37.2631603,-12.1899995803833
37.2787853,-16.3700008392334
37.2944103,-20.0400009155273
37.3100353,-22.6299991607666
37.3256603,-23.8199996948242
37.3412853,-23.3299999237061
37.3569103,-21.2399997711182
37.3725353,-18.1499996185303
37.3881603,-14.9499998092651
37.4037853,-12.210000038147
37.4194103,-9.67000007629395
37.4350353,-6.3899998664856
37.4506603,-1.39999997615814
37.4662853,6.01000022888184
37.4819103,16.5400009155273
37.4975353,30.6000003814697
37.5131603,47.3499984741211
37.5287853,64.3499984741211
37.5444103,78.4100036621094
37.5600353,87.3199996948242
37.5756603,90.8000030517578
37.5912853,90.0800018310547
37.6069103,86.6999969482422
37.6225353,81.6999969482422
37.6381603,75.6399993896484
37.6537853,68.8499984741211
37.6694103,61.6300010681152
37.6850353,54.2799987792969
37.7006603,46.9799995422363
37.7162853,39.7400016784668
37.7319103,32.8400001525879
37.7475353,26.9599990844727
37.7631603,22.8600006103516
37.7787853,20.7299995422363
37.7944103,19.9200000762939
37.8100353,19.4200000762939
37.8256603,18.5699996948242
37.8412853,17.1100006103516
37.8569103,14.7399997711182
37.8725353,11.0299997329712
37.8881603,5.82000017166138
37.9037853,-0.150000005960464
37.9194103,-5.34999990463257
37.9350353,-8.25
37.9506603,-8.18000030517578
37.9662853,-5.65000009536743
37.9819103,-2.01999998092651
37.9975353,1
38.0131603,2.0699999332428
38.0287853,0.620000004768372
38.0444103,-2.70000004768372
38.0600353,-6.17000007629395
38.0756603,-7.34999990463257
38.0912853,-4.07999992370605
38.1069103,4.46000003814697
38.1225353,17.2600002288818
38.1381603,31.6900005340576
38.1537853,44.5800018310547
38.1694103,53.4599990844727
38.1850353,57.4900016784668
38.2006603,57.4199981689453
38.2162853,54.7700004577637
38.2319103,50.7200012207031
38.2475353,45.6300010681152
38.2631603,39.2799987792969
38.2787853,31.4599990844727
38.2944103,22.3700008392334
38.3100353,12.7299995422363
38.3256603,3.65000009536743
38.3412853,-3.53999996185303
38.3569103,-7.61999988555908
38.3725353,-8.02999973297119
38.3881603,-5.32000017166138
38.4037853,-1.05999994277954
38.4194103,2.78999996185303
38.4350353,4.67999982833862
38.4506603,3.98000001907349
38.4662853,1.12000000476837
38.4819103,-2.76999998092651
38.4975353,-6.63000011444092
38.5131603,-10.1000003814697
38.5287853,-13.5500001907349
38.5444103,-17.5599994659424
38.5600353,-22.2000007629395
38.5756603,-26.9799995422363
38.5912853,-31.2999992370605
38.6069103,-34.8699989318848
38.6225353,-37.7700004577637
38.6381603,-40.2700004577637
38.6537853,-42.4300003051758
38.6694103,-43.6800003051758
38.6850353,-42.6199989318848
38.7006603,-37.4500007629395
38.7162853,-26.7900009155273
38.7319103,-10.6199998855591
38.7475353,9.09000015258789
38.7631603,28.8999996185303
38.7787853,45.0999984741211
38.7944103,55.1199989318848
38.8100353,58.0999984741211
38.8256603,54.689998626709
38.8412853,46.560001373291
38.8569103,35.7900009155273
38.8725353,24.1299991607666
38.8881603,12.7700004577637
38.9037853,2.44000005722046
38.9194103,-6.57000017166138
38.9350353,-14.3999996185303
38.9506603,-21.3099994659424
38.9662853,-27.3899993896484
38.9819103,-32.5900001525879
38.9975353,-36.6399993896484
39.0131603,-39.1199989318848
39.0287853,-39.8699989318848
39.0444103,-39.4000015258789
39.0600353,-38.6500015258789
39.0756603,-38.2700004577637
39.0912853,-38.2000007629395
39.1069103,-38.060001373291
39.1225353,-37.6699981689453
39.1381603,-37.1699981689453
39.1537853,-36.7299995422363
39.1694103,-36.2700004577637
39.1850353,-35.5
39.2006603,-34.3199996948242
39.2162853,-33.0200004577637
39.2319103,-31.9200000762939
39.2475353,-30.9300003051758
39.2631603,-29.6200008392334
39.2787853,-27.5300006866455
39.2944103,-24.3700008392334
39.3100353,-19.8799991607666
39.3256603,-13.5200004577637
39.3412853,-4.1100001335144
39.3569103,9.67000007629395
39.3725353,27.8400001525879
39.3881603,47.8499984741211
39.4037853,65.2200012207031
39.4194103,75.5800018310547
39.4350353,76.8199996948242
39.4506603,69.9800033569336
39.4662853,58.6699981689453
39.4819103,46.939998626709
39.4975353,37.5200004577637
39.5131603,30.9500007629395
39.5287853,25.8999996185303
39.5444103,20.2600002288818
39.5600353,12.4399995803833
39.5756603,2.4300000667572
39.5912853,-8.21000003814697
39.6069103,-17.2800006866455
39.6225353,-22.9899997711182
39.6381603,-24.7999992370605
39.6537853,-23.5599994659424
39.6694103,-21.0300006866455
39.6850353,-19.0300006866455
39.7006603,-18.6100006103516
39.7162853,-19.7600002288818
39.7319103,-21.7700004577637
39.7475353,-23.8600006103516
39.7631603,-25.5799999237061
39.7787853,-26.8899993896484
39.7944103,-28.1299991607666
39.8100353,-29.6700000762939
39.8256603,-31.7000007629395
39.8412853,-34.1199989318848
39.8569103,-36.7799987792969
39.8725353,-39.5
39.8881603,-41.9900016784668
39.9037853,-43.9300003051758
39.9194103,-45.1399993896484
39.9350353,-45.5499992370605
39.9506603,-45.0900001525879
39.9662853,-43.4199981689453
39.9819103,-39.5999984741211
39.9975353,-31.8999996185303
40.0131603,-18.6100006103516
40.0287853,0.159999996423721
40.0444103,21.7199993133545
40.0600353,41.7200012207031
40.0756603,56.3899993896484
40.0912853,63.939998626709
40.1069103,64.5800018310547
40.1225353,59.7299995422363
40.1381603,51.4099998474121
40.1537853,41.9900016784668
40.1694103,33.7400016784668
40.1850353,27.8400001525879
40.2006603,23.75
40.2162853,19.9899997711182
40.2319103,15.6599998474121
40.2475353,11.0900001525879
40.2631603,7.30999994277954
40.2787853,5.17999982833862
40.2944103,4.88000011444092
40.3100353,5.80999994277954
40.3256603,6.84999990463257
40.3412853,6.94999980926514
40.3569103,5.6100001335144
40.3725353,3.10999989509583
40.3881603,0.189999997615814
40.4037853,-2.41000008583069
40.4194103,-4.40999984741211
40.4350353,-6.15000009536743
40.4506603,-8.25
40.4662853,-10.9700002670288
40.4819103,-14.1099996566772
40.4975353,-17.1900005340576
40.5131603,-19.6399993896484
40.5287853,-21.1000003814697
40.5444103,-21.6599998474121
40.5600353,-21.6000003814697
40.5756603,-21.0599994659424
40.5912853,-19.8899993896484
40.6069103,-17.6399993896484
40.6225353,-13.3800001144409
40.6381603,-5.75
40.6537853,6
40.6694103,20.8899993896484
40.6850353,36.0499992370605
40.7006603,47.8699989318848
40.7162853,53.6199989318848
40.7319103,52.6599998474121
40.7475353,46.5699996948242
40.7631603,38.3600006103516
40.7787853,31.0799999237061
40.7944103,26.4300003051758
40.8100353,23.9699993133545
40.8256603,21.6499996185303
40.8412853,17.3299999237061
40.8569103,10.3500003814697
40.8725353,1.89999997615814
40.8881603,-5.80000019073486
40.9037853,-10.8800001144409
40.9194103,-12.6800003051758
40.9350353,-11.9399995803833
40.9506603,-10.0299997329712
40.9662853,-8.01000022888184
40.9819103,-6.21000003814697
40.9975353,-4.46999979019165
41.0131603,-2.60999989509583
41.0287853,-0.839999973773956
41.0444103,0.0799999982118607
41.0600353,-0.759999990463257
41.0756603,-3.79999995231628
41.0912853,-8.55000019073486
41.1069103,-14.0900001525879
41.1225353,-19.6900005340576
41.1381603,-24.8899993896484
41.1537853,-29.1599998474121
41.1694103,-31.9599990844727
41.1850353,-33.0400009155273
41.2006603,-32.75
41.2162853,-31.7099990844727
41.2319103,-30.3799991607666
41.2475353,-28.5400009155273
41.2631603,-25.1800003051758
41.2787853,-18.6800003051758
41.2944103,-7.51999998092651
41.3100353,8.52999973297119
41.3256603,27.6399993896484
41.3412853,46.3199996948242
41.3569103,60.8400001525879
41.3725353,68.5899963378906
41.3881603,68.9499969482422
41.4037853,63.2999992370605
41.4194103,54.3699989318848
41.4350353,44.9099998474121
41.4506603,36.6199989318848
41.4662853,29.7900009155273
41.4819103,23.7800006866455
41.4975353,17.7399997711182
41.5131603,11.1999998092651
41.5287853,4.07000017166138
41.5444103,-3.15000009536743
41.5600353,-9.5600004196167
41.5756603,-14.1400003433228
41.5912853,-16.3400001525879
41.6069103,-16.2399997711182
41.6225353,-14.6700000762939
41.6381603,-12.9899997711182
41.6537853,-12.3699998855591
41.6694103,-13.2200002670288
41.6850353,-15.1800003051758
41.7006603,-17.3600006103516
41.7162853,-18.7900009155273
41.7319103,-18.9400005340576
41.7475353,-17.9699993133545
41.7631603,-16.5699996948242
41.7787853,-15.6300001144409
41.7944103,-15.9399995803833
41.8100353,-17.8899993896484
41.8256603,-21.2000007629395
41.8412853,-24.9300003051758
41.8569103,-27.7399997711182
41.8725353,-28.5699996948242
41.8881603,-27.0400009155273
41.9037853,-23.2099990844727
41.9194103,-16.8600006103516
41.9350353,-7.36999988555908
41.9506603,5.44999980926514
41.9662853,20.3199996948242
41.9819103,34.3300018310547
41.9975353,44.3199996948242
42.0131603,48.439998626709
42.0287853,46.689998626709
42.0444103,40.689998626709
42.0600353,32.9799995422363
42.0756603,25.8899993896484
42.0912853,20.4099998474121
42.1069103,16.1200008392334
42.1225353,12.1300001144409
42.1381603,7.98999977111816
42.1537853,3.58999991416931
42.1694103,-1.16999995708466
42.1850353,-6.3600001335144
42.2006603,-11.4399995803833
42.2162853,-15.4200000762939
42.2319103,-17.4400005340576
42.2475353,-17.5200004577637
42.2631603,-16.8299999237061
42.2787853,-16.9799995422363
42.2944103,-19.1000003814697
42.3100353,-23.0900001525879
42.3256603,-27.6800003051758
42.3412853,-31.0799999237061
42.3569103,-31.9899997711182
42.3725353,-30.3500003814697
42.3881603,-27.2099990844727
42.4037853,-23.8400001525879
42.4194103,-21.0200004577637
42.4350353,-19.1800003051758
42.4506603,-18.6599998474121
42.4662853,-19.3099994659424
42.4819103,-20.2199993133545
42.4975353,-20.3500003814697
42.5131603,-19.4599990844727
42.5287853,-18.1100006103516
42.5444103,-16.8600006103516
42.5600353,-15.4099998474121
42.5756603,-12.3400001525879
42.5912853,-5.78000020980835
42.6069103,5.44999980926514
42.6225353,20.7700004577637
42.6381603,37.4300003051758
42.6537853,51.4300003051758
42.6694103,59.2599983215332
42.6850353,59.5999984741211
42.7006603,53.5999984741211
42.7162853,43.810001373291
42.7319103,32.939998626709
42.7475353,23.0699996948242
42.7631603,15.2299995422363
42.7787853,9.43000030517578
42.7944103,4.90000009536743
42.8100353,0.620000004768372
42.8256603,-4.17999982833862
42.8412853,-9.52999973297119
42.8569103,-14.6199998855591
42.8725353,-18.1499996185303
42.8881603,-19.3799991607666
42.9037853,-18.6900005340576
42.9194103,-17.1900005340576
42.9350353,-15.8000001907349
42.9506603,-14.8500003814697
42.9662853,-14.3199996948242
42.9819103,-14.1599998474121
42.9975353,-14.3800001144409
43.0131603,-14.9700002670288
43.0287853,-15.6800003051758
43.0444103,-16.0200004577637
43.0600353,-15.5200004577637
43.0756603,-14.0299997329712
43.0912853,-11.8999996185303
43.1069103,-9.71000003814697
43.1225353,-7.98999977111816
43.1381603,-6.90999984741211
43.1537853,-6.40999984741211
43.1694103,-6.3899998664856
43.1850353,-6.82000017166138
43.2006603,-7.34000015258789
43.2162853,-6.84000015258789
43.2319103,-3.47000002861023
43.2475353,4.30999994277954
43.2631603,16.1299991607666
43.2787853,29.2900009155273
43.2944103,39.9700012207031
43.3100353,45.2000007629395
43.3256603,44.0099983215332
43.3412853,37.5900001525879
43.3569103,28.5599994659424
43.3725353,19.7900009155273
43.3881603,13.2600002288818
43.4037853,9.22999954223633
43.4194103,6.34999990463257
43.4350353,2.83999991416931
43.4506603,-1.98000001907349
43.4662853,-6.96000003814697
43.4819103,-9.94999980926514
43.4975353,-9.44999980926514
43.5131603,-5.71999979019165
43.5287853,-0.560000002384186
43.5444103,3.79999995231628
43.5600353,5.94999980926514
43.5756603,5.78999996185303
43.5912853,4.1100001335144
43.6069103,1.76999998092651
43.6225353,-0.720000028610229
43.6381603,-3.39000010490417
43.6537853,-6.44999980926514
43.6694103,-10.0200004577637
43.6850353,-13.6999998092651
43.7006603,-16.8199996948242
43.7162853,-18.9400005340576
43.7319103,-19.9699993133545
43.7475353,-20.1299991607666
43.7631603,-19.9200000762939
43.7787853,-20.0799999237061
43.7944103,-21.0799999237061
43.8100353,-22.6000003814697
43.8256603,-23.1299991607666
43.8412853,-20.2099990844727
43.8569103,-11.75
43.8725353,2.16000008583069
43.8881603,18.5400009155273
43.9037853,32.4799995422363
43.9194103,39.7400016784668
43.9350353,38.7999992370605
43.9506603,31.4899997711182
43.9662853,21.8199996948242
43.9819103,13.6700000762939
43.9975353,8.89000034332275
44.0131603,6.8899998664856
44.0287853,5.71999979019165
44.0444103,3.61999988555908
44.0600353,-0.140000000596046
44.0756603,-5.17999982833862
44.0912853,-10.3199996948242
44.1069103,-14.2200002670288
44.1225353,-15.8599996566772
44.1381603,-15
44.1537853,-12.2600002288818
44.1694103,-8.94999980926514
44.1850353,-6.40000009536743
44.2006603,-5.26999998092651
44.2162853,-5.40999984741211
44.2319103,-6.44000005722046
44.2475353,-8.21000003814697
44.2631603,-10.6899995803833
44.2787853,-13.5100002288818
44.2944103,-15.8900003433228
44.3100353,-17.1100006103516
44.3256603,-17.0599994659424
44.3412853,-16.3999996185303
44.3569103,-16.1399993896484
44.3725353,-16.7700004577637
44.3881603,-18.0499992370605
44.4037853,-19.2600002288818
44.4194103,-19.6599998474121
44.4350353,-18.3500003814697
44.4506603,-13.960000038147
44.4662853,-5.19000005722046
44.4819103,7.92000007629395
44.4975353,23.2299995422363
44.5131603,37.2099990844727
44.5287853,46.6199989318848
44.5444103,49.75
44.5600353,46.7400016784668
44.5756603,39.2900009155273
44.5912853,30.1399993896484
44.6069103,21.8799991607666
44.6225353,15.8800001144409
44.6381603,11.9300003051758
44.6537853,8.88000011444092
44.6694103,5.42000007629395
44.6850353,0.839999973773956
44.7006603,-4.65000009536743
44.7162853,-10.2700004577637
44.7319103,-15.1000003814697
44.7475353,-18.6299991607666
44.7631603,-20.9200000762939
44.7787853,-22.2199993133545
44.7944103,-22.6299991607666
44.8100353,-22.1100006103516
44.8256603,-20.9400005340576
44.8412853,-19.6700000762939
44.8569103,-18.6499996185303
44.8725353,-17.6499996185303
44.8881603,-16.0799999237061
44.9037853,-13.6800003051758
44.9194103,-11.1700000762939
44.9350353,-10.039999961853
44.9506603,-11.6099996566772
44.9662853,-16.1499996185303
44.9819103,-22.5200004577637
44.9975353,-28.6700000762939
45.0131603,-32.7700004577637
45.0287853,-34.1699981689453
45.0444103,-33.2599983215332
45.0600353,-30.4500007629395
45.0756603,-25.25
45.0912853,-16.2800006866455
45.1069103,-2.5
45.1225353,15.3400001525879
45.1381603,34.1800003051758
45.1537853,49.8199996948242
45.1694103,58.7999992370605
45.1850353,59.7999992370605
45.2006603,53.939998626709
45.2162853,44.1100006103516
45.2319103,33.3699989318848
45.2475353,23.8600006103516
45.2631603,16.6499996185303
45.2787853,11.9799995422363
45.2944103,9.21000003814697
45.3100353,6.98000001907349
45.3256603,4.05999994277954
45.3412853,0.340000003576279
45.3569103,-3.03999996185303
45.3725353,-4.75
45.3881603,-4.30999994277954
45.4037853,-2.33999991416931
45.4194103,0.0599999986588955
45.4350353,1.80999994277954
45.4506603,2.24000000953674
45.4662853,1.3400000333786
45.4819103,-0.379999995231628
45.4975353,-2.33999991416931
45.5131603,-4.17999982833862
45.5287853,-5.90999984741211
45.5444103,-7.78000020980835
45.5600353,-10.1000003814697
45.5756603,-13.0500001907349
45.5912853,-16.4500007629395
45.6069103,-19.7000007629395
45.6225353,-22.0400009155273
45.6381603,-23.1499996185303
45.6537853,-23.3600006103516
45.6694103,-23.2999992370605
45.6850353,-23.3199996948242
45.7006603,-23.3299999237061
45.7162853,-22.7600002288818
45.7319103,-20.4400005340576
45.7475353,-14.6499996185303
45.7631603,-3.99000000953674
45.7787853,11.3599996566772
45.7944103,28.9400005340576
45.8100353,44.5699996948242
45.8256603,54.2200012207031
45.8412853,55.7200012207031
45.8569103,49.3199996948242
45.8725353,37.2900009155273
45.8881603,23.0200004577637
45.9037853,9.86999988555908
45.9194103,0.0799999982118607
45.9350353,-5.78000020980835
45.9506603,-8.55000019073486
45.9662853,-9.75
45.9819103,-10.8000001907349
45.9975353,-12.3000001907349
46.0131603,-14.039999961853
46.0287853,-15.3900003433228
46.0444103,-15.9099998474121
46.0600353,-15.4499998092651
46.0756603,-14.0900001525879
46.0912853,-12.0900001525879
46.1069103,-9.86999988555908
46.1225353,-7.8600001335144
46.1381603,-6.25
46.1537853,-5.15999984741211
46.1694103,-4.71999979019165
46.1850353,-5.01000022888184
46.2006603,-5.84000015258789
46.2162853,-6.82000017166138
46.2319103,-7.53000020980835
46.2475353,-7.6100001335144
46.2631603,-7.01999998092651
46.2787853,-6.30000019073486
46.2944103,-6.46000003814697
46.3100353,-8.27000045776367
46.3256603,-11.6599998474121
46.3412853,-15.4700002670288
46.3569103,-17.6599998474121
46.3725353,-15.8199996948242
46.3881603,-8.13000011444092
46.4037853,5.55000019073486
46.4194103,23.1299991607666
46.4350353,40.5400009155273
46.4506603,53.2799987792969
46.4662853,58.25
46.4819103,54.7299995422363
46.4975353,44.4199981689453
46.5131603,30.6299991607666
46.5287853,16.8600006103516
46.5444103,5.73999977111816
46.5600353,-1.4099999666214
46.5756603,-4.71000003814697
46.5912853,-5.44000005722046
46.6069103,-5.51000022888184
46.6225353,-6.44999980926514
46.6381603,-8.76000022888184
46.6537853,-12.0200004577637
46.6694103,-15.4200000762939
46.6850353,-18.1299991607666
46.7006603,-19.5
46.7162853,-19.2999992370605
46.7319103,-17.8600006103516
46.7475353,-15.8500003814697
46.7631603,-14.1199998855591
46.7787853,-13.2700004577637
46.7944103,-13.3900003433228
46.8100353,-14.0100002288818
46.8256603,-14.539999961853
46.8412853,-14.539999961853
46.8569103,-13.9300003051758
46.8725353,-13.1300001144409
46.8881603,-12.789999961853
46.9037853,-13.2700004577637
46.9194103,-14.2200002670288
46.9350353,-14.8400001525879
46.9506603,-14.4300003051758
46.9662853,-12.8999996185303
46.9819103,-10.7799997329712
46.9975353,-8.6899995803833
47.0131603,-6.46999979019165
47.0287853,-2.94000005722046
47.0444103,3.48000001907349
47.0600353,13.4399995803833
47.0756603,25.8799991607666
47.0912853,38.2700004577637
47.1069103,47.6100006103516
47.1225353,51.7599983215332
47.1381603,50.4599990844727
47.1537853,45.2000007629395
47.1694103,38.1300010681152
47.1850353,30.9500007629395
47.2006603,24.4200000762939
47.2162853,18.4300003051758
47.2319103,12.4300003051758
47.2475353,5.94999980926514
47.2631603,-1.01999998092651
47.2787853,-7.98000001907349
47.2944103,-13.8500003814697
47.3100353,-17.3299999237061
47.3256603,-17.4899997711182
47.3412853,-14.460000038147
47.3569103,-9.51000022888184
47.3725353,-4.34999990463257
47.3881603,-0.200000002980232
47.4037853,2.44000005722046
47.4194103,3.5699999332428
47.4350353,3.29999995231628
47.4506603,1.97000002861023
47.4662853,0.200000002980232
47.4819103,-1.38999998569489
47.4975353,-2.52999997138977
47.5131603,-3.29999995231628
47.5287853,-3.94000005722046
47.5444103,-4.65999984741211
47.5600353,-5.6399998664856
47.5756603,-7.09000015258789
47.5912853,-9.22000026702881
47.6069103,-12.1700000762939
47.6225353,-15.8199996948242
47.6381603,-19.6100006103516
47.6537853,-22.8899993896484
47.6694103,-25.2199993133545
47.6850353,-26.3500003814697
47.7006603,-25.9400005340576
47.7162853,-23.1900005340576
47.7319103,-16.8199996948242
47.7475353,-5.80000019073486
47.7631603,9.47000026702881
47.7787853,26.8099994659424
47.7944103,42.8899993896484
47.8100353,54.7700004577637
47.8256603,60.8699989318848
47.8412853,61.1300010681152
47.8569103,56.6800003051758
47.8725353,49.3600006103516
47.8881603,40.9900016784668
47.9037853,32.6300010681152
47.9194103,24.3500003814697
47.9350353,15.8199996948242
47.9506603,7.1399998664856
47.9662853,-1.01999998092651
47.9819103,-7.78999996185303
47.9975353,-12.4499998092651
48.0131603,-14.7299995422363
48.0287853,-15
48.0444103,-14
48.0600353,-12.4099998474121
48.0756603,-10.6099996566772
48.0912853,-8.85000038146973
48.1069103,-7.34000015258789
48.1225353,-6.07999992370605
48.1381603,-4.84999990463257
48.1537853,-3.20000004768372
48.1694103,-0.589999973773956
48.1850353,3.50999999046326
48.2006603,9.75
48.2162853,19.0900001525879
48.2319103,33.0099983215332
48.2475353,53.1800003051758
48.2631603,80.2300033569336
48.2787853,112.48999786377
48.2944103,145.929992675781
48.3100353,175.399993896484
48.3256603,196.100006103516
48.3412853,204.789993286133
48.3569103,201.059997558594
48.3725353,187.679992675781
48.3881603,169.300003051758
48.4037853,150.389999389648
48.4194103,133.649993896484
48.4350353,119.76000213623
48.4506603,108
48.4662853,97.1800003051758
48.4819103,86.4100036621094
48.4975353,75.3899993896484
48.5131603,64.25
48.5287853,53.3499984741211
48.5444103,42.9700012207031
48.5600353,33.2400016784668
48.5756603,24.1100006103516
48.5912853,15.4799995422363
48.6069103,7.23000001907349
48.6225353,-0.689999997615814
48.6381603,-8.3100004196167
48.6537853,-15.6000003814697
48.6694103,-22.5300006866455
48.6850353,-29.4300003051758
48.7006603,-38.4300003051758
48.7162853,-55.2700004577637
48.7319103,-88.8300018310547
48.7475353,-147.419998168945
48.7631603,-233.970001220703
48.7787853,-327.679992675781
48.7944103,-327.679992675781
48.8100353,-327.679992675781
48.8256603,-327.679992675781
48.8412853,-327.679992675781
48.8569103,-327.679992675781
48.8725353,-327.679992675781
48.8881603,-327.679992675781
48.9037853,-327.679992675781
48.9194103,-327.679992675781
48.9350353,-327.679992675781
48.9506603,-327.679992675781
48.9662853,-323.660003662109
48.9819103,-299.410003662109
48.9975353,-271.850006103516
49.0131603,-239.839996337891
49.0287853,-202.860000610352
49.0444103,-162.389999389648
49.0600353,-121.160003662109
49.0756603,-81.3199996948242
49.0912853,-44.0999984741211
49.1069103,-10.4700002670288
49.1225353,18.3600006103516
49.1381603,41.6399993896484
49.1537853,60.0099983215332
49.1694103,75.4499969482422
49.1850353,89.8099975585938
49.2006603,103.319999694824
49.2162853,114.599998474121
49.2319103,121.900001525879
49.2475353,124.699996948242
49.2631603,124.680000305176
49.2787853,125.599998474121
49.2944103,131.639999389648
49.3100353,145
49.3256603,164.330001831055
49.3412853,185.009994506836
49.3569103,201.369995117188
49.3725353,209.550003051758
49.3881603,209.220001220703
49.4037853,202.830001831055
49.4194103,193.740005493164
49.4350353,184.630004882813
49.4506603,176.970001220703
49.4662853,170.929992675781
49.4819103,165.679992675781
49.4975353,160.130004882813
49.5131603,153.740005493164
49.5287853,146.669998168945
49.5444103,139.440002441406
49.5600353,132.589996337891
49.5756603,126.610000610352
49.5912853,121.98999786377
49.6069103,118.819999694824
49.6225353,116.599998474121
49.6381603,114.629997253418
49.6537853,112.51000213623
49.6694103,110.279998779297
49.6850353,108.410003662109
49.7006603,108.319999694824
49.7162853,112.879997253418
49.7319103,126.769996643066
49.7475353,155.389999389648
49.7631603,200.679992675781
49.7787853,255.600006103516
49.7944103,304.559997558594
49.8100353,327.670013427734
49.8256603,327.670013427734
49.8412853,312.160003662109
49.8569103,280.799987792969
49.8725353,249.699996948242
49.8881603,224.809997558594
49.9037853,206.860000610352
49.9194103,193.300003051758
49.9350353,180.919998168945
49.9506603,167.580001831055
49.9662853,152.759994506836
49.9819103,137.100006103516
49.9975353,121.589996337891
50.0131603,106.959999084473
50.0287853,93.4700012207031
50.0444103,80.129997253418
50.0600353,61.7900009155273
50.0756603,26.6100006103516
50.0912853,-38.6100006103516
50.1069103,-136.699996948242
50.1225353,-254.240005493164
50.1381603,-327.679992675781
50.1537853,-327.679992675781
50.1694103,-327.679992675781
50.1850353,-327.679992675781
50.2006603,-327.679992675781
50.2162853,-327.679992675781
50.2319103,-327.679992675781
50.2475353,-327.679992675781
50.2631603,-327.679992675781
50.2787853,-327.679992675781
50.2944103,-317.519989013672
50.3100353,-299.649993896484
50.3256603,-280.059997558594
50.3412853,-259.429992675781
50.3569103,-238.970001220703
50.3725353,-219.580001831055
50.3881603,-201.570007324219
50.4037853,-184.779998779297
50.4194103,-168.830001831055
50.4350353,-153.380004882813
50.4506603,-138.289993286133
50.4662853,-123.569999694824
50.4819103,-109.300003051758
50.4975353,-95.5999984741211
50.5131603,-82.4800033569336
50.5287853,-69.6900024414063
50.5444103,-56
50.5600353,-39.1500015258789
50.5756603,-17.3199996948242
50.5912853,8.97999954223633
50.6069103,36.9000015258789
50.6225353,63.1100006103516
50.6381603,85.7399978637695
50.6537853,104.529998779297
50.6694103,119.930000305176
50.6850353,132.399993896484
50.7006603,142.669998168945
50.7162853,151.820007324219
50.7319103,160.880004882813
50.7475353,170.160003662109
50.7631603,179.149993896484
50.7787853,187.080001831055
50.7944103,193.820007324219
50.8100353,200.479995727539
50.8256603,208.869995117188
50.8412853,219.970001220703
50.8569103,232.630004882813
50.8725353,243.699996948242
50.8881603,249.669998168945
50.9037853,248.619995117188
50.9194103,241.259994506836
50.9350353,230.199996948242
50.9506603,218.279998779297
50.9662853,207.149993896484
50.9819103,197.089996337891
50.9975353,187.639999389648
51.0131603,178.089996337891
51.0287853,167.710006713867
51.0444103,155.949996948242
51.0600353,142.710006713867
51.0756603,128.369995117188
51.0912853,113.660003662109
51.1069103,99.3300018310547
51.1225353,86.2300033569336
51.1381603,75.1399993896484
51.1537853,66.5899963378906
51.1694103,60.439998626709
51.1850353,55.7900009155273
51.2006603,51.2400016784668
51.2162853,45.2299995422363
51.2319103,36.5900001525879
51.2475353,24.9599990844727
51.2631603,11.1499996185303
51.2787853,-3.0699999332428
51.2944103,-15.9399995803833
51.3100353,-26.6399993896484
51.3256603,-35.189998626709
51.3412853,-41.9599990844727
51.3569103,-47.4500007629395
51.3725353,-52.1300010681152
51.3881603,-56.2799987792969
51.4037853,-59.9199981689453
51.4194103,-62.5699996948242
51.4350353,-62.8199996948242
51.4506603,-58.1699981689453
51.4662853,-45.4900016784668
51.4819103,-21.7800006866455
51.4975353,15.1099996566772
51.5131603,65.9199981689453
51.5287853,127.879997253418
51.5444103,191.770004272461
51.5600353,242.949996948242
51.5756603,268.799987792969
51.5912853,266.269989013672
51.6069103,242.5
51.6225353,209.5
51.6381603,177.770004272461
51.6537853,152.740005493164
51.6694103,134.630004882813
51.6850353,120.680000305176
51.7006603,107.690002441406
51.7162853,93.6999969482422
51.7319103,77.8399963378906
51.7475353,56.9799995422363
51.7631603,20.7399997711182
51.7787853,-47.4700012207031
51.7944103,-157.970001220703
51.8100353,-299.480010986328
51.8256603,-327.679992675781
51.8412853,-327.679992675781
51.8569103,-327.679992675781
51.8725353,-327.679992675781
51.8881603,-327.679992675781
51.9037853,-327.679992675781
51.9194103,-327.679992675781
51.9350353,-327.679992675781
51.9506603,-327.679992675781
51.9662853,-327.679992675781
51.9819103,-327.679992675781
51.9975353,-327.679992675781
52.0131603,-306.730010986328
52.0287853,-279.929992675781
52.0444103,-247.830001831055
52.0600353,-210.830001831055
52.0756603,-171.460006713867
52.0912853,-133.580001831055
52.1069103,-100.540000915527
52.1225353,-73.879997253418
52.1381603,-53.1399993896484
52.1537853,-36.6800003051758
52.1694103,-22.5300006866455
52.1850353,-9.13000011444092
52.2006603,4.55999994277954
52.2162853,19.6700000762939
52.2319103,37.4900016784668
52.2475353,58.6300010681152
52.2631603,81.8099975585938
52.2787853,103.650001525879
52.2944103,120.059997558594
52.3100353,128
52.3256603,126.809997558594
52.3412853,118.360000610352
52.3569103,106.059997558594
52.3725353,93.3899993896484
52.3881603,82.6699981689453
52.4037853,74.6699981689453
52.4194103,68.9599990844727
52.4350353,64.4499969482422
52.4506603,59.7799987792969
52.4662853,54.060001373291
52.4819103,47.5200004577637
52.4975353,41.7099990844727
52.5131603,38.3300018310547
52.5287853,38.0299987792969
52.5444103,40.0299987792969
52.5600353,42.6699981689453
52.5756603,44.3699989318848
52.5912853,44.3499984741211
52.6069103,42.5200004577637
52.6225353,39.1100006103516
52.6381603,34.3800010681152
52.6537853,28.7199993133545
52.6694103,22.7000007629395
52.6850353,16.7999992370605
52.7006603,11.2700004577637
52.7162853,6.28000020980835
52.7319103,2.08999991416931
52.7475353,-1.10000002384186
52.7631603,-3.57999992370605
52.7787853,-5.98999977111816
52.7944103,-8.77999973297119
52.8100353,-11.6199998855591
52.8256603,-13.4200000762939
52.8412853,-13.1000003814697
52.8569103,-10.1999998092651
52.8725353,-4.84000015258789
52.8881603,3.20000004768372
52.9037853,14.789999961853
52.9194103,30.4099998474121
52.9350353,48.7799987792969
52.9506603,66.5800018310547
52.9662853,79.8399963378906
52.9819103,85.8499984741211
52.9975353,84.25
53.0131603,76.9899978637695
53.0287853,67
53.0444103,56.7799987792969
53.0600353,47.7299995422363
53.0756603,40.1500015258789
53.0912853,33.5200004577637
53.1069103,26.9300003051758
53.1225353,19.6900005340576
53.1381603,11.6999998092651
53.1537853,3.53999996185303
53.1694103,-3.75999999046326
53.1850353,-9.26000022888184
53.2006603,-12.5600004196167
53.2162853,-13.9200000762939
53.2319103,-13.9300003051758
53.2475353,-13.0699996948242
53.2631603,-11.710000038147
53.2787853,-10.3400001525879
53.2944103,-9.64000034332275
53.3100353,-10.289999961853
53.3256603,-12.7600002288818
53.3412853,-17
53.3569103,-22.3299999237061
53.3725353,-27.8199996948242
53.3881603,-32.810001373291
53.4037853,-37.0200004577637
53.4194103,-40.2599983215332
53.4350353,-42.25
53.4506603,-42.7299995422363
53.4662853,-41.5900001525879
53.4819103,-39.0200004577637
53.4975353,-35.6300010681152
53.5131603,-32.060001373291
53.5287853,-28.1299991607666
53.5444103,-22.3899993896484
53.5600353,-12.9200000762939
53.5756603,1.01999998092651
53.5912853,17.9799995422363
53.6069103,34.5299987792969
53.6225353,46.8400001525879
53.6381603,52.4099998474121
53.6537853,51.25
53.6694103,45.7400016784668
53.6850353,39.2799987792969
53.7006603,34.5900001525879
53.7162853,32.9000015258789
53.7319103,34.0299987792969
53.7475353,36.8600006103516
53.7631603,39.5699996948242
53.7787853,40.1399993896484
53.7944103,37.3300018310547
53.8100353,31.4799995422363
53.8256603,24.3999996185303
53.8412853,18.4099998474121
53.8569103,15.210000038147
53.8725353,15.2399997711182
53.8881603,17.8099994659424
53.9037853,21.3899993896484
53.9194103,24.1100006103516
53.9350353,24.5300006866455
53.9506603,22.0699996948242
53.9662853,16.8999996185303
53.9819103,9.51000022888184
53.9975353,0.660000026226044
54.0131603,-8.64999961853027
54.0287853,-17.4899997711182
54.0444103,-25.5100002288818
54.0600353,-33.1199989318848
54.0756603,-40.8199996948242
54.0912853,-48.3499984741211
54.1069103,-54.2799987792969
54.1225353,-56.7000007629395
54.1381603,-54.6300010681152
54.1537853,-48.689998626709
54.1694103,-40.2299995422363
54.1850353,-29.8700008392334
54.2006603,-17.4200000762939
54.2162853,-3.13000011444092
54.2319103,11.2600002288818
54.2475353,23.1800003051758
54.2631603,30.7800006866455
54.2787853,33.7400016784668
54.2944103,33.0200004577637
54.3100353,30.0300006866455
54.3256603,25.9599990844727
54.3412853,21.5799999237061
54.3569103,17.2999992370605
54.3725353,13.0500001907349
54.3881603,8.44999980926514
54.4037853,3.22000002861023
54.4194103,-2.38000011444092
54.4350353,-7.65000009536743
54.4506603,-11.539999961853
54.4662853,-13.1599998474121
54.4819103,-12.3699998855591
54.4975353,-9.90999984741211
54.5131603,-7.01999998092651
54.5287853,-4.86999988555908
54.5444103,-4.09000015258789
54.5600353,-4.71000003814697
54.5756603,-6.21999979019165
54.5912853,-7.98999977111816
54.6069103,-9.61999988555908
54.6225353,-11.0699996948242
54.6381603,-12.460000038147
54.6537853,-13.8900003433228
54.6694103,-15.4899997711182
54.6850353,-17.3199996948242
54.7006603,-19.0599994659424
54.7162853,-19.8899993896484
54.7319103,-19.1299991607666
54.7475353,-16.6299991607666
54.7631603,-12.5200004577637
54.7787853,-6.36999988555908
54.7944103,2.91000008583069
54.8100353,16.2000007629395
54.8256603,32.5499992370605
54.8412853,48.6800003051758
54.8569103,60.2599983215332
54.8725353,64.379997253418
54.8881603,60.9900016784668
54.9037853,52.4300003051758
54.9194103,41.8300018310547
54.9350353,31.7600002288818
54.9506603,23.5599994659424
54.9662853,17.3400001525879
54.9819103,12.5
54.9975353,8.15999984741211
55.0131603,3.71000003814697
55.0287853,-0.800000011920929
55.0444103,-4.76999998092651
55.0600353,-7.51000022888184
55.0756603,-8.77999973297119
55.0912853,-8.78999996185303
55.1069103,-8.02999973297119
55.1225353,-6.98000001907349
55.1381603,-6.01000022888184
55.1537853,-5.30999994277954
55.1694103,-5
55.1850353,-5.26000022888184
55.2006603,-6.25
55.2162853,-7.96000003814697
55.2319103,-10.1000003814697
55.2475353,-12.4200000762939
55.2631603,-14.5799999237061
55.2787853,-16.0799999237061
55.2944103,-16.4300003051758
55.3100353,-15.6199998855591
55.3256603,-14.3299999237061
55.3412853,-13.7600002288818
55.3569103,-14.8199996948242
55.3725353,-17.1800003051758
55.3881603,-19.3299999237061
55.4037853,-19.3099994659424
55.4194103,-15.6000003814697
55.4350353,-7.8899998664856
55.4506603,2.72000002861023
55.4662853,14.0799999237061
55.4819103,23.6299991607666
55.4975353,29.2199993133545
55.5131603,29.8700008392334
55.5287853,26.2099990844727
55.5444103,20.1000003814697
55.5600353,13.5600004196167
55.5756603,7.80000019073486
55.5912853,3.00999999046326
55.6069103,-1.33000004291534
55.6225353,-5.96000003814697
55.6381603,-11.1899995803833
55.6537853,-16.5200004577637
55.6694103,-20.7000007629395
55.6850353,-22.5
55.7006603,-21.2900009155273
55.7162853,-17.3700008392334
55.7319103,-11.8500003814697
55.7475353,-6.28000020980835
55.7631603,-1.89999997615814
55.7787853,1.00999999046326
55.7944103,2.99000000953674
55.8100353,4.69999980926514
55.8256603,6.25
55.8412853,7.1100001335144
55.8569103,6.53999996185303
55.8725353,4.19999980926514
55.8881603,0.419999986886978
55.9037853,-3.96000003814697
55.9194103,-8.02999973297119
55.9350353,-11.1099996566772
55.9506603,-13.1300001144409
55.9662853,-14.4700002670288
55.9819103,-15.5600004196167
55.9975353,-16.5200004577637
56.0131603,-16.7399997711182
56.0287853,-14.7299995422363
56.0444103,-8.80000019073486
56.0600353,1.75
56.0756603,15.7700004577637
56.0912853,30.2999992370605
56.1069103,41.7400016784668
56.1225353,47.2099990844727
56.1381603,45.5800018310547
56.1537853,37.689998626709
56.1694103,25.9200000762939
56.1850353,13.4200000762939
56.2006603,2.9300000667572
56.2162853,-4.09000015258789
56.2319103,-7.82000017166138
56.2475353,-9.46000003814697
56.2631603,-10.3500003814697
56.2787853,-11.1599998474121
56.2944103,-11.6999998092651
56.3100353,-11.4499998092651
56.3256603,-10.1599998474121
56.3412853,-8.15999984741211
56.3569103,-6.32999992370605
56.3725353,-5.75
56.3881603,-7.25
56.4037853,-10.9499998092651
56.4194103,-16.0400009155273
56.4350353,-21.2900009155273
56.4506603,-25.9200000762939
56.4662853,-30.0599994659424
56.4819103,-34.439998626709
56.4975353,-39.560001373291
56.5131603,-45
56.5287853,-49.3899993896484
56.5444103,-51.1300010681152
56.5600353,-49.3300018310547
56.5756603,-44.3800010681152
56.5912853,-37.6699981689453
56.6069103,-30.6299991607666
56.6225353,-24.0200004577637
56.6381603,-18.0400009155273
56.6537853,-12.8400001525879
56.6694103,-8.73999977111816
56.6850353,-6.07000017166138
56.7006603,-4.88000011444092
56.7162853,-4.76999998092651
56.7319103,-5
56.7475353,-4.75
56.7631603,-3.24000000953674
56.7787853,0.560000002384186
56.7944103,8.03999996185303
56.8100353,20.1800003051758
56.8256603,36.4599990844727
56.8412853,54.3800010681152
56.8569103,70.3600006103516
56.8725353,81.1800003051758
56.8881603,85.1100006103516
56.9037853,82.370002746582
56.9194103,74.879997253418
56.9350353,65.3600006103516
56.9506603,56.1399993896484
56.9662853,48.4599990844727
56.9819103,42.4199981689453
56.9975353,37.2099990844727
57.0131603,31.8600006103516
57.0287853,26.0100002288818
57.0444103,20.2600002288818
57.0600353,15.5900001525879
57.0756603,12.4799995422363
57.0912853,10.6199998855591
57.1069103,9.22000026702881
57.1225353,7.51999998092651
57.1381603,5.25
57.1537853,2.60999989509583
57.1694103,-0.00999999977648258
57.1850353,-2.53999996185303
57.2006603,-5.15999984741211
57.2162853,-8.05000019073486
57.2319103,-11.1899995803833
57.2475353,-14.2299995422363
57.2631603,-16.7299995422363
57.2787853,-18.4699993133545
57.2944103,-19.7000007629395
57.3100353,-20.6800003051758
57.3256603,-21.2600002288818
57.3412853,-21.0799999237061
57.3569103,-20.2000007629395
57.3725353,-19.2999992370605
57.3881603,-19.2000007629395
57.4037853,-20.1000003814697
57.4194103,-21.3299999237061
57.4350353,-21.3199996948242
57.4506603,-18.1200008392334
57.4662853,-10.289999961853
57.4819103,1.98000001907349
57.4975353,16.5300006866455
57.5131603,29.7700004577637
57.5287853,38.3400001525879
57.5444103,40.7400016784668
57.5600353,37.810001373291
57.5756603,31.7199993133545
57.5912853,24.5400009155273
57.6069103,17.6399993896484
57.6225353,11.8699998855591
57.6381603,8.01000022888184
57.6537853,7.03000020980835
57.6694103,10.1899995803833
57.6850353,19.1599998474121
57.7006603,36.2299995422363
57.7162853,63.9700012207031
57.7319103,103.529998779297
57.7475353,151.639999389648
57.7631603,198.919998168945
57.7787853,233.139999389648
57.7944103,246.080001831055
57.8100353,237.889999389648
57.8256603,215.779998779297
57.8412853,189.199996948242
57.8569103,165.320007324219
57.8725353,147.059997558594
57.8881603,133.699996948242
57.9037853,122.589996337891
57.9194103,109.970001220703
57.9350353,90.4400024414063
57.9506603,58.0400009155273
57.9662853,10.3999996185303
57.9819103,-48.1300010681152
57.9975353,-108.23999786377
58.0131603,-160.160003662109
58.0287853,-197.210006713867
58.0444103,-216.889999389648
58.0600353,-220.460006713867
58.0756603,-211.830001831055
58.0912853,-196.229995727539
58.1069103,-178.899993896484
58.1225353,-163.940002441406
58.1381603,-153.529998779297
58.1537853,-148.080001831055
58.1694103,-146.770004272461
58.1850353,-147.990005493164
58.2006603,-150
58.2162853,-151.740005493164
58.2319103,-153.580001831055
58.2475353,-157.25
58.2631603,-165.449996948242
58.2787853,-180.880004882813
58.2944103,-205.330001831055
58.3100353,-238.509994506836
58.3256603,-276.75
58.3412853,-312.230010986328
58.3569103,-327.679992675781
58.3725353,-327.679992675781
58.3881603,-325.299987792969
58.4037853,-299.059997558594
58.4194103,-268.970001220703
58.4350353,-241.199996948242
58.4506603,-217.679992675781
58.4662853,-195.910003662109
58.4819103,-170.929992675781
58.4975353,-138.970001220703
58.5131603,-100.319999694824
58.5287853,-59.0999984741211
58.5444103,-20.4899997711182
58.5600353,11.8800001144409
58.5756603,36.9599990844727
58.5912853,55.7999992370605
58.6069103,70.8899993896484
58.6225353,85.4000015258789
58.6381603,102.199996948242
58.6537853,122.639999389648
58.6694103,145.610000610352
58.6850353,167.740005493164
58.7006603,184.970001220703
58.7162853,194.399993896484
58.7319103,195.479995727539
58.7475353,189.929992675781
58.7631603,180.610000610352
58.7787853,170.220001220703
58.7944103,160.559997558594
58.8100353,152.449996948242
58.8256603,145.720001220703
58.8412853,139.630004882813
58.8569103,133.520004272461
58.8725353,127.370002746582
58.8881603,121.76000213623
58.9037853,117.379997253418
58.9194103,114.550003051758
58.9350353,112.860000610352
58.9506603,111.410003662109
58.9662853,109.370002746582
58.9819103,106.459999084473
58.9975353,102.790000915527
59.0131603,98.629997253418
59.0287853,94.4800033569336
59.0444103,90.9599990844727
59.0600353,88.3399963378906
59.0756603,86.25
59.0912853,83.9700012207031
59.1069103,80.8300018310547
59.1225353,76.5400009155273
59.1381603,71.4000015258789
59.1537853,66.3000030517578
59.1694103,62.2400016784668
59.1850353,59.7299995422363
59.2006603,58.8699989318848
59.2162853,59.939998626709
59.2319103,63.7000007629395
59.2475353,70.8899993896484
59.2631603,81.1699981689453
59.2787853,92.629997253418
59.2944103,102.26000213623
59.3100353,107.150001525879
59.3256603,105.680000305176
59.3412853,98.1100006103516
59.3569103,86.25
59.3725353,72.5
59.3881603,58.7299995422363
59.4037853,45.8899993896484
59.4194103,34.2599983215332
59.4350353,24.0400009155273
59.4506603,15.4899997711182
59.4662853,8.73999977111816
59.4819103,3.63000011444092
59.4975353,-0.170000001788139
59.5131603,-2.97000002861023
59.5287853,-4.94999980926514
59.5444103,-6.32999992370605
59.5600353,-7.30999994277954
59.5756603,-8.07999992370605
59.5912853,-9.02000045776367
59.6069103,-10.5699996948242
59.6225353,-12.9700002670288
59.6381603,-16.0100002288818
59.6537853,-19.25
59.6694103,-22.5400009155273
59.6850353,-25.9099998474121
59.7006603,-29.1200008392334
59.7162853,-31.7399997711182
59.7319103,-33.5900001525879
59.7475353,-34.7999992370605
59.7631603,-35.5699996948242
59.7787853,-35.8899993896484
59.7944103,-35.3899993896484
59.8100353,-33.060001373291
59.8256603,-27.3299999237061
59.8412853,-17.0699996948242
59.8569103,-2.88000011444092
59.8725353,12.539999961853
59.8881603,25.4400005340576
59.9037853,32.8300018310547
59.9194103,33.7000007629395
59.9350353,28.8299999237061
59.9506603,19.9099998474121
59.9662853,8.89000034332275
59.9819103,-2.25
59.9975353,-11.8400001525879
60.0131603,-18.9799995422363
60.0287853,-23.7700004577637
60.0444103,-27
60.0600353,-29.5799999237061
60.0756603,-32.0499992370605
60.0912853,-34.4099998474121
60.1069103,-36.25
60.1225353,-37.2099990844727
60.1381603,-37.2099990844727
60.1537853,-36.439998626709
60.1694103,-35.5200004577637
60.1850353,-35.3400001525879
60.2006603,-36.2999992370605
60.2162853,-37.8800010681152
60.2319103,-39.2200012207031
60.2475353,-39.9599990844727
60.2631603,-40.4900016784668
60.2787853,-41.4900016784668
60.2944103,-43.5299987792969
60.3100353,-46.8699989318848
60.3256603,-51.310001373291
60.3412853,-56.2900009155273
60.3569103,-60.8699989318848
60.3725353,-64.0100021362305
60.3881603,-64.6800003051758
60.4037853,-61.6199989318848
60.4194103,-53.5699996948242
60.4350353,-40.1500015258789
60.4506603,-22.8400001525879
60.4662853,-4.78999996185303
60.4819103,10.3500003814697
60.4975353,19.8999996185303
60.5131603,22.7099990844727
60.5287853,19.25
60.5444103,11.1700000762939
60.5600353,0.769999980926514
60.5756603,-9.85999965667725
60.5912853,-19.5499992370605
60.6069103,-28.0400009155273
60.6225353,-35.4300003051758
60.6381603,-41.5699996948242
60.6537853,-46.0200004577637
60.6694103,-48.4700012207031
60.6850353,-48.7400016784668
60.7006603,-46.8300018310547
60.7162853,-43.1100006103516
60.7319103,-38.6500015258789
60.7475353,-34.7999992370605
60.7631603,-32.3499984741211
60.7787853,-31.0900001525879
60.7944103,-30.0599994659424
60.8100353,-28.4099998474121
60.8256603,-26.1200008392334
60.8412853,-24.1499996185303
60.8569103,-23.7700004577637
60.8725353,-25.6499996185303
60.8881603,-29.4300003051758
60.9037853,-34.0699996948242
60.9194103,-38.3499984741211
60.9350353,-41.1399993896484
60.9506603,-41.6399993896484
60.9662853,-39.5200004577637
60.9819103,-34.4900016784668
60.9975353,-25.5900001525879
61.0131603,-11.8000001907349
61.0287853,6.40999984741211
61.0444103,26.3500003814697
61.0600353,43.9500007629395
61.0756603,55.5299987792969
61.0912853,59.0999984741211
61.1069103,55.1100006103516
61.1225353,46.1699981689453
61.1381603,35.689998626709
61.1537853,26.1700000762939
61.1694103,18.2299995422363
61.1850353,10.9899997711182
61.2006603,3.46000003814697
61.2162853,-4.38000011444092
61.2319103,-11.3699998855591
61.2475353,-15.7700004577637
61.2631603,-16.4400005340576
61.2787853,-13.8000001907349
61.2944103,-9.65999984741211
61.3100353,-5.94000005722046
61.3256603,-3.58999991416931
61.3412853,-2.52999997138977
61.3569103,-2.27999997138977
61.3725353,-2.52999997138977
61.3881603,-2.98000001907349
61.4037853,-3.44000005722046
61.4194103,-4.07000017166138
61.4350353,-5.32000017166138
61.4506603,-7.30999994277954
61.4662853,-9.52999973297119
61.4819103,-11.289999961853
61.4975353,-12.3000001907349
61.5131603,-12.9399995803833
61.5287853,-13.75
61.5444103,-14.2799997329712
61.5600353,-12.5
61.5756603,-5.90000009536743
61.5912853,6.32000017166138
61.6069103,22.0100002288818
61.6225353,37
61.6381603,47.3300018310547
61.6537853,51.0699996948242
61.6694103,48.7400016784668
61.6850353,42.4700012207031
61.7006603,34.6300010681152
61.7162853,26.8600006103516
61.7319103,19.75
61.7475353,13.3100004196167
61.7631603,7.21000003814697
61.7787853,1.26999998092651
61.7944103,-4.26000022888184
61.8100353,-8.77000045776367
61.8256603,-11.6999998092651
61.8412853,-12.9499998092651
61.8569103,-12.9099998474121
61.8725353,-12.0799999237061
61.8881603,-10.7799997329712
61.9037853,-9.23999977111816
61.9194103,-7.73999977111816
61.9350353,-6.6100001335144
61.9506603,-6.11999988555908
61.9662853,-6.42999982833862
61.9819103,-7.48000001907349
61.9975353,-9.05000019073486
62.0131603,-10.8599996566772
62.0287853,-12.710000038147
62.0444103,-14.4799995422363
62.0600353,-16.2600002288818
62.0756603,-18.1299991607666
62.0912853,-19.8999996185303
62.1069103,-20.5699996948242
62.1225353,-18.1599998474121
62.1381603,-10.4700002670288
62.1537853,3.20000004768372
62.1694103,20.9200000762939
62.1850353,38.75
62.2006603,52.5999984741211
62.2162853,59.8899993896484
62.2319103,60.2200012207031
62.2475353,55.3499984741211
62.2631603,48.2799987792969
62.2787853,41.689998626709
62.2944103,36.6300010681152
62.3100353,32.5299987792969
62.3256603,28.0499992370605
62.3412853,22.0799999237061
62.3569103,14.3500003814697
62.3725353,5.55999994277954
62.3881603,-2.97000002861023
62.4037853,-9.90999984741211
62.4194103,-14.539999961853
62.4350353,-17.1000003814697
62.4506603,-18.3700008392334
62.4662853,-18.9899997711182
62.4819103,-19.1200008392334
62.4975353,-18.5599994659424
62.5131603,-17.1800003051758
62.5287853,-15.3999996185303
62.5444103,-14.1400003433228
62.5600353,-14.1199998855591
62.5756603,-15.4099998474121
62.5912853,-17.5499992370605
62.6069103,-19.8500003814697
62.6225353,-21.7999992370605
62.6381603,-23.3400001525879
62.6537853,-24.4200000762939
62.6694103,-24.4699993133545
62.6850353,-22.1100006103516
62.7006603,-15.6599998474121
62.7162853,-4.1399998664856
62.7319103,11.6400003433228
62.7475353,28.9300003051758
62.7631603,43.9900016784668
62.7787853,53.7400016784668
62.7944103,56.9300003051758
62.8100353,54.3899993896484
62.8256603,48.1800003051758
62.8412853,40.3300018310547
62.8569103,32.0999984741211
62.8725353,24.0200004577637
62.8881603,16.3500003814697
62.9037853,9.30000019073486
62.9194103,3.10999989509583
62.9350353,-2.00999999046326
62.9506603,-6.03999996185303
62.9662853,-9.07999992370605
62.9819103,-11.2600002288818
62.9975353,-12.5299997329712
63.0131603,-12.8299999237061
63.0287853,-12.3599996566772
63.0444103,-11.6400003433228
63.0600353,-11.1499996185303
63.0756603,-11.1199998855591
63.0912853,-11.5600004196167
63.1069103,-12.3900003433228
63.1225353,-13.4899997711182
63.1381603,-14.5299997329712
63.1537853,-15.1999998092651
63.1694103,-15.4099998474121
63.1850353,-15.460000038147
63.2006603,-15.7399997711182
63.2162853,-16.5400009155273
63.2319103,-17.8500003814697
63.2475353,-19.1700000762939
63.2631603,-19.1100006103516
63.2787853,-15.6499996185303
63.2944103,-7.1399998664856
63.3100353,6.25
63.3256603,22.0100002288818
63.3412853,36.1599998474121
63.3569103,45.2200012207031
63.3725353,47.7099990844727
63.3881603,44.3499984741211
63.4037853,37.1800003051758
63.4194103,28.3899993896484
63.4350353,19.5300006866455
63.4506603,11.2200002670288
63.4662853,3.33999991416931
63.4819103,-4.40000009536743
63.4975353,-12
63.5131603,-18.7600002288818
63.5287853,-23.6299991607666
63.5444103,-25.8500003814697
63.5600353,-25.4500007629395
63.5756603,-23.3500003814697
63.5912853,-20.8500003814697
63.6069103,-18.8999996185303
63.6225353,-17.8299999237061
63.6381603,-17.3999996185303
63.6537853,-17.1499996185303
63.6694103,-16.5599994659424
63.6850353,-15.3699998855591
63.7006603,-13.6899995803833
63.7162853,-12.1000003814697
63.7319103,-11.0500001907349
63.7475353,-10.6199998855591
63.7631603,-10.8199996948242
63.7787853,-11.75
63.7944103,-13.2200002670288
63.8100353,-14.4399995803833
63.8256603,-14.1999998092651
63.8412853,-11.3100004196167
63.8569103,-4.65000009536743
63.8725353,6.6100001335144
63.8881603,22.1599998474121
63.9037853,39.6199989318848
63.9194103,55.0699996948242
63.9350353,65.129997253418
63.9506603,68.620002746582
63.9662853,66.4400024414063
63.9819103,60.25
63.9975353,51.5900001525879
64.0131603,41.6800003051758
64.0287853,31.3600006103516
64.0444103,20.9899997711182
64.0600353,10.6700000762939
64.0756603,0.699999988079071
64.0912853,-8.35000038146973
64.1069103,-15.6400003433228
64.1225353,-20.2299995422363
64.1381603,-21.5300006866455
64.1537853,-19.7999992370605
64.1694103,-16.2399997711182
64.1850353,-12.4799995422363
64.2006603,-9.9399995803833
64.2162853,-9.39000034332275
64.2319103,-10.75
64.2475353,-13.1000003814697
64.2631603,-15.2600002288818
64.2787853,-16.5400009155273
64.2944103,-17.3199996948242
64.3100353,-18.6100006103516
64.3256603,-21.0599994659424
64.3412853,-24.3700008392334
64.3569103,-27.6100006103516
64.3725353,-30.0400009155273
64.3881603,-31.3199996948242
64.4037853,-31.1200008392334
64.4194103,-28.7199993133545
64.4350353,-23.0900001525879
64.4506603,-13.3800001144409
64.4662853,0.189999997615814
64.4819103,16.1700000762939
64.4975353,32.2200012207031
64.5131603,45.8499984741211
64.5287853,55.1699981689453
64.5444103,59.0999984741211
64.5600353,57.5800018310547
64.5756603,51.5299987792969
64.5912853,42.6699981689453
64.6069103,32.8699989318848
64.6225353,23.5300006866455
64.6381603,15.1999998092651
64.6537853,7.67999982833862
64.6694103,0.600000023841858
64.6850353,-5.84999990463257
64.7006603,-10.9200000762939
64.7162853,-13.8900003433228
64.7319103,-14.8000001907349
64.7475353,-14.4799995422363
64.7631603,-14.1800003051758
64.7787853,-14.8800001144409
64.7944103,-16.7900009155273
64.8100353,-19.2700004577637
64.8256603,-21.25
64.8412853,-21.8500003814697
64.8569103,-20.8199996948242
64.8725353,-18.3799991607666
64.8881603,-14.9399995803833
64.9037853,-10.8699998855591
64.9194103,-6.69000005722046
64.9350353,-3.38000011444092
64.9506603,-1.94000005722046
64.9662853,-2.53999996185303
64.9819103,-4.26000022888184
64.9975353,-5.92999982833862
65.0131603,-6.71999979019165
65.0287853,-5.88000011444092
65.0444103,-2.47000002861023
65.0600353,4.32999992370605
65.0756603,14.1899995803833
65.0912853,25.0499992370605
65.1069103,33.7799987792969
65.1225353,37.9599990844727
65.1381603,37.2400016784668
65.1537853,33.0800018310547
65.1694103,27.4799995422363
65.1850353,21.7099990844727
65.2006603,16.1700000762939
65.2162853,10.8400001525879
65.2319103,5.67999982833862
65.2475353,0.709999978542328
65.2631603,-4.1399998664856
65.2787853,-8.97000026702881
65.2944103,-13.5600004196167
65.3100353,-17.4599990844727
65.3256603,-20.2999992370605
65.3412853,-21.7399997711182
65.3569103,-21.4400005340576
65.3725353,-19.3500003814697
65.3881603,-16.0499992370605
65.4037853,-12.5
65.4194103,-9.47999954223633
65.4350353,-7.57999992370605
65.4506603,-7.3899998664856
65.4662853,-9.21000003814697
65.4819103,-12.8199996948242
65.4975353,-17.5100002288818
65.5131603,-22.3899993896484
65.5287853,-26.6599998474121
65.5444103,-29.75
65.5600353,-31.3999996185303
65.5756603,-31.8299999237061
65.5912853,-31.7000007629395
65.6069103,-31.6299991607666
65.6225353,-31.3400001525879
65.6381603,-29.2299995422363
65.6537853,-22.9200000762939
65.6694103,-10.9399995803833
65.6850353,5.67999982833862
65.7006603,23.3899993896484
65.7162853,37.7799987792969
65.7319103,45.9500007629395
65.7475353,47.5800018310547
65.7631603,44.4099998474121
65.7787853,38.8600006103516
65.7944103,32.8800010681152
65.8100353,27.3299999237061
65.8256603,22.2600002288818
65.8412853,17.2600002288818
65.8569103,11.8900003433228
65.8725353,6.01000022888184
65.8881603,0.0399999991059303
65.9037853,-5.25
65.9194103,-9.18000030517578
65.9350353,-11.5699996948242
65.9506603,-13.0100002288818
65.9662853,-14.3900003433228
65.9819103,-16.1700000762939
65.9975353,-18.1499996185303
66.0131603,-19.7999992370605
66.0287853,-20.8199996948242
66.0444103,-21.1000003814697
66.0600353,-20.7199993133545
66.0756603,-19.9500007629395
66.0912853,-19.1499996185303
66.1069103,-18.5699996948242
66.1225353,-18.4099998474121
66.1381603,-18.8500003814697
66.1537853,-20.0200004577637
66.1694103,-21.7099990844727
66.1850353,-23.25
66.2006603,-23.7999992370605
66.2162853,-22.5599994659424
66.2319103,-18.6299991607666
66.2475353,-10.9700002670288
66.2631603,0.949999988079071
66.2787853,16.1299991607666
66.2944103,31.8299999237061
66.3100353,44.6100006103516
66.3256603,51.9700012207031
66.3412853,53.2700004577637
66.3569103,49.6699981689453
66.3725353,43.3400001525879
66.3881603,36.3199996948242
66.4037853,29.8500003814697
66.4194103,24.1399993896484
66.4350353,18.8500003814697
66.4506603,13.3900003433228
66.4662853,7.3600001335144
66.4819103,0.970000028610229
66.4975353,-4.8600001335144
66.5131603,-9.17000007629395
66.5287853,-11.3900003433228
66.5444103,-11.3400001525879
66.5600353,-9.34000015258789
66.5756603,-6.30000019073486
66.5912853,-3.38000011444092
66.6069103,-1.28999996185303
66.6225353,-0.109999999403954
66.6381603,0.180000007152557
66.6537853,-0.680000007152557
66.6694103,-3.14000010490417
66.6850353,-7.17000007629395
66.7006603,-12.289999961853
66.7162853,-17.7199993133545
66.7319103,-22.6599998474121
66.7475353,-26.4500007629395
66.7631603,-28.6000003814697
66.7787853,-28.7099990844727
66.7944103,-26.8099994659424
66.8100353,-23.3400001525879
66.8256603,-18.6399993896484
66.8412853,-12.2200002670288
66.8569103,-3.14000010490417
66.8725353,8.64999961853027
66.8881603,21.5
66.9037853,32.5
66.9194103,39.0800018310547
66.9350353,40.439998626709
66.9506603,37.810001373291
66.9662853,33.3300018310547
66.9819103,28.6599998474121
66.9975353,24.2299995422363
67.0131603,19.5200004577637
67.0287853,13.7600002288818
67.0444103,6.65000009536743
67.0600353,-1.30999994277954
67.0756603,-8.82999992370605
67.0912853,-14.4399995803833
67.1069103,-17.3600006103516
67.1225353,-17.7600002288818
67.1381603,-16.5
67.1537853,-14.6400003433228
67.1694103,-12.8699998855591
67.1850353,-11.2700004577637
67.2006603,-9.64999961853027
67.2162853,-8.25
67.2319103,-7.78999996185303
67.2475353,-8.69999980926514
67.2631603,-10.5900001525879
67.2787853,-12.460000038147
67.2944103,-13.3100004196167
67.3100353,-12.6000003814697
67.3256603,-10.6400003433228
67.3412853,-8.46000003814697
67.3569103,-7
