Time(s),Value(%)
460.0039563,-23.1599998474121
460.0195813,-21.3799991607666
460.0352063,-19.0100002288818
460.0508313,-16.1399993896484
460.0664563,-12.8100004196167
460.0820813,-9.18000030517578
460.0977063,-5.67000007629395
460.1133313,-2.86999988555908
460.1289563,-1.25999999046326
460.1445813,-0.819999992847443
460.1602063,-1.16999995708466
460.1758313,-1.92999994754791
460.1914563,-2.88000011444092
460.2070813,-3.80999994277954
460.2227063,-4.61999988555908
460.2383313,-5.19000005722046
460.2539563,-5.57999992370605
460.2695813,-6.05000019073486
460.2852063,-6.76999998092651
460.3008313,-7.71999979019165
460.3164563,-8.73999977111816
460.3320813,-9.72999954223633
460.3477063,-10.75
460.3633313,-11.8999996185303
460.3789563,-13.1999998092651
460.3945813,-14.5900001525879
460.4102063,-15.960000038147
460.4258313,-17.1700000762939
460.4414563,-18.1200008392334
460.4570813,-18.8199996948242
460.4727063,-19.2700004577637
460.4883313,-19.4599990844727
460.5039563,-19.3500003814697
460.5195813,-19.0
460.5352063,-18.5799999237061
460.5508313,-18.3999996185303
460.5664563,-18.6499996185303
460.5820813,-19.2700004577637
460.5977063,-19.9799995422363
460.6133313,-20.5799999237061
460.6289563,-21.0400009155273
460.6445813,-21.4300003051758
460.6602063,-21.8400001525879
460.6758313,-22.2800006866455
460.6914563,-22.6000003814697
460.7070813,-22.5599994659424
460.7227063,-21.9300003051758
460.7383313,-20.6200008392334
460.7539563,-18.6599998474121
460.7695813,-15.9899997711182
460.7852063,-12.5500001907349
460.8008313,-8.47999954223633
460.8164563,-4.23999977111816
460.8320813,-0.550000011920929
460.8477063,2.08999991416931
460.8633313,3.73000001907349
460.8789563,4.73999977111816
460.8945813,5.3899998664856
460.9102063,5.6399998664856
460.9258313,5.40000009536743
460.9414563,4.71000003814697
460.9570813,3.72000002861023
460.9727063,2.6800000667572
460.9883313,1.80999994277954
461.0039563,1.22000002861023
461.0195813,0.920000016689301
461.0352063,0.920000016689301
461.0508313,1.26999998092651
461.0664563,2.07999992370605
461.0820813,3.29999995231628
461.0977063,4.63000011444092
461.1133313,5.57000017166138
461.1289563,5.73999977111816
461.1445813,5.09000015258789
461.1602063,3.91000008583069
461.1758313,2.44000005722046
461.1914563,0.800000011920929
461.2070813,-0.949999988079071
461.2227063,-2.83999991416931
461.2383313,-4.75
461.2539563,-6.53000020980835
461.2695813,-7.94000005722046
461.2852063,-8.80000019073486
461.3008313,-9.06999969482422
461.3164563,-8.82999992370605
461.3320813,-8.14000034332275
461.3477063,-7.07000017166138
461.3633313,-5.71000003814697
461.3789563,-4.34000015258789
461.3945813,-3.35999989509583
461.4102063,-3.02999997138977
461.4258313,-3.11999988555908
461.4414563,-3.20000004768372
461.4570813,-2.98000001907349
461.4727063,-2.49000000953674
461.4883313,-1.96000003814697
461.5039563,-1.60000002384186
461.5195813,-1.3400000333786
461.5352063,-0.569999992847443
461.5508313,1.91999995708466
461.5664563,7.28000020980835
461.5820813,15.7700004577637
461.5977063,26.9899997711182
461.6133313,40.5499992370605
461.6289563,56.1800003051758
461.6445813,73.1900024414063
461.6602063,89.9199981689453
461.6758313,103.98999786377
461.6914563,113.930000305176
461.7070813,120.430000305176
461.7227063,125.440002441406
461.7383313,130.130004882813
461.7539563,134.240005493164
461.7695813,136.940002441406
461.7852063,137.779998779297
461.8008313,136.960006713867
461.8164563,135.229995727539
461.8320813,133.389999389648
461.8477063,131.990005493164
461.8633313,131.210006713867
461.8789563,131.199996948242
461.8945813,132.330001831055
461.9102063,135.020004272461
461.9258313,139.080001831055
461.9414563,143.149993896484
461.9570813,144.970001220703
461.9727063,142.800003051758
461.9883313,136.740005493164
462.0039563,128.300003051758
462.0195813,118.980003356934
462.0352063,109.639999389648
462.0508313,100.870002746582
462.0664563,93.1500015258789
462.0820813,86.5599975585938
462.0977063,80.5599975585938
462.1133313,74.0699996948242
462.1289563,66.25
462.1445813,57.1599998474121
462.1602063,47.4599990844727
462.1758313,37.5900001525879
462.1914563,27.5599994659424
462.2070813,17.2000007629395
462.2227063,6.48999977111816
462.2383313,-4.09999990463257
462.2539563,-14.1800003051758
462.2695813,-23.2800006866455
462.2852063,-31.1299991607666
462.3008313,-37.689998626709
462.3164563,-42.8699989318848
462.3320813,-46.2999992370605
462.3477063,-47.6199989318848
462.3633313,-46.9799995422363
462.3789563,-45.3199996948242
462.3945813,-44.0900001525879
462.4102063,-44.2999992370605
462.4258313,-45.8499984741211
462.4414563,-48.0499992370605
462.4570813,-50.5699996948242
462.4727063,-53.6599998474121
462.4883313,-57.6599998474121
462.5039563,-62.5200004577637
462.5195813,-67.8399963378906
462.5352063,-73.0100021362305
462.5508313,-77.4199981689453
462.5664563,-80.7300033569336
462.5820813,-82.9199981689453
462.5977063,-84.0599975585938
462.6133313,-84.0500030517578
462.6289563,-82.7600021362305
462.6445813,-80.3199996948242
462.6602063,-77.5400009155273
462.6758313,-75.6699981689453
462.6914563,-75.6399993896484
462.7070813,-77.4000015258789
462.7227063,-80.1600036621094
462.7383313,-83.2699966430664
462.7539563,-86.5599975585938
462.7695813,-90.0899963378906
462.7852063,-93.870002746582
462.8008313,-97.7399978637695
462.8164563,-101.379997253418
462.8320813,-104.449996948242
462.8477063,-106.730003356934
462.8633313,-108.139999389648
462.8789563,-108.569999694824
462.8945813,-107.709999084473
462.9102063,-105.209999084473
462.9258313,-101.199996948242
462.9414563,-96.4499969482422
462.9570813,-92.120002746582
462.9727063,-88.9700012207031
462.9883313,-86.6800003051758
463.0039563,-84.4300003051758
463.0195813,-81.879997253418
463.0352063,-79.3899993896484
463.0508313,-77.5
463.0664563,-76.4800033569336
463.0820813,-76.0500030517578
463.0977063,-75.3099975585938
463.1133313,-72.870002746582
463.1289563,-67.5899963378906
463.1445813,-59.25
463.1602063,-48.2799987792969
463.1758313,-35.0200004577637
463.1914563,-19.7000007629395
463.2070813,-2.97000002861023
463.2227063,13.210000038147
463.2383313,26.0400009155273
463.2539563,33.7599983215332
463.2695813,36.689998626709
463.2852063,36.5999984741211
463.3008313,34.9500007629395
463.3164563,32.2599983215332
463.3320813,28.5599994659424
463.3477063,23.9899997711182
463.3633313,18.9300003051758
463.3789563,14.0
463.3945813,9.84000015258789
463.4102063,6.82999992370605
463.4258313,5.03000020980835
463.4414563,4.36999988555908
463.4570813,4.98000001907349
463.4727063,7.01000022888184
463.4883313,10.25
463.5039563,13.75
463.5195813,16.0100002288818
463.5352063,15.9700002670288
463.5508313,13.789999961853
463.5664563,10.4700002670288
463.5820813,6.80000019073486
463.5977063,2.98000001907349
463.6133313,-1.11000001430511
463.6289563,-5.55000019073486
463.6445813,-10.1999998092651
463.6602063,-14.7700004577637
463.6758313,-18.9400005340576
463.6914563,-22.5300006866455
463.7070813,-25.5
463.7227063,-27.8199996948242
463.7383313,-29.3600006103516
463.7539563,-30.0100002288818
463.7695813,-29.8600006103516
463.7852063,-29.4400005340576
463.8008313,-29.6499996185303
463.8164563,-31.2299995422363
463.8320813,-34.2400016784668
463.8477063,-38.2099990844727
463.8633313,-42.5999984741211
463.8789563,-47.0900001525879
463.8945813,-51.5299987792969
463.9102063,-55.8300018310547
463.9258313,-59.8499984741211
463.9414563,-63.3199996948242
463.9570813,-65.8000030517578
463.9727063,-66.9300003051758
463.9883313,-66.6800003051758
464.0039563,-65.2699966430664
464.0195813,-62.9599990844727
464.0352063,-59.9700012207031
464.0508313,-56.5400009155273
464.0664563,-53.1599998474121
464.0820813,-50.5800018310547
464.0977063,-49.4199981689453
464.1133313,-49.8199996948242
464.1289563,-51.4500007629395
464.1445813,-53.8199996948242
464.1602063,-56.5699996948242
464.1758313,-59.4199981689453
464.1914563,-62.1599998474121
464.2070813,-64.6699981689453
464.2227063,-65.7799987792969
464.2383313,-67.2099990844727
464.2539563,-69.370002746582
464.2695813,-72.3300018310547
464.2852063,-75.8499984741211
464.3008313,-79.6500015258789
464.3164563,-83.5100021362305
464.3320813,-87.2099990844727
464.3477063,-90.3600006103516
464.3633313,-92.4499969482422
464.3789563,-93.120002746582
464.3945813,-92.4400024414063
464.4102063,-90.7799987792969
464.4258313,-88.5199966430664
464.4414563,-86.0
464.4570813,-83.6600036621094
464.4727063,-81.879997253418
464.4883313,-80.8000030517578
464.5039563,-80.1699981689453
464.5195813,-79.5699996948242
464.5352063,-78.8199996948242
464.5508313,-78.129997253418
464.5664563,-77.8000030517578
464.5820813,-77.7300033569336
464.5977063,-77.4700012207031
464.6133313,-76.5599975585938
464.6289563,-74.8300018310547
464.6445813,-72.379997253418
464.6602063,-69.2799987792969
464.6758313,-65.3600006103516
464.6914563,-60.3499984741211
464.7070813,-54.2299995422363
464.7227063,-47.3300018310547
464.7383313,-40.1500015258789
464.7539563,-33.0999984741211
464.7695813,-26.4500007629395
464.7852063,-20.2399997711182
464.8008313,-14.4300003051758
464.8164563,-8.97000026702881
464.8320813,-3.90000009536743
464.8477063,0.759999990463257
464.8633313,5.01999998092651
464.8789563,8.90999984741211
464.8945813,12.5600004196167
464.9102063,16.0599994659424
464.9258313,19.4799995422363
464.9414563,22.8500003814697
464.9570813,26.1200008392334
464.9727063,29.2399997711182
464.9883313,32.1699981689453
465.0039563,34.7999992370605
465.0195813,36.9500007629395
465.0352063,38.4799995422363
465.0508313,39.3899993896484
465.0664563,39.939998626709
465.0820813,40.4799995422363
465.0977063,41.1699981689453
465.1133313,41.810001373291
465.1289563,42.0900001525879
465.1445813,41.9900016784668
465.1602063,41.810001373291
465.1758313,41.9000015258789
465.1914563,42.4300003051758
465.2070813,43.3499984741211
465.2227063,44.2299995422363
465.2383313,44.7700004577637
465.2539563,44.6599998474121
465.2695813,43.7999992370605
465.2852063,42.2299995422363
465.3008313,39.8300018310547
465.3164563,36.5
465.3320813,32.3899993896484
465.3477063,28.1599998474121
465.3633313,24.8099994659424
465.3789563,22.9500007629395
465.3945813,22.3600006103516
465.4102063,22.2800006866455
465.4258313,22.2700004577637
465.4414563,22.4200000762939
465.4570813,23.0400009155273
465.4727063,24.2999992370605
465.4883313,26.0799999237061
465.5039563,28.0599994659424
465.5195813,29.8600006103516
465.5352063,31.2299995422363
465.5508313,32.0900001525879
465.5664563,32.4700012207031
465.5820813,32.3499984741211
465.5977063,31.6800003051758
465.6133313,30.5799999237061
465.6289563,29.5699996948242
465.6445813,29.4899997711182
465.6602063,31.0
465.6758313,34.0099983215332
465.6914563,37.8300018310547
465.7070813,41.8499984741211
465.7227063,45.75
465.7383313,49.5200004577637
465.7539563,53.25
465.7695813,56.9199981689453
465.7852063,60.3499984741211
465.8008313,63.1800003051758
465.8164563,65.0599975585938
465.8320813,65.9300003051758
465.8477063,65.8199996948242
465.8633313,64.7900009155273
465.8789563,62.8400001525879
465.8945813,60.1800003051758
465.9102063,57.4000015258789
465.9258313,55.4199981689453
465.9414563,54.9300003051758
465.9570813,55.8699989318848
465.9727063,57.6800003051758
465.9883313,59.8899993896484
466.0039563,62.3499984741211
466.0195813,65.0699996948242
466.0352063,68.0299987792969
466.0508313,71.1100006103516
466.0664563,74.2300033569336
466.0820813,77.4300003051758
466.0977063,80.8300018310547
466.1133313,84.4599990844727
466.1289563,88.1800003051758
466.1445813,91.7699966430664
466.1602063,95.0500030517578
466.1758313,97.9199981689453
466.1914563,100.410003662109
466.2070813,102.669998168945
466.2227063,104.790000915527
466.2383313,106.790000915527
466.2539563,108.550003051758
466.2695813,110.0
466.2852063,111.089996337891
466.3008313,111.870002746582
466.3164563,112.400001525879
466.3320813,112.720001220703
466.3477063,112.819999694824
466.3633313,112.610000610352
466.3789563,112.019996643066
466.3945813,110.970001220703
466.4102063,109.269996643066
466.4258313,106.540000915527
466.4414563,102.410003662109
466.4570813,96.9100036621094
466.4727063,90.5699996948242
466.4883313,84.129997253418
466.5039563,78.0599975585938
466.5195813,72.25
466.5352063,66.4599990844727
466.5508313,60.7799987792969
466.5664563,55.5900001525879
466.5820813,51.0200004577637
466.5977063,46.8199996948242
466.6133313,42.6699981689453
466.6289563,38.5699996948242
466.6445813,34.9000015258789
466.6602063,32.0699996948242
466.6758313,30.0400009155273
466.6914563,28.4300003051758
466.7070813,26.9599990844727
466.7227063,25.6299991607666
466.7383313,24.5599994659424
466.7539563,23.7999992370605
466.7695813,23.2600002288818
466.7852063,22.7700004577637
466.8008313,22.1700000762939
466.8164563,21.3500003814697
466.8320813,20.2700004577637
466.8477063,18.9400005340576
466.8633313,17.2700004577637
466.8789563,15.1800003051758
466.8945813,12.7299995422363
466.9102063,10.2200002670288
466.9258313,8.1899995803833
466.9414563,7.1100001335144
466.9570813,7.13000011444092
466.9727063,8.06999969482422
466.9883313,9.61999988555908
467.0039563,11.4799995422363
467.0195813,13.4300003051758
467.0352063,15.2799997329712
467.0508313,16.9799995422363
467.0664563,18.6299991607666
467.0820813,20.5900001525879
467.0977063,23.1800003051758
467.1133313,26.4699993133545
467.1289563,30.1800003051758
467.1445813,33.8699989318848
467.1602063,37.1500015258789
467.1758313,39.7999992370605
467.1914563,41.6399993896484
467.2070813,42.439998626709
467.2227063,41.9900016784668
467.2383313,40.2900009155273
467.2539563,37.6399993896484
467.2695813,34.5099983215332
467.2852063,31.3099994659424
467.3008313,28.2999992370605
467.3164563,25.5300006866455
467.3320813,22.9599990844727
467.3477063,20.6399993896484
467.3633313,18.8600006103516
467.3789563,17.9099998474121
467.3945813,17.8600006103516
467.4102063,18.4200000762939
467.4258313,19.1499996185303
467.4414563,19.6800003051758
467.4570813,19.7600002288818
467.4727063,19.2299995422363
467.4883313,17.9099998474121
467.5039563,15.6099996566772
467.5195813,12.3500003814697
467.5352063,8.38000011444092
467.5508313,4.07999992370605
467.5664563,-0.180000007152557
467.5820813,-4.21000003814697
467.5977063,-7.94999980926514
467.6133313,-11.460000038147
467.6289563,-14.8400001525879
467.6445813,-18.1399993896484
467.6602063,-21.3799991607666
467.6758313,-24.5699996948242
467.6914563,-27.8700008392334
467.7070813,-31.6000003814697
467.7227063,-36.0900001525879
467.7383313,-41.3600006103516
467.7539563,-47.1199989318848
467.7695813,-52.9700012207031
467.7852063,-58.8699989318848
467.8008313,-65.3300018310547
467.8164563,-72.8600006103516
467.8320813,-81.3399963378906
467.8477063,-90.0
467.8633313,-97.9599990844727
467.8789563,-104.720001220703
467.8945813,-110.319999694824
467.9102063,-115.209999084473
467.9258313,-120.019996643066
467.9414563,-125.230003356934
467.9570813,-131.009994506836
467.9727063,-137.460006713867
467.9883313,-144.839996337891
468.0039563,-153.460006713867
468.0195813,-163.130004882813
468.0352063,-172.759994506836
468.0508313,-180.710006713867
468.0664563,-185.990005493164
468.0820813,-189.259994506836
468.0977063,-192.039993286133
468.1133313,-195.199996948242
468.1289563,-198.440002441406
468.1445813,-200.910003662109
468.1602063,-202.039993286133
468.1758313,-201.880004882813
468.1914563,-201.190002441406
468.2070813,-201.229995727539
468.2227063,-202.929992675781
468.2383313,-206.710006713867
468.2539563,-212.410003662109
468.2695813,-219.979995727539
468.2852063,-229.490005493164
468.3008313,-240.360000610352
468.3164563,-250.770004272461
468.3320813,-257.850006103516
468.3477063,-259.570007324219
468.3633313,-256.299987792969
468.3789563,-250.100006103516
468.3945813,-242.710006713867
468.4102063,-234.619995117188
468.4258313,-225.639999389648
468.4414563,-215.589996337891
468.4570813,-204.759994506836
468.4727063,-193.979995727539
468.4883313,-184.449996948242
468.5039563,-177.110000610352
468.5195813,-172.229995727539
468.5352063,-169.789993286133
468.5508313,-170.110000610352
468.5664563,-173.529998779297
468.5820813,-179.570007324219
468.5977063,-186.190002441406
468.6133313,-190.25
468.6289563,-189.550003051758
468.6445813,-184.419998168945
468.6602063,-176.820007324219
468.6758313,-168.139999389648
468.6914563,-158.419998168945
468.7070813,-147.190002441406
468.7227063,-134.330001831055
468.7383313,-120.389999389648
468.7539563,-106.25
468.7695813,-92.7600021362305
468.7852063,-80.4400024414063
468.8008313,-69.370002746582
468.8164563,-59.6399993896484
468.8320813,-51.5999984741211
468.8477063,-45.6800003051758
468.8633313,-41.689998626709
468.8789563,-38.2900009155273
468.8945813,-33.2799987792969
468.9102063,-24.9899997711182
468.9258313,-13.5799999237061
468.9414563,-0.519999980926514
468.9570813,12.9200000762939
468.9727063,26.3400001525879
468.9883313,39.8600006103516
469.0039563,53.5900001525879
469.0195813,67.3499984741211
469.0352063,80.7099990844727
469.0508313,93.1500015258789
469.0664563,104.269996643066
469.0820813,114.0
469.0977063,122.370002746582
469.1133313,129.320007324219
469.1289563,134.779998779297
469.1445813,138.949996948242
469.1602063,142.710006713867
469.1758313,147.429992675781
469.1914563,154.169998168945
469.2070813,162.809997558594
469.2227063,170.669998168945
469.2383313,178.350006103516
469.2539563,185.270004272461
469.2695813,191.050003051758
469.2852063,195.429992675781
469.3008313,198.449996948242
469.3164563,200.630004882813
469.3320813,202.759994506836
469.3477063,205.330001831055
469.3633313,208.089996337891
469.3789563,210.479995727539
469.3945813,212.270004272461
469.4102063,213.710006713867
469.4258313,215.220001220703
469.4414563,216.979995727539
469.4570813,218.880004882813
469.4727063,220.550003051758
469.4883313,221.529998779297
469.5039563,221.509994506836
469.5195813,220.410003662109
469.5352063,218.190002441406
469.5508313,214.600006103516
469.5664563,209.419998168945
469.5820813,202.789993286133
469.5977063,195.580001831055
469.6133313,189.089996337891
469.6289563,184.169998168945
469.6445813,180.600006103516
469.6602063,177.5
469.6758313,174.380004882813
469.6914563,171.380004882813
469.7070813,168.899993896484
469.7227063,167.100006103516
469.7383313,165.779998779297
469.7539563,164.429992675781
469.7695813,162.399993896484
469.7852063,159.229995727539
469.8008313,154.839996337891
469.8164563,149.270004272461
469.8320813,142.449996948242
469.8477063,134.259994506836
469.8633313,124.930000305176
469.8789563,115.440002441406
469.8945813,107.300003051758
469.9102063,101.599998474121
469.9258313,98.25
469.9414563,96.2600021362305
469.9570813,94.8300018310547
469.9727063,93.7399978637695
469.9883313,93.1100006103516
470.0039563,92.9400024414063
470.0195813,93.0800018310547
470.0352063,93.2399978637695
470.0508313,93.1399993896484
470.0664563,92.629997253418
470.0820813,91.6699981689453
470.0977063,90.1999969482422
470.1133313,88.0299987792969
470.1289563,84.9599990844727
470.1445813,81.0500030517578
470.1602063,76.8199996948242
470.1758313,73.1399993896484
470.1914563,70.6100006103516
470.2070813,69.0699996948242
470.2227063,67.0100021362305
470.2383313,64.879997253418
470.2539563,62.6199989318848
470.2695813,60.439998626709
470.2852063,58.4900016784668
470.3008313,56.7799987792969
470.3164563,55.2599983215332
470.3320813,53.8800010681152
470.3477063,52.6599998474121
470.3633313,51.5400009155273
470.3789563,50.3400001525879
470.3945813,48.7200012207031
470.4102063,46.4000015258789
470.4258313,43.3400001525879
470.4414563,39.8800010681152
470.4570813,36.5499992370605
470.4727063,33.6800003051758
470.4883313,31.1200008392334
470.5039563,28.5
470.5195813,25.6299991607666
470.5352063,22.6499996185303
470.5508313,19.8299999237061
470.5664563,17.2999992370605
470.5820813,15.0299997329712
470.5977063,12.7200002670288
470.6133313,9.93000030517578
470.6289563,6.28000020980835
470.6445813,1.70000004768372
470.6602063,-3.66000008583069
470.6758313,-9.69999980926514
470.6914563,-16.3299999237061
470.7070813,-23.3400001525879
470.7227063,-30.1299991607666
470.7383313,-35.8300018310547
