Time(s),Value(%)
558.0085057,-3.32999992370605
558.0241307,-2.71000003814697
558.0397557,-1.61000001430511
558.0553807,-0.0199999995529652
558.0710057,1.9099999666214
558.0866307,4.0
558.1022557,5.90000009536743
558.1178807,7.32000017166138
558.1335057,8.10999965667725
558.1491307,8.28999996185303
558.1647557,7.8899998664856
558.1803807,6.94999980926514
558.1960057,5.57999992370605
558.2116307,4.01999998092651
558.2272557,2.5
558.2428807,1.19000005722046
558.2585057,0.170000001788139
558.2741307,-0.620000004768372
558.2897557,-1.35000002384186
558.3053807,-2.11999988555908
558.3210057,-2.89000010490417
558.3366307,-3.50999999046326
558.3522557,-3.82999992370605
558.3678807,-3.79999995231628
558.3835057,-3.53999996185303
558.3991307,-3.25999999046326
558.4147557,-3.11999988555908
558.4303807,-3.14000010490417
558.4460057,-3.23000001907349
558.4616307,-3.28999996185303
558.4772557,-3.35999989509583
558.4928807,-3.53999996185303
558.5085057,-3.88000011444092
558.5241307,-4.32000017166138
558.5397557,-4.73000001907349
558.5553807,-4.96999979019165
558.5710057,-4.94000005722046
558.5866307,-4.69000005722046
558.6022557,-4.25
558.6178807,-3.65000009536743
558.6335057,-2.75999999046326
558.6491307,-1.41999995708466
558.6647557,0.400000005960464
558.6803807,2.50999999046326
558.6960057,4.55999994277954
558.7116307,6.23000001907349
558.7272557,7.30999994277954
558.7428807,7.73000001907349
558.7585057,7.55999994277954
558.7741307,6.94000005722046
558.7897557,6.05999994277954
558.8053807,5.07999992370605
558.8210057,4.1100001335144
558.8366307,3.20000004768372
558.8522557,2.3199999332428
558.8678807,1.45000004768372
558.8835057,0.620000004768372
558.8991307,-0.100000001490116
558.9147557,-0.670000016689301
558.9303807,-1.10000002384186
558.9460057,-1.41999995708466
558.9616307,-1.62999999523163
558.9772557,-1.71000003814697
558.9928807,-1.69000005722046
559.0085057,-1.67999994754791
559.0241307,-1.82000005245209
559.0397557,-2.09999990463257
559.0553807,-2.44000005722046
559.0710057,-2.79999995231628
559.0866307,-3.15000009536743
559.1022557,-3.46000003814697
559.1178807,-3.71000003814697
559.1335057,-3.86999988555908
559.1491307,-3.9300000667572
559.1647557,-3.91000008583069
559.1803807,-3.83999991416931
559.1960057,-3.69000005722046
559.2116307,-3.35999989509583
559.2272557,-2.71000003814697
559.2428807,-1.54999995231628
559.2585057,0.25
559.2741307,2.50999999046326
559.2897557,4.75
559.3053807,6.46000003814697
559.3210057,7.44000005722046
559.3366307,7.75
559.3522557,7.59000015258789
559.3678807,7.1399998664856
559.3835057,6.46999979019165
559.3991307,5.63000011444092
559.4147557,4.69000005722046
559.4303807,3.69000005722046
559.4460057,2.65000009536743
559.4616307,1.61000001430511
559.4772557,0.639999985694885
559.4928807,-0.180000007152557
559.5085057,-0.879999995231628
559.5241307,-1.46000003814697
559.5397557,-1.86000001430511
559.5553807,-2.04999995231628
559.5710057,-2.08999991416931
559.5866307,-2.04999995231628
559.6022557,-2.00999999046326
559.6178807,-2.0699999332428
559.6335057,-2.33999991416931
559.6491307,-2.72000002861023
559.6647557,-3.0
559.6803807,-3.05999994277954
559.6960057,-3.00999999046326
559.7116307,-3.03999996185303
559.7272557,-3.24000000953674
559.7428807,-3.49000000953674
559.7585057,-3.61999988555908
559.7741307,-3.53999996185303
559.7897557,-3.29999995231628
559.8053807,-3.00999999046326
559.8210057,-2.6800000667572
559.8366307,-2.21000003814697
559.8522557,-1.4099999666214
559.8678807,-0.0700000002980232
559.8835057,1.87000000476837
559.8991307,4.19999980926514
559.9147557,6.34999990463257
559.9303807,7.80000019073486
559.9460057,8.26000022888184
559.9616307,7.76999998092651
559.9772557,6.57000017166138
559.9928807,5.09000015258789
560.0085057,3.72000002861023
560.0241307,2.65000009536743
560.0397557,1.94000005722046
560.0553807,1.42999994754791
560.0710057,0.939999997615814
560.0866307,0.340000003576279
560.1022557,-0.310000002384186
560.1178807,-0.879999995231628
560.1335057,-1.27999997138977
560.1491307,-1.46000003814697
560.1647557,-1.45000004768372
560.1803807,-1.32000005245209
560.1960057,-1.20000004768372
560.2116307,-1.23000001907349
560.2272557,-1.47000002861023
560.2428807,-1.87999999523163
560.2585057,-2.3199999332428
560.2741307,-2.65000009536743
560.2897557,-2.82999992370605
560.3053807,-2.94000005722046
560.3210057,-3.03999996185303
560.3366307,-3.1800000667572
560.3522557,-3.40000009536743
560.3678807,-3.6800000667572
560.3835057,-3.90000009536743
560.3991307,-3.84999990463257
560.4147557,-3.33999991416931
560.4303807,-2.28999996185303
560.4460057,-0.75
560.4616307,1.14999997615814
560.4772557,3.1800000667572
560.4928807,5.03000020980835
560.5085057,6.3600001335144
560.5241307,6.90000009536743
560.5397557,6.67000007629395
560.5553807,5.94999980926514
560.5710057,5.07000017166138
560.5866307,4.23999977111816
560.6022557,3.48000001907349
560.6178807,2.72000002861023
560.6335057,1.89999997615814
560.6491307,0.990000009536743
560.6647557,0.0500000007450581
560.6803807,-0.779999971389771
560.6960057,-1.39999997615814
560.7116307,-1.73000001907349
560.7272557,-1.79999995231628
560.7428807,-1.75999999046326
560.7585057,-1.82000005245209
560.7741307,-2.0699999332428
560.7897557,-2.45000004768372
560.8053807,-2.80999994277954
560.8210057,-2.98000001907349
560.8366307,-2.91000008583069
560.8522557,-2.75
560.8678807,-2.6800000667572
560.8835057,-2.80999994277954
560.8991307,-3.15000009536743
560.9147557,-3.61999988555908
560.9303807,-4.09000015258789
560.9460057,-4.40999984741211
560.9616307,-4.44999980926514
560.9772557,-4.1399998664856
560.9928807,-3.4300000667572
561.0085057,-2.28999996185303
561.0241307,-0.699999988079071
561.0397557,1.29999995231628
561.0553807,3.5699999332428
561.0710057,5.73000001907349
561.0866307,7.32000017166138
561.1022557,8.02000045776367
561.1178807,7.80999994277954
561.1335057,6.96999979019165
561.1491307,5.82999992370605
561.1647557,4.65999984741211
561.1803807,3.60999989509583
561.1960057,2.71000003814697
561.2116307,1.9099999666214
561.2272557,1.14999997615814
561.2428807,0.389999985694885
561.2585057,-0.319999992847443
561.2741307,-0.949999988079071
561.2897557,-1.46000003814697
561.3053807,-1.8400000333786
561.3210057,-2.05999994277954
561.3366307,-2.1800000667572
561.3522557,-2.30999994277954
561.3678807,-2.49000000953674
561.3835057,-2.6800000667572
561.3991307,-2.82999992370605
561.4147557,-2.98000001907349
561.4303807,-3.20000004768372
561.4460057,-3.54999995231628
561.4616307,-4.01000022888184
561.4772557,-4.46000003814697
561.4928807,-4.76000022888184
561.5085057,-4.82999992370605
561.5241307,-4.69999980926514
561.5397557,-4.46000003814697
561.5553807,-4.05999994277954
561.5710057,-3.30999994277954
561.5866307,-2.0
561.6022557,-0.0900000035762787
561.6178807,2.28999996185303
561.6335057,4.76000022888184
561.6491307,6.80999994277954
561.6647557,8.02000045776367
561.6803807,8.22999954223633
561.6960057,7.57999992370605
561.7116307,6.46000003814697
561.7272557,5.23000001907349
561.7428807,4.13000011444092
561.7585057,3.25
561.7741307,2.5699999332428
561.7897557,1.97000002861023
561.8053807,1.32000005245209
561.8210057,0.5
561.8366307,-0.409999996423721
561.8522557,-1.23000001907349
561.8678807,-1.74000000953674
561.8835057,-1.94000005722046
561.8991307,-1.99000000953674
561.9147557,-2.07999992370605
561.9303807,-2.32999992370605
561.9460057,-2.72000002861023
561.9616307,-3.14000010490417
561.9772557,-3.48000001907349
561.9928807,-3.71000003814697
562.0085057,-3.85999989509583
562.0241307,-3.92000007629395
562.0397557,-3.86999988555908
562.0553807,-3.67000007629395
562.0710057,-3.30999994277954
562.0866307,-2.89000010490417
562.1022557,-2.53999996185303
562.1178807,-2.35999989509583
562.1335057,-2.27999997138977
562.1491307,-2.08999991416931
562.1647557,-1.54999995231628
562.1803807,-0.449999988079071
562.1960057,1.19000005722046
562.2116307,3.09999990463257
562.2272557,4.84000015258789
562.2428807,6.05000019073486
562.2585057,6.55999994277954
562.2741307,6.40999984741211
562.2897557,5.73999977111816
562.3053807,4.78000020980835
562.3210057,3.75
562.3366307,2.74000000953674
562.3522557,1.76999998092651
562.3678807,0.870000004768372
562.3835057,0.0900000035762787
562.3991307,-0.540000021457672
562.4147557,-1.0900000333786
562.4303807,-1.62999999523163
562.4460057,-2.08999991416931
562.4616307,-2.30999994277954
562.4772557,-2.21000003814697
562.4928807,-1.9099999666214
562.5085057,-1.62000000476837
562.5241307,-1.5
562.5397557,-1.62999999523163
562.5553807,-1.97000002861023
562.5710057,-2.48000001907349
562.5866307,-3.08999991416931
562.6022557,-3.67000007629395
562.6178807,-4.0
562.6335057,-3.96000003814697
562.6491307,-3.65000009536743
562.6647557,-3.27999997138977
562.6803807,-3.07999992370605
562.6960057,-3.07999992370605
562.7116307,-3.09999990463257
562.7272557,-2.86999988555908
562.7428807,-2.19000005722046
562.7585057,-0.949999988079071
562.7741307,0.839999973773956
562.7897557,3.09999990463257
562.8053807,5.48000001907349
562.8210057,7.46000003814697
562.8366307,8.55000019073486
562.8522557,8.53999996185303
562.8678807,7.61999988555908
562.8835057,6.26999998092651
562.8991307,4.96999979019165
562.9147557,3.97000002861023
562.9303807,3.22000002861023
562.9460057,2.53999996185303
562.9616307,1.75
562.9772557,0.839999973773956
562.9928807,-0.0599999986588955
563.0085057,-0.810000002384186
563.0241307,-1.25
563.0397557,-1.35000002384186
563.0553807,-1.27999997138977
563.0710057,-1.21000003814697
563.0866307,-1.23000001907349
563.1022557,-1.36000001430511
563.1178807,-1.63999998569489
563.1335057,-2.05999994277954
563.1491307,-2.55999994277954
563.1647557,-3.03999996185303
563.1803807,-3.38000011444092
563.1960057,-3.55999994277954
563.2116307,-3.61999988555908
563.2272557,-3.60999989509583
563.2428807,-3.55999994277954
563.2585057,-3.47000002861023
563.2741307,-3.35999989509583
563.2897557,-3.22000002861023
563.3053807,-2.98000001907349
563.3210057,-2.52999997138977
563.3366307,-1.67999994754791
563.3522557,-0.330000013113022
563.3678807,1.49000000953674
563.3835057,3.60999989509583
563.3991307,5.67999982833862
563.4147557,7.28000020980835
563.4303807,8.10999965667725
563.4460057,8.13000011444092
563.4616307,7.5
563.4772557,6.48999977111816
563.4928807,5.34999990463257
563.5085057,4.28000020980835
563.5241307,3.33999991416931
563.5397557,2.48000001907349
563.5553807,1.62999999523163
563.5710057,0.779999971389771
563.5866307,0.0199999995529652
563.6022557,-0.540000021457672
563.6178807,-0.920000016689301
563.6335057,-1.17999994754791
563.6491307,-1.42999994754791
563.6647557,-1.69000005722046
563.6803807,-1.98000001907349
563.6960057,-2.28999996185303
563.7116307,-2.5699999332428
563.7272557,-2.75999999046326
563.7428807,-2.84999990463257
563.7585057,-2.96000003814697
563.7741307,-3.19000005722046
563.7897557,-3.54999995231628
563.8053807,-3.9300000667572
563.8210057,-4.17999982833862
563.8366307,-4.26000022888184
563.8522557,-4.23999977111816
563.8678807,-4.25
563.8835057,-4.32999992370605
563.8991307,-4.38000011444092
563.9147557,-4.25
563.9303807,-3.83999991416931
563.9460057,-3.0699999332428
563.9616307,-1.83000004291534
563.9772557,-0.100000001490116
563.9928807,2.0
564.0085057,4.13000011444092
564.0241307,5.82999992370605
564.0397557,6.73999977111816
564.0553807,6.84999990463257
564.0710057,6.40999984741211
564.0866307,5.78000020980835
564.1022557,5.15999984741211
564.1178807,4.55999994277954
564.1335057,3.91000008583069
564.1491307,3.14000010490417
564.1647557,2.23000001907349
564.1803807,1.19000005722046
564.1960057,0.100000001490116
564.2116307,-0.920000016689301
564.2272557,-1.77999997138977
564.2428807,-2.34999990463257
564.2585057,-2.60999989509583
564.2741307,-2.65000009536743
564.2897557,-2.61999988555908
564.3053807,-2.61999988555908
564.3210057,-2.64000010490417
564.3366307,-2.71000003814697
564.3522557,-2.86999988555908
564.3678807,-3.1800000667572
564.3835057,-3.63000011444092
564.3991307,-4.09000015258789
564.4147557,-4.40999984741211
564.4303807,-4.51000022888184
564.4460057,-4.48999977111816
564.4616307,-4.51000022888184
564.4772557,-4.6399998664856
564.4928807,-4.80000019073486
564.5085057,-4.78999996185303
564.5241307,-4.42000007629395
564.5397557,-3.59999990463257
564.5553807,-2.32999992370605
564.5710057,-0.550000011920929
564.5866307,1.66999995708466
564.6022557,4.07000017166138
564.6178807,6.13000011444092
564.6335057,7.42000007629395
564.6491307,7.84999990463257
564.6647557,7.59000015258789
564.6803807,6.92000007629395
564.6960057,6.07000017166138
564.7116307,5.15000009536743
564.7272557,4.17999982833862
564.7428807,3.15000009536743
564.7585057,2.16000008583069
564.7741307,1.29999995231628
564.7897557,0.579999983310699
564.8053807,-0.0599999986588955
564.8210057,-0.620000004768372
564.8366307,-1.04999995231628
564.8522557,-1.37999999523163
564.8678807,-1.67999994754791
564.8835057,-1.88999998569489
564.8991307,-1.95000004768372
564.9147557,-1.85000002384186
564.9303807,-1.75
564.9460057,-1.75
564.9616307,-1.87000000476837
564.9772557,-2.02999997138977
564.9928807,-2.22000002861023
565.0085057,-2.44000005722046
565.0241307,-2.63000011444092
565.0397557,-2.73000001907349
565.0553807,-2.76999998092651
565.0710057,-2.84999990463257
565.0866307,-3.00999999046326
565.1022557,-3.1800000667572
565.1178807,-3.05999994277954
565.1335057,-2.35999989509583
565.1491307,-0.990000009536743
565.1647557,0.889999985694885
565.1803807,3.03999996185303
565.1960057,5.11999988555908
565.2116307,6.73999977111816
565.2272557,7.61999988555908
565.2428807,7.71999979019165
565.2585057,7.19000005722046
565.2741307,6.23000001907349
565.2897557,5.05999994277954
565.3053807,3.9300000667572
565.3210057,2.91000008583069
565.3366307,1.96000003814697
565.3522557,1.03999996185303
565.3678807,0.200000002980232
565.3835057,-0.46000000834465
565.3991307,-0.939999997615814
565.4147557,-1.26999998092651
565.4303807,-1.46000003814697
565.4460057,-1.51999998092651
565.4616307,-1.46000003814697
565.4772557,-1.42999994754791
565.4928807,-1.58000004291534
565.5085057,-1.89999997615814
565.5241307,-2.25
565.5397557,-2.49000000953674
565.5553807,-2.5699999332428
565.5710057,-2.59999990463257
565.5866307,-2.73000001907349
565.6022557,-3.05999994277954
565.6178807,-3.5
565.6335057,-3.80999994277954
565.6491307,-3.86999988555908
565.6647557,-3.75
565.6803807,-3.54999995231628
565.6960057,-3.27999997138977
565.7116307,-2.88000011444092
565.7272557,-2.20000004768372
565.7428807,-1.14999997615814
565.7585057,0.340000003576279
565.7741307,2.21000003814697
565.7897557,4.25
565.8053807,6.01000022888184
565.8210057,7.09999990463257
565.8366307,7.34999990463257
565.8522557,6.90999984741211
565.8678807,6.15000009536743
565.8835057,5.38000011444092
565.8991307,4.76000022888184
565.9147557,4.21000003814697
565.9303807,3.54999995231628
565.9460057,2.65000009536743
565.9616307,1.57000005245209
565.9772557,0.490000009536743
565.9928807,-0.389999985694885
566.0085057,-1.02999997138977
566.0241307,-1.4099999666214
566.0397557,-1.57000005245209
566.0553807,-1.60000002384186
566.0710057,-1.5900000333786
566.0866307,-1.60000002384186
566.1022557,-1.63999998569489
566.1178807,-1.73000001907349
566.1335057,-1.91999995708466
566.1491307,-2.25
566.1647557,-2.63000011444092
566.1803807,-3.0
566.1960057,-3.32999992370605
566.2116307,-3.60999989509583
566.2272557,-3.76999998092651
566.2428807,-3.76999998092651
566.2585057,-3.64000010490417
566.2741307,-3.51999998092651
566.2897557,-3.5
566.3053807,-3.50999999046326
566.3210057,-3.22000002861023
566.3366307,-2.39000010490417
566.3522557,-0.990000009536743
566.3678807,0.769999980926514
566.3835057,2.6800000667572
566.3991307,4.46000003814697
566.4147557,5.86999988555908
566.4303807,6.69999980926514
566.4460057,6.84000015258789
566.4616307,6.34999990463257
566.4772557,5.44000005722046
566.4928807,4.3600001335144
566.5085057,3.33999991416931
566.5241307,2.51999998092651
566.5397557,1.87999999523163
566.5553807,1.25
566.5710057,0.519999980926514
566.5866307,-0.25
566.6022557,-0.990000009536743
566.6178807,-1.5900000333786
566.6335057,-1.97000002861023
566.6491307,-2.13000011444092
566.6647557,-2.19000005722046
566.6803807,-2.28999996185303
566.6960057,-2.42000007629395
566.7116307,-2.45000004768372
566.7272557,-2.36999988555908
566.7428807,-2.27999997138977
566.7585057,-2.24000000953674
566.7741307,-2.20000004768372
566.7897557,-2.17000007629395
566.8053807,-2.22000002861023
566.8210057,-2.39000010490417
566.8366307,-2.69000005722046
566.8522557,-3.15000009536743
566.8678807,-3.6800000667572
566.8835057,-4.03999996185303
566.8991307,-3.98000001907349
566.9147557,-3.46000003814697
566.9303807,-2.64000010490417
566.9460057,-1.61000001430511
566.9616307,-0.319999992847443
566.9772557,1.23000001907349
566.9928807,2.96000003814697
567.0085057,4.6399998664856
567.0241307,6.01999998092651
567.0397557,6.84999990463257
567.0553807,6.98999977111816
567.0710057,6.55000019073486
567.0866307,5.76000022888184
567.1022557,4.82999992370605
567.1178807,3.88000011444092
567.1335057,2.96000003814697
567.1491307,2.04999995231628
567.1647557,1.12000000476837
567.1803807,0.180000007152557
567.1960057,-0.720000028610229
567.2116307,-1.49000000953674
567.2272557,-2.03999996185303
567.2428807,-2.27999997138977
567.2585057,-2.23000001907349
567.2741307,-1.99000000953674
567.2897557,-1.70000004768372
567.3053807,-1.50999999046326
567.3210057,-1.5
567.3366307,-1.6599999666214
567.3522557,-1.94000005722046
567.3678807,-2.23000001907349
567.3835057,-2.42000007629395
567.3991307,-2.48000001907349
567.4147557,-2.48000001907349
567.4303807,-2.58999991416931
567.4460057,-2.90000009536743
567.4616307,-3.3199999332428
567.4772557,-3.64000010490417
567.4928807,-3.72000002861023
567.5085057,-3.57999992370605
567.5241307,-3.24000000953674
567.5397557,-2.6800000667572
567.5553807,-1.79999995231628
567.5710057,-0.529999971389771
567.5866307,1.0900000333786
567.6022557,2.95000004768372
567.6178807,4.80000019073486
567.6335057,6.32999992370605
567.6491307,7.26999998092651
567.6647557,7.48000001907349
567.6803807,7.0
567.6960057,6.05999994277954
567.7116307,4.92000007629395
567.7272557,3.77999997138977
567.7428807,2.76999998092651
567.7585057,1.88999998569489
567.7741307,1.07000005245209
567.7897557,0.28999999165535
567.8053807,-0.340000003576279
567.8210057,-0.779999971389771
567.8366307,-1.04999995231628
567.8522557,-1.27999997138977
567.8678807,-1.50999999046326
567.8835057,-1.71000003814697
567.8991307,-1.8400000333786
567.9147557,-1.87999999523163
567.9303807,-1.88999998569489
567.9460057,-2.0
567.9616307,-2.28999996185303
567.9772557,-2.66000008583069
567.9928807,-2.96000003814697
568.0085057,-3.10999989509583
568.0241307,-3.1800000667572
568.0397557,-3.25999999046326
568.0553807,-3.40000009536743
568.0710057,-3.52999997138977
568.0866307,-3.55999994277954
568.1022557,-3.47000002861023
568.1178807,-3.22000002861023
568.1335057,-2.71000003814697
568.1491307,-1.75999999046326
568.1647557,-0.360000014305115
568.1803807,1.37000000476837
568.1960057,3.26999998092651
568.2116307,5.1100001335144
568.2272557,6.51000022888184
568.2428807,7.15000009536743
568.2585057,7.05000019073486
568.2741307,6.44000005722046
568.2897557,5.57000017166138
568.3053807,4.65000009536743
568.3210057,3.75
568.3366307,2.80999994277954
568.3522557,1.75999999046326
568.3678807,0.689999997615814
568.3835057,-0.200000002980232
568.3991307,-0.879999995231628
568.4147557,-1.39999997615814
568.4303807,-1.87999999523163
568.4460057,-2.29999995231628
568.4616307,-2.57999992370605
568.4772557,-2.65000009536743
568.4928807,-2.57999992370605
568.5085057,-2.47000002861023
568.5241307,-2.38000011444092
568.5397557,-2.35999989509583
568.5553807,-2.42000007629395
568.5710057,-2.52999997138977
568.5866307,-2.6800000667572
568.6022557,-2.79999995231628
568.6178807,-2.86999988555908
568.6335057,-2.92000007629395
568.6491307,-2.95000004768372
568.6647557,-2.98000001907349
568.6803807,-2.97000002861023
568.6960057,-2.86999988555908
568.7116307,-2.66000008583069
568.7272557,-2.32999992370605
568.7428807,-1.75999999046326
