Time(s),Value(%)
1216.0154789,-9.0
1216.0311039,8.22000026702881
1216.0467289,26.2999992370605
1216.0623539,42.7700004577637
1216.0779789,55.7400016784668
1216.0936039,64.1900024414063
1216.1092289,67.9599990844727
1216.1248539,67.6600036621094
1216.1404789,64.370002746582
1216.1561039,59.3400001525879
1216.1717289,53.5299987792969
1216.1873539,47.4199981689453
1216.2029789,41.189998626709
1216.2186039,34.8400001525879
1216.2342289,28.2999992370605
1216.2498539,21.6000003814697
1216.2654789,14.8900003433228
1216.2811039,8.52000045776367
1216.2967289,2.83999991416931
1216.3123539,-1.92999994754791
1216.3279789,-5.78999996185303
1216.3436039,-8.86999988555908
1216.3592289,-11.4499998092651
1216.3748539,-13.8400001525879
1216.3904789,-16.2800006866455
1216.4061039,-18.8299999237061
1216.4217289,-21.4500007629395
1216.4373539,-24.1200008392334
1216.4529789,-26.9099998474121
1216.4686039,-29.8099994659424
1216.4842289,-32.7099990844727
1216.4998539,-35.2900009155273
1216.5154789,-37.2999992370605
1216.5311039,-38.5699996948242
1216.5467289,-39.2000007629395
1216.5623539,-39.439998626709
1216.5779789,-39.6300010681152
1216.5936039,-39.9099998474121
1216.6092289,-40.1399993896484
1216.6248539,-39.8899993896484
1216.6404789,-38.7000007629395
1216.6561039,-35.9000015258789
1216.6717289,-30.3999996185303
1216.6873539,-21.0200004577637
1216.7029789,-7.23999977111816
1216.7186039,10.289999961853
1216.7342289,29.6399993896484
1216.7498539,47.8499984741211
1216.7654789,62.1199989318848
1216.7811039,70.9700012207031
1216.7967289,74.4700012207031
1216.8123539,73.7799987792969
1216.8279789,70.4400024414063
1216.8436039,65.6900024414063
1216.8592289,60.2299995422363
1216.8748539,54.2200012207031
1216.8904789,47.6100006103516
1216.9061039,40.3899993896484
1216.9217289,32.8300018310547
1216.9373539,25.4500007629395
1216.9529789,18.7199993133545
1216.9686039,12.789999961853
1216.9842289,7.6399998664856
1216.9998539,3.19000005722046
1217.0154789,-0.620000004768372
1217.0311039,-3.92000007629395
1217.0467289,-6.8899998664856
1217.0623539,-9.82999992370605
1217.0779789,-13.0500001907349
1217.0936039,-16.75
1217.1092289,-20.8099994659424
1217.1248539,-24.9200000762939
1217.1404789,-28.7600002288818
1217.1561039,-32.1399993896484
1217.1717289,-34.9300003051758
1217.1873539,-37.0400009155273
1217.2029789,-38.6100006103516
1217.2186039,-39.9599990844727
1217.2342289,-41.3899993896484
1217.2498539,-42.810001373291
1217.2654789,-43.8699989318848
1217.2811039,-44.2099990844727
1217.2967289,-43.7400016784668
1217.3123539,-42.6599998474121
1217.3279789,-41.25
1217.3436039,-39.6699981689453
1217.3592289,-37.5
1217.3748539,-33.5499992370605
1217.3904789,-26.1100006103516
1217.4061039,-13.9200000762939
1217.4217289,2.72000002861023
1217.4373539,21.9500007629395
1217.4529789,41.1100006103516
1217.4686039,57.8499984741211
1217.4842289,70.5199966430664
1217.4998539,78.1999969482422
1217.5154789,80.7900009155273
1217.5311039,78.9700012207031
1217.5467289,74.0100021362305
1217.5623539,67.3099975585938
1217.5779789,59.9599990844727
1217.5936039,52.4900016784668
1217.6092289,44.939998626709
1217.6248539,37.1300010681152
1217.6404789,29.0900001525879
1217.6561039,21.1900005340576
1217.6717289,13.9899997711182
1217.6873539,7.90000009536743
1217.7029789,2.99000000953674
1217.7186039,-1.0
1217.7342289,-4.59999990463257
1217.7498539,-8.22999954223633
1217.7654789,-12.0900001525879
1217.7811039,-16.0599994659424
1217.7967289,-19.8600006103516
1217.8123539,-23.3600006103516
1217.8279789,-26.7600002288818
1217.8436039,-30.3700008392334
1217.8592289,-34.2299995422363
1217.8748539,-37.9799995422363
1217.8904789,-41.1599998474121
1217.9061039,-43.560001373291
1217.9217289,-45.2299995422363
1217.9373539,-46.3600006103516
1217.9529789,-47.1500015258789
1217.9686039,-47.7900009155273
1217.9842289,-48.2700004577637
1217.9998539,-48.3499984741211
1218.0154789,-47.8400001525879
1218.0311039,-46.7700004577637
1218.0467289,-45.2099990844727
1218.0623539,-42.8699989318848
1218.0779789,-38.689998626709
1218.0936039,-31.1499996185303
1218.1092289,-19.1499996185303
1218.1248539,-2.88000011444092
1218.1404789,16.0300006866455
1218.1561039,35.0800018310547
1218.1717289,51.7099990844727
1218.1873539,64.1100006103516
1218.2029789,71.620002746582
1218.2186039,74.4899978637695
1218.2342289,73.5299987792969
1218.2498539,69.6500015258789
1218.2654789,63.7000007629395
1218.2811039,56.3899993896484
1218.2967289,48.2799987792969
1218.3123539,39.8400001525879
1218.3279789,31.3400001525879
1218.3436039,23.0499992370605
1218.3592289,15.3599996566772
1218.3748539,8.73999977111816
1218.3904789,3.47000002861023
1218.4061039,-0.419999986886978
1218.4217289,-3.20000004768372
1218.4373539,-5.36999988555908
1218.4529789,-7.48999977111816
1218.4686039,-10.0500001907349
1218.4842289,-13.2799997329712
1218.4998539,-16.9599990844727
1218.5154789,-20.6599998474121
1218.5311039,-24.0100002288818
1218.5467289,-26.9799995422363
1218.5623539,-29.7299995422363
1218.5779789,-32.5099983215332
1218.5936039,-35.3600006103516
1218.6092289,-38.0099983215332
1218.6248539,-40.1399993896484
1218.6404789,-41.6199989318848
1218.6561039,-42.5499992370605
1218.6717289,-43.060001373291
1218.6873539,-43.1800003051758
1218.7029789,-42.7099990844727
1218.7186039,-40.9700012207031
1218.7342289,-36.7200012207031
1218.7498539,-28.4799995422363
1218.7654789,-15.4099998474121
1218.7811039,1.87999999523163
1218.7967289,21.3400001525879
1218.8123539,40.2000007629395
1218.8279789,56.0400009155273
1218.8436039,67.2900009155273
1218.8592289,73.1999969482422
1218.8748539,73.9100036621094
1218.8904789,70.3899993896484
1218.9061039,64.0299987792969
1218.9217289,56.1100006103516
1218.9373539,47.4599990844727
1218.9529789,38.4599990844727
1218.9686039,29.4099998474121
1218.9842289,20.6800003051758
1218.9998539,12.6199998855591
1219.0154789,5.3899998664856
1219.0311039,-0.949999988079071
1219.0467289,-6.3899998664856
1219.0623539,-10.8900003433228
1219.0779789,-14.4499998092651
1219.0936039,-17.2399997711182
1219.1092289,-19.5799999237061
1219.1248539,-21.8700008392334
1219.1404789,-24.3600006103516
1219.1561039,-27.1499996185303
1219.1717289,-30.1499996185303
1219.1873539,-33.2200012207031
1219.2029789,-36.189998626709
1219.2186039,-39.0499992370605
1219.2342289,-41.8499984741211
1219.2498539,-44.5099983215332
1219.2654789,-46.7799987792969
1219.2811039,-48.4300003051758
1219.2967289,-49.4199981689453
1219.3123539,-49.7799987792969
1219.3279789,-49.5999984741211
1219.3436039,-48.9199981689453
1219.3592289,-47.3300018310547
1219.3748539,-43.560001373291
1219.3904789,-35.7099990844727
1219.4061039,-22.3600006103516
1219.4217289,-3.61999988555908
1219.4373539,18.6499996185303
1219.4529789,41.3499984741211
1219.4686039,60.7700004577637
1219.4842289,74.0999984741211
1219.4998539,81.0699996948242
1219.5154789,83.4800033569336
1219.5311039,83.1999969482422
1219.5467289,81.0699996948242
1219.5623539,77.129997253418
1219.5779789,71.2099990844727
1219.5936039,63.3800010681152
1219.6092289,53.8699989318848
1219.6248539,43.1800003051758
1219.6404789,31.9400005340576
1219.6561039,20.8999996185303
1219.6717289,10.6899995803833
1219.6873539,1.76999998092651
1219.7029789,-5.59000015258789
1219.7186039,-11.4700002670288
1219.7342289,-16.1399993896484
1219.7498539,-20.0799999237061
1219.7654789,-23.7299995422363
1219.7811039,-27.3500003814697
1219.7967289,-31.0799999237061
1219.8123539,-34.9500007629395
1219.8279789,-38.8400001525879
1219.8436039,-42.6199989318848
1219.8592289,-46.2400016784668
1219.8748539,-49.7900009155273
1219.8904789,-53.2599983215332
1219.9061039,-56.3600006103516
1219.9217289,-58.6599998474121
1219.9373539,-59.939998626709
1219.9529789,-60.3499984741211
1219.9686039,-60.2099990844727
1219.9842289,-59.7400016784668
1219.9998539,-58.8400001525879
1220.0154789,-56.8899993896484
1220.0311039,-52.4000015258789
1220.0467289,-43.4700012207031
1220.0623539,-28.9500007629395
1220.0779789,-9.14000034332275
1220.0936039,14.2200002670288
1220.1092289,38.6399993896484
1220.1248539,61.2000007629395
1220.1404789,78.9300003051758
1220.1561039,89.6900024414063
1220.1717289,93.0199966430664
1220.1873539,90.0699996948242
1220.2029789,82.870002746582
1220.2186039,73.4400024414063
1220.2342289,63.2200012207031
1220.2498539,52.7900009155273
1220.2654789,42.1599998474121
1220.2811039,31.3400001525879
1220.2967289,20.7099990844727
1220.3123539,10.9099998474121
1220.3279789,2.51999998092651
1220.3436039,-4.17999982833862
1220.3592289,-9.27999973297119
1220.3748539,-13.1400003433228
1220.3904789,-16.2600002288818
1220.4061039,-19.2000007629395
1220.4217289,-22.3400001525879
1220.4373539,-25.7900009155273
1220.4529789,-29.5100002288818
1220.4686039,-33.439998626709
1220.4842289,-37.4900016784668
1220.4998539,-41.5499992370605
1220.5154789,-45.3899993896484
1220.5311039,-48.6399993896484
1220.5467289,-50.9199981689453
1220.5623539,-52.1199989318848
1220.5779789,-52.3600006103516
1220.5936039,-51.9700012207031
1220.6092289,-51.3400001525879
1220.6248539,-50.7799987792969
1220.6404789,-50.2599983215332
1220.6561039,-49.4199981689453
1220.6717289,-47.6500015258789
1220.6873539,-43.9500007629395
1220.7029789,-36.939998626709
1220.7186039,-25.3999996185303
1220.7342289,-8.85999965667725
1220.7498539,11.9499998092651
1220.7654789,34.8600006103516
1220.7811039,56.5200004577637
1220.7967289,73.6699981689453
1220.8123539,84.3399963378906
1220.8279789,88.2300033569336
1220.8436039,86.4800033569336
1220.8592289,81.0299987792969
1220.8748539,73.8099975585938
1220.8904789,66.0299987792969
1220.9061039,58.0999984741211
1220.9217289,49.9199981689453
1220.9373539,41.4099998474121
1220.9529789,32.7900009155273
1220.9686039,24.4699993133545
1220.9842289,16.8600006103516
1220.9998539,10.2399997711182
1221.0154789,4.65000009536743
1221.0311039,0.0099999997764825
1221.0467289,-3.72000002861023
1221.0623539,-6.6399998664856
1221.0779789,-8.96000003814697
1221.0936039,-11.0900001525879
1221.1092289,-13.460000038147
1221.1248539,-16.3500003814697
1221.1404789,-19.6800003051758
1221.1561039,-23.0900001525879
1221.1717289,-26.1800003051758
1221.1873539,-28.75
1221.2029789,-30.9099998474121
1221.2186039,-32.8400001525879
1221.2342289,-34.6699981689453
1221.2498539,-36.5200004577637
1221.2654789,-38.3699989318848
1221.2811039,-39.9300003051758
1221.2967289,-40.75
1221.3123539,-40.5099983215332
1221.3279789,-38.9700012207031
1221.3436039,-35.4799995422363
1221.3592289,-28.7999992370605
1221.3748539,-17.9799995422363
1221.3904789,-3.3199999332428
1221.4061039,13.5500001907349
1221.4217289,30.2700004577637
1221.4373539,44.5900001525879
1221.4529789,55.0
1221.4686039,60.939998626709
1221.4842289,62.689998626709
1221.4998539,61.0900001525879
1221.5154789,57.2299995422363
1221.5311039,52.1399993896484
1221.5467289,46.5099983215332
1221.5623539,40.6199989318848
1221.5779789,34.5099983215332
1221.5936039,28.2900009155273
1221.6092289,22.2299995422363
1221.6248539,16.7700004577637
1221.6404789,12.3500003814697
1221.6561039,9.13000011444092
1221.6717289,6.88000011444092
1221.6873539,5.19000005722046
1221.7029789,3.67000007629395
1221.7186039,2.07999992370605
1221.7342289,0.150000005960464
1221.7498539,-2.35999989509583
1221.7654789,-5.57999992370605
1221.7811039,-9.35999965667725
1221.7967289,-13.3599996566772
1221.8123539,-17.2099990844727
1221.8279789,-20.6599998474121
1221.8436039,-23.5799999237061
1221.8592289,-26.0900001525879
1221.8748539,-28.3700008392334
1221.8904789,-30.4699993133545
1221.9061039,-32.2200012207031
1221.9217289,-33.3699989318848
1221.9373539,-33.5900001525879
1221.9529789,-32.2900009155273
1221.9686039,-28.6000003814697
1221.9842289,-21.6100006103516
1221.9998539,-10.8599996566772
1222.0154789,3.0
1222.0311039,18.1499996185303
1222.0467289,32.1199989318848
1222.0623539,42.7799987792969
1222.0779789,49.0999984741211
1222.0936039,51.2200012207031
1222.1092289,50.0900001525879
1222.1248539,46.7700004577637
1222.1404789,42.060001373291
1222.1561039,36.4300003051758
1222.1717289,30.0900001525879
1222.1873539,23.2700004577637
1222.2029789,16.2900009155273
1222.2186039,9.46000003814697
1222.2342289,3.0699999332428
1222.2498539,-2.55999994277954
1222.2654789,-7.28000020980835
1222.2811039,-11.1099996566772
1222.2967289,-14.2399997711182
1222.3123539,-16.9099998474121
1222.3279789,-19.3700008392334
1222.3436039,-21.7900009155273
1222.3592289,-24.3400001525879
1222.3748539,-27.2900009155273
1222.3904789,-30.7999992370605
1222.4061039,-34.5999984741211
1222.4217289,-38.0
1222.4373539,-40.3300018310547
1222.4529789,-41.3899993896484
1222.4686039,-41.4700012207031
1222.4842289,-41.1199989318848
1222.4998539,-40.8899993896484
1222.5154789,-41.1500015258789
1222.5311039,-41.8899993896484
1222.5467289,-42.6800003051758
1222.5623539,-42.7999992370605
1222.5779789,-41.4099998474121
1222.5936039,-37.5900001525879
1222.6092289,-30.3700008392334
1222.6248539,-18.9799995422363
1222.6404789,-3.73000001907349
1222.6561039,13.6499996185303
1222.6717289,30.6599998474121
1222.6873539,44.9599990844727
1222.7029789,55.1100006103516
1222.7186039,60.7099990844727
1222.7342289,62.1599998474121
1222.7498539,60.2799987792969
1222.7654789,56.1199989318848
1222.7811039,50.8699989318848
1222.7967289,45.4199981689453
1222.8123539,40.0800018310547
1222.8279789,34.5699996948242
1222.8436039,28.3999996185303
1222.8592289,21.2999992370605
1222.8748539,13.5900001525879
1222.8904789,6.03999996185303
1222.9061039,-0.540000021457672
1222.9217289,-5.80000019073486
1222.9373539,-9.85000038146973
1222.9529789,-13.1199998855591
1222.9686039,-16.0499992370605
1222.9842289,-18.9099998474121
1222.9998539,-21.7999992370605
1223.0154789,-24.8299999237061
1223.0311039,-28.1100006103516
1223.0467289,-31.5799999237061
1223.0623539,-34.8400001525879
1223.0779789,-37.4000015258789
1223.0936039,-39.0099983215332
1223.1092289,-39.8499984741211
1223.1248539,-40.3199996948242
1223.1404789,-40.8600006103516
1223.1561039,-41.6800003051758
1223.1717289,-42.6399993896484
1223.1873539,-43.2999992370605
1223.2029789,-43.0699996948242
1223.2186039,-41.0800018310547
1223.2342289,-36.2299995422363
1223.2498539,-27.6200008392334
1223.2654789,-14.9300003051758
1223.2811039,1.26999998092651
1223.2967289,19.3899993896484
1223.3123539,36.8800010681152
1223.3279789,51.1699981689453
1223.3436039,60.439998626709
1223.3592289,64.1800003051758
1223.3748539,63.2099990844727
1223.3904789,59.2299995422363
1223.4061039,53.8600006103516
1223.4217289,48.0099983215332
1223.4373539,41.9000015258789
1223.4529789,35.3400001525879
1223.4686039,28.1800003051758
1223.4842289,20.5100002288818
1223.4998539,12.7600002288818
1223.5154789,5.5
1223.5311039,-0.709999978542328
1223.5467289,-5.63000011444092
1223.5623539,-9.35999965667725
1223.5779789,-12.2700004577637
1223.5936039,-14.7799997329712
1223.6092289,-17.2900009155273
1223.6248539,-20.0799999237061
1223.6404789,-23.3700008392334
1223.6561039,-27.0900001525879
1223.6717289,-30.8700008392334
1223.6873539,-34.2599983215332
1223.7029789,-36.9199981689453
1223.7186039,-38.7099990844727
1223.7342289,-39.7599983215332
1223.7498539,-40.3899993896484
1223.7654789,-40.9000015258789
1223.7811039,-41.439998626709
1223.7967289,-41.8199996948242
1223.8123539,-41.2400016784668
1223.8279789,-38.3600006103516
1223.8436039,-31.7999992370605
1223.8592289,-20.9599990844727
1223.8748539,-6.42999982833862
1223.8904789,10.1800003051758
1223.9061039,26.6100006103516
1223.9217289,40.3499984741211
1223.9373539,49.5400009155273
1223.9529789,53.6699981689453
1223.9686039,53.4900016784668
1223.9842289,50.3899993896484
1223.9998539,45.7400016784668
1224.0154789,40.4900016784668
1224.0311039,35.0
1224.0467289,29.2000007629395
1224.0623539,23.0699996948242
1224.0779789,16.7700004577637
1224.0936039,10.7200002670288
1224.1092289,5.3600001335144
1224.1248539,0.980000019073486
1224.1404789,-2.41000008583069
1224.1561039,-5.05999994277954
1224.1717289,-7.17999982833862
1224.1873539,-9.06999969482422
1224.2029789,-10.9899997711182
1224.2186039,-13.1800003051758
1224.2342289,-15.6999998092651
1224.2498539,-18.4300003051758
1224.2654789,-21.1100006103516
1224.2811039,-23.6100006103516
1224.2967289,-26.0599994659424
1224.3123539,-28.6100006103516
1224.3279789,-31.1299991607666
1224.3436039,-33.3499984741211
1224.3592289,-34.9500007629395
1224.3748539,-35.5800018310547
1224.3904789,-34.8899993896484
1224.4061039,-32.3199996948242
1224.4217289,-27.0300006866455
1224.4373539,-18.1800003051758
1224.4529789,-5.53999996185303
1224.4686039,10.0200004577637
1224.4842289,26.6700000762939
1224.4998539,42.1199989318848
1224.5154789,54.4199981689453
1224.5311039,62.4099998474121
1224.5467289,65.8399963378906
1224.5623539,65.2399978637695
1224.5779789,61.6500015258789
1224.5936039,56.2400016784668
1224.6092289,49.9599990844727
1224.6248539,43.310001373291
1224.6404789,36.4000015258789
1224.6561039,29.2299995422363
1224.6717289,22.0200004577637
1224.6873539,15.1899995803833
1224.7029789,9.21000003814697
1224.7186039,4.40000009536743
1224.7342289,0.800000011920929
1224.7498539,-1.80999994277954
1224.7654789,-3.89000010490417
1224.7811039,-5.8899998664856
1224.7967289,-8.19999980926514
1224.8123539,-10.9799995422363
1224.8279789,-14.1800003051758
1224.8436039,-17.5900001525879
1224.8592289,-21.0300006866455
1224.8748539,-24.4200000762939
1224.8904789,-27.8799991607666
1224.9061039,-31.4300003051758
1224.9217289,-34.7799987792969
1224.9373539,-37.4500007629395
1224.9529789,-39.1500015258789
1224.9686039,-39.939998626709
1224.9842289,-40.0499992370605
1224.9998539,-39.560001373291
1225.0154789,-37.9599990844727
1225.0311039,-33.9799995422363
1225.0467289,-26.3400001525879
1225.0623539,-14.6899995803833
1225.0779789,-0.129999995231628
1225.0936039,15.1700000762939
1225.1092289,28.8099994659424
1225.1248539,38.9199981689453
1225.1404789,44.7700004577637
1225.1561039,46.7599983215332
1225.1717289,45.9500007629395
1225.1873539,43.5800018310547
1225.2029789,40.5800018310547
1225.2186039,37.3699989318848
1225.2342289,33.8800010681152
1225.2498539,29.7999992370605
1225.2654789,24.9400005340576
1225.2811039,19.3500003814697
1225.2967289,13.4200000762939
1225.3123539,7.71999979019165
1225.3279789,2.63000011444092
1225.3436039,-1.73000001907349
1225.3592289,-5.44999980926514
1225.3748539,-8.61999988555908
1225.3904789,-11.4200000762939
1225.4061039,-14.1000003814697
1225.4217289,-16.7999992370605
1225.4373539,-19.5300006866455
1225.4529789,-22.2299995422363
1225.4686039,-24.7199993133545
1225.4842289,-26.7199993133545
1225.4998539,-28.1000003814697
1225.5154789,-28.9899997711182
1225.5311039,-29.7600002288818
1225.5467289,-30.75
1225.5623539,-32.0400009155273
1225.5779789,-33.4799995422363
1225.5936039,-34.6599998474121
1225.6092289,-35.0900001525879
1225.6248539,-34.1599998474121
1225.6404789,-31.1200008392334
1225.6561039,-25.1200008392334
1225.6717289,-15.6999998092651
1225.6873539,-3.27999997138977
1225.7029789,10.6999998092651
1225.7186039,24.1000003814697
1225.7342289,34.7999992370605
1225.7498539,41.4500007629395
1225.7654789,43.7900009155273
1225.7811039,42.5800018310547
1225.7967289,39.1399993896484
1225.8123539,34.7400016784668
1225.8279789,30.1800003051758
1225.8436039,25.7900009155273
1225.8592289,21.6200008392334
1225.8748539,17.5699996948242
1225.8904789,13.4899997711182
1225.9061039,9.25
1225.9217289,4.8600001335144
1225.9373539,0.569999992847443
1225.9529789,-3.27999997138977
1225.9686039,-6.44999980926514
1225.9842289,-8.82999992370605
1225.9998539,-10.4499998092651
1226.0154789,-11.5600004196167
1226.0311039,-12.5600004196167
1226.0467289,-13.8199996948242
1226.0623539,-15.460000038147
1226.0779789,-17.3600006103516
1226.0936039,-19.2299995422363
1226.1092289,-20.8299999237061
1226.1248539,-22.0599994659424
1226.1404789,-23.0400009155273
1226.1561039,-23.9300003051758
1226.1717289,-24.7000007629395
1226.1873539,-25.2800006866455
1226.2029789,-25.6700000762939
1226.2186039,-25.8899993896484
1226.2342289,-25.8400001525879
1226.2498539,-25.1800003051758
1226.2654789,-23.3799991607666
1226.2811039,-19.9300003051758
1226.2967289,-14.2600002288818
