Time(s),Value(%)
1060.0093332,-16.1100006103516
1060.0249582,-23.4500007629395
1060.0405832,-30.4400005340576
1060.0562082,-37.2799987792969
1060.0718332,-43.810001373291
1060.0874582,-49.7299995422363
1060.1030832,-54.7799987792969
1060.1187082,-58.8899993896484
1060.1343332,-62.0499992370605
1060.1499582,-64.3300018310547
1060.1655832,-65.75
1060.1812082,-66.2699966430664
1060.1968332,-65.8300018310547
1060.2124582,-64.6399993896484
1060.2280832,-63.1599998474121
1060.2437082,-61.7999992370605
1060.2593332,-60.6500015258789
1060.2749582,-59.5
1060.2905832,-58.0200004577637
1060.3062082,-55.7700004577637
1060.3218332,-51.7999992370605
1060.3374582,-44.4799995422363
1060.3530832,-32.2700004577637
1060.3687082,-14.9700002670288
1060.3843332,5.78000020980835
1060.3999582,27.3299999237061
1060.4155832,47.1100006103516
1060.4312082,63.6800003051758
1060.4468332,76.9899978637695
1060.4624582,87.7600021362305
1060.4780832,96.5400009155273
1060.4937082,103.5
1060.5093332,108.589996337891
1060.5249582,111.73999786377
1060.5405832,112.910003662109
1060.5562082,111.970001220703
1060.5718332,108.580001831055
1060.5874582,102.209999084473
1060.6030832,92.4899978637695
1060.6187082,79.7200012207031
1060.6343332,65.0500030517578
1060.6499582,50.1599998474121
1060.6655832,36.6300010681152
1060.6812082,25.3099994659424
1060.6968332,16.0799999237061
1060.7124582,8.14999961853027
1060.7280832,0.670000016689301
1060.7437082,-6.82999992370605
1060.7593332,-14.3800001144409
1060.7749582,-21.6700000762939
1060.7905832,-28.3600006103516
1060.8062082,-34.2999992370605
1060.8218332,-39.75
1060.8374582,-45.0800018310547
1060.8530832,-50.4099998474121
1060.8687082,-55.5200004577637
1060.8843332,-60.0699996948242
1060.8999582,-63.8400001525879
1060.9155832,-66.75
1060.9312082,-68.8499984741211
1060.9468332,-70.3199996948242
1060.9624582,-71.3499984741211
1060.9780832,-71.879997253418
1060.9937082,-71.6999969482422
1061.0093332,-70.6800003051758
1061.0249582,-68.7099990844727
1061.0405832,-65.3499984741211
1061.0562082,-59.3600006103516
1061.0718332,-48.8800010681152
1061.0874582,-32.6800003051758
1061.1030832,-11.3100004196167
1061.1187082,12.9200000762939
1061.1343332,37.0499992370605
1061.1499582,58.7200012207031
1061.1655832,76.870002746582
1061.1812082,91.5899963378906
1061.1968332,103.680000305176
1061.2124582,114.199996948242
1061.2280832,123.680000305176
1061.2437082,131.289993286133
1061.2593332,135.380004882813
1061.2749582,134.550003051758
1061.2905832,128.190002441406
1061.3062082,116.559997558594
1061.3218332,100.540000915527
1061.3374582,81.4400024414063
1061.3530832,60.7299995422363
1061.3687082,39.7799987792969
1061.3843332,19.7000007629395
1061.3999582,1.27999997138977
1061.4155832,-15.0200004577637
1061.4312082,-29.2099990844727
1061.4468332,-41.6800003051758
1061.4624582,-53.1500015258789
1061.4780832,-64.2900009155273
1061.4937082,-75.370002746582
1061.5093332,-86.1600036621094
1061.5249582,-96.1800003051758
1061.5405832,-104.980003356934
1061.5562082,-112.339996337891
1061.5718332,-118.379997253418
1061.5874582,-123.279998779297
1061.6030832,-127.080001831055
1061.6187082,-129.589996337891
1061.6343332,-130.660003662109
1061.6499582,-130.289993286133
1061.6655832,-128.710006713867
1061.6812082,-126.199996948242
1061.6968332,-123.019996643066
1061.7124582,-119.23999786377
1061.7280832,-114.190002441406
1061.7437082,-106.139999389648
1061.7593332,-93.0
1061.7749582,-73.4599990844727
1061.7905832,-47.8199996948242
1061.8062082,-17.8199996948242
1061.8218332,14.25
1061.8374582,46.0499992370605
1061.8530832,75.3399963378906
1061.8687082,100.5
1061.8843332,120.919998168945
1061.8999582,136.729995727539
1061.9155832,148.289993286133
1061.9312082,155.740005493164
1061.9468332,158.860000610352
1061.9624582,157.289993286133
1061.9780832,150.729995727539
1061.9937082,139.080001831055
1062.0093332,122.790000915527
1062.0249582,102.919998168945
1062.0405832,81.0
1062.0562082,58.6199989318848
1062.0718332,37.0999984741211
1062.0874582,17.4099998474121
1062.1030832,0.0599999986588955
1062.1187082,-14.8900003433228
1062.1343332,-27.8600006103516
1062.1499582,-39.4900016784668
1062.1655832,-50.3499984741211
1062.1812082,-60.6699981689453
1062.1968332,-70.4100036621094
1062.2124582,-79.5
1062.2280832,-87.8600006103516
1062.2437082,-95.1399993896484
1062.2593332,-100.919998168945
1062.2749582,-104.919998168945
1062.2905832,-107.040000915527
1062.3062082,-107.580001831055
1062.3218332,-107.139999389648
1062.3374582,-106.269996643066
1062.3530832,-105.019996643066
1062.3687082,-103.089996337891
1062.3843332,-100.150001525879
1062.3999582,-96.0
1062.4155832,-90.5400009155273
1062.4312082,-83.4400024414063
1062.4468332,-73.5699996948242
1062.4624582,-58.9300003051758
1062.4780832,-37.75
1062.4937082,-9.84000015258789
1062.5093332,23.0900001525879
1062.5249582,58.1300010681152
1062.5405832,92.2900009155273
1062.5562082,123.610000610352
1062.5718332,151.649993896484
1062.5874582,176.479995727539
1062.6030832,197.520004272461
1062.6187082,213.619995117188
1062.6343332,223.889999389648
1062.6499582,228.089996337891
1062.6655832,226.440002441406
1062.6812082,219.220001220703
1062.6968332,206.279998779297
1062.7124582,187.110000610352
1062.7280832,161.669998168945
1062.7437082,131.389999389648
1062.7593332,98.9899978637695
1062.7749582,67.4400024414063
1062.7905832,38.9300003051758
1062.8062082,14.3199996948242
1062.8218332,-6.82999992370605
1062.8374582,-25.5699996948242
1062.8530832,-42.5400009155273
1062.8687082,-57.8600006103516
1062.8843332,-71.379997253418
1062.8999582,-83.0299987792969
1062.9155832,-92.9400024414063
1062.9312082,-101.470001220703
1062.9468332,-109.0
1062.9624582,-115.879997253418
1062.9780832,-122.160003662109
1062.9937082,-127.449996948242
1063.0093332,-131.210006713867
1063.0249582,-133.190002441406
1063.0405832,-133.550003051758
1063.0562082,-132.839996337891
1063.0718332,-131.809997558594
1063.0874582,-130.899993896484
1063.1030832,-129.869995117188
1063.1187082,-128.070007324219
1063.1343332,-124.849998474121
1063.1499582,-119.5
1063.1655832,-110.870002746582
1063.1812082,-97.3399963378906
1063.1968332,-77.3000030517578
1063.2124582,-49.9599990844727
1063.2280832,-16.2199993133545
1063.2437082,21.0799999237061
1063.2593332,58.3699989318848
1063.2749582,92.7699966430664
1063.2905832,122.779998779297
1063.3062082,148.210006713867
1063.3218332,169.649993896484
1063.3374582,187.479995727539
1063.3530832,201.070007324219
1063.3687082,209.279998779297
1063.3843332,211.169998168945
1063.3999582,206.279998779297
1063.4155832,194.559997558594
1063.4312082,176.350006103516
1063.4468332,152.539993286133
1063.4624582,124.849998474121
1063.4780832,95.7300033569336
1063.4937082,67.4899978637695
1063.5093332,41.5999984741211
1063.5249582,18.5900001525879
1063.5405832,-1.69000005722046
1063.5562082,-19.7099990844727
1063.5718332,-36.0400009155273
1063.5874582,-51.2599983215332
1063.6030832,-65.6699981689453
1063.6187082,-79.0299987792969
1063.6343332,-90.9000015258789
1063.6499582,-101.059997558594
1063.6655832,-109.650001525879
1063.6812082,-116.959999084473
1063.6968332,-123.269996643066
1063.7124582,-128.740005493164
1063.7280832,-133.660003662109
1063.7437082,-138.089996337891
1063.7593332,-141.529998779297
1063.7749582,-143.190002441406
1063.7905832,-142.729995727539
1063.8062082,-140.369995117188
1063.8218332,-136.720001220703
1063.8374582,-132.570007324219
1063.8530832,-128.380004882813
1063.8687082,-123.809997558594
1063.8843332,-117.779998779297
1063.8999582,-108.709999084473
1063.9155832,-94.9199981689453
1063.9312082,-75.3499984741211
1063.9468332,-50.3699989318848
1063.9624582,-22.2600002288818
1063.9780832,6.07999992370605
1063.9937082,33.1599998474121
1064.0093332,59.1699981689453
1064.0249582,84.4499969482422
1064.0405832,108.529998779297
1064.0562082,130.339996337891
1064.0718332,148.770004272461
1064.0874582,163.119995117188
1064.1030832,173.089996337891
1064.1187082,178.619995117188
1064.1343332,179.429992675781
1064.1499582,175.210006713867
1064.1655832,165.820007324219
1064.1812082,151.679992675781
1064.1968332,133.820007324219
1064.2124582,113.720001220703
1064.2280832,92.9499969482422
1064.2437082,72.7600021362305
1064.2593332,53.9599990844727
1064.2749582,36.9300003051758
1064.2905832,21.6900005340576
1064.3062082,7.96000003814697
1064.3218332,-4.6399998664856
1064.3374582,-16.4599990844727
1064.3530832,-27.7099990844727
1064.3687082,-38.3899993896484
1064.3843332,-48.2000007629395
1064.3999582,-56.7599983215332
1064.4155832,-63.8199996948242
1064.4312082,-69.4400024414063
1064.4468332,-73.7699966430664
1064.4624582,-76.9800033569336
1064.4780832,-79.2399978637695
1064.4937082,-80.9000015258789
1064.5093332,-82.1900024414063
1064.5249582,-82.9499969482422
1064.5405832,-82.7200012207031
1064.5562082,-81.1500015258789
1064.5718332,-78.3000030517578
1064.5874582,-74.620002746582
1064.6030832,-70.7200012207031
1064.6187082,-66.7099990844727
1064.6343332,-61.75
1064.6499582,-54.2599983215332
1064.6655832,-42.6399993896484
1064.6812082,-26.0599994659424
1064.6968332,-5.13000011444092
1064.7124582,18.3700008392334
1064.7280832,42.3499984741211
1064.7437082,65.1800003051758
1064.7593332,85.7200012207031
1064.7749582,103.059997558594
1064.7905832,116.540000915527
1064.8062082,125.949996948242
1064.8218332,131.490005493164
1064.8374582,133.490005493164
1064.8530832,132.070007324219
1064.8687082,127.139999389648
1064.8843332,118.519996643066
1064.8999582,106.360000610352
1064.9155832,91.4100036621094
1064.9312082,74.8899993896484
1064.9468332,58.1100006103516
1064.9624582,42.1500015258789
1064.9780832,27.5499992370605
1064.9937082,14.3299999237061
1065.0093332,2.1800000667572
1065.0249582,-9.07999992370605
1065.0405832,-19.5599994659424
1065.0562082,-29.2700004577637
1065.0718332,-38.189998626709
1065.0874582,-46.2799987792969
1065.1030832,-53.6800003051758
1065.1187082,-60.5499992370605
1065.1343332,-66.6999969482422
1065.1499582,-71.7099990844727
1065.1655832,-75.3099975585938
1065.1812082,-77.5500030517578
1065.1968332,-78.7200012207031
1065.2124582,-79.2600021362305
1065.2280832,-79.620002746582
1065.2437082,-80.1600036621094
1065.2593332,-80.8499984741211
1065.2749582,-81.2399978637695
1065.2905832,-80.8300018310547
1065.3062082,-79.3399963378906
1065.3218332,-76.7699966430664
1065.3374582,-73.2600021362305
1065.3530832,-68.75
1065.3687082,-62.4700012207031
1065.3843332,-52.939998626709
1065.3999582,-38.810001373291
1065.4155832,-19.9699993133545
1065.4312082,2.25
1065.4468332,25.6800003051758
1065.4624582,48.0800018310547
1065.4780832,67.9800033569336
1065.4937082,85.0400009155273
1065.5093332,99.4899978637695
1065.5249582,111.360000610352
1065.5405832,120.330001831055
1065.5562082,126.080001831055
1065.5718332,128.479995727539
1065.5874582,127.709999084473
1065.6030832,124.059997558594
1065.6187082,117.690002441406
1065.6343332,108.440002441406
1065.6499582,96.2200012207031
1065.6655832,81.4100036621094
1065.6812082,64.879997253418
1065.6968332,47.7099990844727
1065.7124582,30.8999996185303
1065.7280832,15.1199998855591
1065.7437082,0.600000023841858
1065.7593332,-12.710000038147
1065.7749582,-24.9400005340576
1065.7905832,-36.1599998474121
1065.8062082,-46.4500007629395
1065.8218332,-55.939998626709
1065.8374582,-64.7099990844727
1065.8530832,-72.9199981689453
1065.8687082,-80.6500015258789
1065.8843332,-87.7200012207031
1065.8999582,-93.7799987792969
1065.9155832,-98.5999984741211
1065.9312082,-102.129997253418
1065.9468332,-104.480003356934
1065.9624582,-105.779998779297
1065.9780832,-106.180000305176
1065.9937082,-105.900001525879
1066.0093332,-105.059997558594
1066.0249582,-103.569999694824
1066.0405832,-101.199996948242
1066.0562082,-97.8899993896484
1066.0718332,-93.75
1066.0874582,-88.7900009155273
1066.1030832,-82.5800018310547
1066.1187082,-74.0199966430664
1066.1343332,-61.7299995422363
1066.1499582,-44.9000015258789
1066.1655832,-24.0599994659424
1066.1812082,-0.930000007152557
1066.1968332,22.2299995422363
1066.2124582,43.560001373291
1066.2280832,62.060001373291
1066.2437082,77.75
1066.2593332,91.0599975585938
1066.2749582,102.080001831055
1066.2905832,110.48999786377
1066.3062082,115.900001525879
1066.3218332,118.019996643066
1066.3374582,116.680000305176
1066.3530832,111.919998168945
1066.3687082,103.970001220703
1066.3843332,93.1600036621094
1066.3999582,80.0400009155273
1066.4155832,65.4800033569336
1066.4312082,50.5900001525879
1066.4468332,36.4199981689453
1066.4624582,23.6399993896484
1066.4780832,12.3999996185303
1066.4937082,2.34999990463257
1066.5093332,-7.05000019073486
1066.5249582,-16.0900001525879
1066.5405832,-24.6599998474121
1066.5562082,-32.5400009155273
1066.5718332,-39.6599998474121
1066.5874582,-46.1300010681152
1066.6030832,-52.2599983215332
1066.6187082,-58.25
1066.6343332,-63.8899993896484
1066.6499582,-68.6600036621094
1066.6655832,-72.1800003051758
1066.6812082,-74.4199981689453
1066.6968332,-75.5599975585938
1066.7124582,-75.8399963378906
1066.7280832,-75.2699966430664
1066.7437082,-73.629997253418
1066.7593332,-70.6999969482422
1066.7749582,-66.7399978637695
1066.7905832,-62.4000015258789
1066.8062082,-58.2400016784668
1066.8218332,-54.4000015258789
1066.8374582,-50.4599990844727
1066.8530832,-45.4099998474121
1066.8687082,-37.5999984741211
1066.8843332,-25.4200000762939
1066.8999582,-8.21000003814697
1066.9155832,13.1899995803833
1066.9312082,36.8499984741211
1066.9468332,60.4300003051758
1066.9624582,81.9100036621094
1066.9780832,100.069999694824
1066.9937082,114.629997253418
1067.0093332,126.169998168945
1067.0249582,135.179992675781
1067.0405832,141.369995117188
1067.0562082,143.839996337891
1067.0718332,141.850006103516
1067.0874582,135.199996948242
1067.1030832,124.190002441406
1067.1187082,109.459999084473
1067.1343332,91.9700012207031
1067.1499582,73.0400009155273
1067.1655832,54.1199989318848
1067.1812082,36.4000015258789
1067.1968332,20.5400009155273
1067.2124582,6.65999984741211
1067.2280832,-5.40000009536743
1067.2437082,-15.7200002670288
1067.2593332,-24.3099994659424
1067.2749582,-31.7199993133545
1067.2905832,-38.7799987792969
1067.3062082,-46.0200004577637
1067.3218332,-53.3699989318848
1067.3374582,-60.3600006103516
1067.3530832,-66.5699996948242
1067.3687082,-71.8399963378906
1067.3843332,-76.3300018310547
1067.3999582,-80.2399978637695
1067.4155832,-83.4400024414063
1067.4312082,-85.5299987792969
1067.4468332,-86.2399978637695
1067.4624582,-85.5999984741211
1067.4780832,-83.9000015258789
1067.4937082,-81.5199966430664
1067.5093332,-78.8300018310547
1067.5249582,-76.2099990844727
1067.5405832,-73.8199996948242
1067.5562082,-71.4700012207031
1067.5718332,-68.6900024414063
1067.5874582,-64.8000030517578
1067.6030832,-58.9300003051758
1067.6187082,-49.7799987792969
1067.6343332,-35.9300003051758
1067.6499582,-16.6800003051758
1067.6655832,7.09999990463257
1067.6812082,33.2999992370605
1067.6968332,59.439998626709
1067.7124582,83.5100021362305
1067.7280832,104.360000610352
1067.7437082,121.709999084473
1067.7593332,136.039993286133
1067.7749582,148.059997558594
1067.7905832,158.020004272461
1067.8062082,165.220001220703
1067.8218332,168.470001220703
1067.8374582,166.740005493164
1067.8530832,159.690002441406
1067.8687082,147.690002441406
1067.8843332,131.580001831055
1067.8999582,112.449996948242
1067.9155832,91.5199966430664
1067.9312082,70.129997253418
1067.9468332,49.560001373291
1067.9624582,30.6200008392334
1067.9780832,13.5200004577637
1067.9937082,-1.92999994754791
1068.0093332,-16.1299991607666
1068.0249582,-29.5400009155273
1068.0405832,-42.4700012207031
1068.0562082,-54.8600006103516
1068.0718332,-66.4599990844727
1068.0874582,-77.0500030517578
1068.1030832,-86.4599990844727
1068.1187082,-94.6699981689453
1068.1343332,-101.949996948242
1068.1499582,-108.569999694824
1068.1655832,-114.550003051758
1068.1812082,-119.639999389648
1068.1968332,-123.5
1068.2124582,-125.830001831055
1068.2280832,-126.540000915527
1068.2437082,-125.76000213623
1068.2593332,-123.930000305176
1068.2749582,-121.629997253418
1068.2905832,-119.25
1068.3062082,-116.599998474121
1068.3218332,-113.019996643066
1068.3374582,-107.540000915527
1068.3530832,-98.9100036621094
1068.3687082,-85.7099990844727
1068.3843332,-66.6100006103516
1068.3999582,-41.3800010681152
1068.4155832,-11.5
1068.4312082,20.1900005340576
1068.4468332,50.6300010681152
1068.4624582,77.5599975585938
1068.4780832,100.040000915527
1068.4937082,118.199996948242
1068.5093332,132.699996948242
1068.5249582,144.270004272461
1068.5405832,153.050003051758
1068.5562082,158.259994506836
1068.5718332,158.710006713867
1068.5874582,153.550003051758
1068.6030832,142.639999389648
1068.6187082,126.690002441406
1068.6343332,107.01000213623
1068.6499582,85.25
1068.6655832,63.1300010681152
1068.6812082,42.1599998474121
1068.6968332,23.2900009155273
1068.7124582,6.80000019073486
1068.7280832,-7.55000019073486
1068.7437082,-20.3199996948242
1068.7593332,-32.1100006103516
1068.7749582,-43.439998626709
1068.7905832,-54.5299987792969
1068.8062082,-65.2099990844727
1068.8218332,-75.0800018310547
1068.8374582,-83.7300033569336
1068.8530832,-90.9100036621094
1068.8687082,-96.7399978637695
1068.8843332,-101.580001831055
1068.8999582,-105.730003356934
1068.9155832,-109.040000915527
1068.9312082,-111.139999389648
1068.9468332,-111.769996643066
1068.9624582,-110.860000610352
1068.9780832,-108.589996337891
1068.9937082,-105.339996337891
1069.0093332,-101.620002746582
1069.0249582,-97.8499984741211
1069.0405832,-94.0400009155273
1069.0562082,-89.4400024414063
1069.0718332,-82.5800018310547
1069.0874582,-71.5999984741211
1069.1030832,-54.8899993896484
1069.1187082,-31.6399993896484
1069.1343332,-2.09999990463257
1069.1499582,31.9799995422363
1069.1655832,67.3099975585938
1069.1812082,100.26000213623
1069.1968332,128.369995117188
1069.2124582,150.889999389648
1069.2280832,168.320007324219
1069.2437082,181.539993286133
1069.2593332,191.210006713867
1069.2749582,197.740005493164
1069.2905832,200.949996948242
1069.3062082,199.919998168945
1069.3218332,193.350006103516
1069.3374582,180.470001220703
1069.3530832,161.479995727539
1069.3687082,137.529998779297
1069.3843332,110.419998168945
1069.3999582,82.2200012207031
1069.4155832,54.8899993896484
1069.4312082,29.8199996948242
1069.4468332,7.3899998664856
1069.4624582,-12.7799997329712
1069.4780832,-31.25
1069.4937082,-48.2900009155273
1069.5093332,-63.8400001525879
1069.5249582,-77.8899993896484
1069.5405832,-90.5500030517578
1069.5562082,-101.75
1069.5718332,-111.269996643066
1069.5874582,-118.940002441406
1069.6030832,-124.809997558594
1069.6187082,-129.139999389648
1069.6343332,-132.509994506836
1069.6499582,-135.330001831055
1069.6655832,-137.460006713867
1069.6812082,-138.419998168945
1069.6968332,-137.789993286133
1069.7124582,-135.550003051758
1069.7280832,-131.919998168945
1069.7437082,-127.190002441406
1069.7593332,-121.629997253418
1069.7749582,-115.580001831055
1069.7905832,-109.050003051758
1069.8062082,-101.120002746582
1069.8218332,-89.9700012207031
1069.8374582,-73.5500030517578
1069.8530832,-50.4799995422363
1069.8687082,-20.5900001525879
1069.8843332,15.0600004196167
1069.8999582,54.1800003051758
1069.9155832,93.3099975585938
1069.9312082,128.910003662109
1069.9468332,158.869995117188
1069.9624582,182.800003051758
1069.9780832,201.240005493164
1069.9937082,214.919998168945
1070.0093332,224.130004882813
1070.0249582,228.419998168945
1070.0405832,226.919998168945
1070.0562082,219.279998779297
1070.0718332,205.880004882813
1070.0874582,187.029998779297
1070.1030832,162.800003051758
1070.1187082,133.710006713867
1070.1343332,101.220001220703
1070.1499582,67.3899993896484
1070.1655832,34.3400001525879
1070.1812082,3.89000010490417
1070.1968332,-22.8500003814697
1070.2124582,-45.7000007629395
1070.2280832,-65.0999984741211
1070.2437082,-81.6800003051758
1070.2593332,-96.0100021362305
1070.2749582,-108.73999786377
1070.2905832,-120.629997253418
1070.3062082,-131.899993896484
1070.3218332,-141.809997558594
1070.3374582,-149.320007324219
1070.3530832,-153.800003051758
