Time(s),Value(%)
1362.006776,-41.6300010681152
1362.022401,-43.1800003051758
1362.038026,-44.6500015258789
1362.053651,-45.9799995422363
1362.069276,-47.1599998474121
1362.084901,-48.2400016784668
1362.100526,-49.2700004577637
1362.116151,-50.3699989318848
1362.131776,-51.7400016784668
1362.147401,-53.5099983215332
1362.163026,-55.6599998474121
1362.178651,-57.8600006103516
1362.194276,-59.5900001525879
1362.209901,-60.3699989318848
1362.225526,-60.0699996948242
1362.241151,-58.9199981689453
1362.256776,-57.2000007629395
1362.272401,-54.8300018310547
1362.288026,-51.2299995422363
1362.303651,-45.9099998474121
1362.319276,-39.1100006103516
1362.334901,-31.7800006866455
1362.350526,-24.9599990844727
1362.366151,-19.2600002288818
1362.381776,-14.75
1362.397401,-11.2799997329712
1362.413026,-8.72999954223633
1362.428651,-7.13000011444092
1362.444276,-6.40999984741211
1362.459901,-6.3600001335144
1362.475526,-6.65999984741211
1362.491151,-7.05999994277954
1362.506776,-7.34999990463257
1362.522401,-7.6399998664856
1362.538026,-8.10999965667725
1362.553651,-8.9399995803833
1362.569276,-10.1800003051758
1362.584901,-11.6800003051758
1362.600526,-13.1999998092651
1362.616151,-14.5200004577637
1362.631776,-15.5600004196167
1362.647401,-16.5599994659424
1362.663026,-17.9500007629395
1362.678651,-20.1299991607666
1362.694276,-23.2000007629395
1362.709901,-26.8700008392334
1362.725526,-30.6800003051758
1362.741151,-33.8800010681152
1362.756776,-35.4599990844727
1362.772401,-34.6199989318848
1362.788026,-31.3600006103516
1362.803651,-26.4500007629395
1362.819276,-20.9599990844727
1362.834901,-15.5299997329712
1362.850526,-10.0299997329712
1362.866151,-4.30999994277954
1362.881776,1.1599999666214
1362.897401,5.40000009536743
1362.913026,7.71000003814697
1362.928651,8.14000034332275
1362.944276,7.32000017166138
1362.959901,5.94999980926514
1362.975526,4.42000007629395
1362.991151,2.71000003814697
1363.006776,0.759999990463257
1363.022401,-1.35000002384186
1363.038026,-3.33999991416931
1363.053651,-4.84999990463257
1363.069276,-5.76999998092651
1363.084901,-6.3899998664856
1363.100526,-7.3899998664856
1363.116151,-9.38000011444092
1363.131776,-12.5799999237061
1363.147401,-16.7600002288818
1363.163026,-21.5599994659424
1363.178651,-26.6399993896484
1363.194276,-31.7399997711182
1363.209901,-36.689998626709
1363.225526,-41.3300018310547
1363.241151,-45.5200004577637
1363.256776,-49.0900001525879
1363.272401,-51.8899993896484
1363.288026,-53.8600006103516
1363.303651,-54.7599983215332
1363.319276,-54.0
1363.334901,-51.0099983215332
1363.350526,-45.8499984741211
1363.366151,-39.3199996948242
1363.381776,-32.5800018310547
1363.397401,-26.4599990844727
1363.413026,-21.1399993896484
1363.428651,-16.5200004577637
1363.444276,-12.9499998092651
1363.459901,-11.0200004577637
1363.475526,-11.039999961853
1363.491151,-12.6599998474121
1363.506776,-15.0900001525879
1363.522401,-17.6599998474121
1363.538026,-20.0900001525879
1363.553651,-22.4200000762939
1363.569276,-24.7900009155273
1363.584901,-27.2399997711182
1363.600526,-29.6599998474121
1363.616151,-31.8600006103516
1363.631776,-33.7400016784668
1363.647401,-35.3800010681152
1363.663026,-37.0499992370605
1363.678651,-39.0499992370605
1363.694276,-41.5499992370605
1363.709901,-44.5
1363.725526,-47.7200012207031
1363.741151,-50.9599990844727
1363.756776,-54.0200004577637
1363.772401,-56.7799987792969
1363.788026,-59.1699981689453
1363.803651,-61.060001373291
1363.819276,-62.25
1363.834901,-62.5200004577637
1363.850526,-61.8300018310547
1363.866151,-60.060001373291
1363.881776,-56.9099998474121
1363.897401,-52.0699996948242
1363.913026,-45.6599998474121
1363.928651,-38.3400001525879
1363.944276,-31.0699996948242
1363.959901,-24.5799999237061
1363.975526,-19.0599994659424
1363.991151,-14.460000038147
1364.006776,-10.9799995422363
1364.022401,-8.9399995803833
1364.038026,-8.35000038146973
1364.053651,-8.77999973297119
1364.069276,-9.60999965667725
1364.084901,-10.3999996185303
1364.100526,-11.1199998855591
1364.116151,-11.9200000762939
1364.131776,-12.9200000762939
1364.147401,-14.0799999237061
1364.163026,-15.3100004196167
1364.178651,-16.5100002288818
1364.194276,-17.6599998474121
1364.209901,-18.7099990844727
1364.225526,-19.6700000762939
1364.241151,-20.6000003814697
1364.256776,-21.6800003051758
1364.272401,-23.0799999237061
1364.288026,-24.8299999237061
1364.303651,-26.8299999237061
1364.319276,-28.9099998474121
1364.334901,-30.9500007629395
1364.350526,-32.8600006103516
1364.366151,-34.5099983215332
1364.381776,-35.7099990844727
1364.397401,-35.9900016784668
1364.413026,-34.6199989318848
1364.428651,-31.0300006866455
1364.444276,-25.2199993133545
1364.459901,-17.8700008392334
1364.475526,-9.94999980926514
1364.491151,-2.3199999332428
1364.506776,4.63000011444092
1364.522401,10.8199996948242
1364.538026,16.0300006866455
1364.553651,20.0900001525879
1364.569276,23.0799999237061
1364.584901,25.3600006103516
1364.600526,27.4099998474121
1364.616151,29.6100006103516
1364.631776,32.1100006103516
1364.647401,34.6100006103516
1364.663026,36.4700012207031
1364.678651,37.0400009155273
1364.694276,36.1300010681152
1364.709901,34.0299987792969
1364.725526,31.2900009155273
1364.741151,28.4099998474121
1364.756776,25.7299995422363
1364.772401,23.3700008392334
1364.788026,21.2700004577637
1364.803651,19.1700000762939
1364.819276,16.6599998474121
1364.834901,13.4099998474121
1364.850526,9.36999988555908
1364.866151,4.76999998092651
1364.881776,-0.0500000007450581
1364.897401,-4.88000011444092
1364.913026,-9.5
1364.928651,-13.6000003814697
1364.944276,-16.6900005340576
1364.959901,-18.0200004577637
1364.975526,-16.7900009155273
1364.991151,-12.5600004196167
1365.006776,-5.61999988555908
1365.022401,3.10999989509583
1365.038026,12.4399995803833
1365.053651,21.4200000762939
1365.069276,29.4599990844727
1365.084901,36.2400016784668
1365.100526,41.3600006103516
1365.116151,44.560001373291
1365.131776,45.9199981689453
1365.147401,45.9700012207031
1365.163026,45.3199996948242
1365.178651,44.4799995422363
1365.194276,43.7000007629395
1365.209901,42.9900016784668
1365.225526,42.1300010681152
1365.241151,40.8499984741211
1365.256776,38.9300003051758
1365.272401,36.4300003051758
1365.288026,33.6599998474121
1365.303651,31.0200004577637
1365.319276,28.8199996948242
1365.334901,27.1299991607666
1365.350526,25.7900009155273
1365.366151,24.2600002288818
1365.381776,21.75
1365.397401,17.5599994659424
1365.413026,11.6499996185303
1365.428651,4.59999990463257
1365.444276,-2.69000005722046
1365.459901,-9.51000022888184
1365.475526,-15.3999996185303
1365.491151,-19.9400005340576
1365.506776,-22.6000003814697
1365.522401,-22.5799999237061
1365.538026,-19.6299991607666
1365.553651,-14.2299995422363
1365.569276,-7.34000015258789
1365.584901,-0.0099999997764825
1365.600526,6.96000003814697
1365.616151,13.2600002288818
1365.631776,18.7999992370605
1365.647401,23.1499996185303
1365.663026,25.2900009155273
1365.678651,24.1599998474121
1365.694276,19.5599994659424
1365.709901,12.1599998474121
1365.725526,2.85999989509583
1365.741151,-7.59000015258789
1365.756776,-18.4599990844727
1365.772401,-28.6499996185303
1365.788026,-36.7099990844727
1365.803651,-41.689998626709
1365.819276,-43.8800010681152
1365.834901,-44.3600006103516
1365.850526,-43.9700012207031
1365.866151,-42.8300018310547
1365.881776,-40.8199996948242
1365.897401,-37.8899993896484
1365.913026,-34.2299995422363
1365.928651,-29.9500007629395
1365.944276,-24.8199996948242
1365.959901,-18.5300006866455
1365.975526,-10.9499998092651
1365.991151,-2.0699999332428
1366.006776,8.28999996185303
1366.022401,20.3199996948242
1366.038026,33.810001373291
1366.053651,48.0699996948242
1366.069276,62.2599983215332
1366.084901,75.9000015258789
1366.100526,88.9700012207031
1366.116151,101.440002441406
1366.131776,112.720001220703
1366.147401,121.819999694824
1366.163026,128.039993286133
1366.178651,131.429992675781
1366.194276,132.710006713867
1366.209901,132.720001220703
1366.225526,131.880004882813
1366.241151,130.009994506836
1366.256776,126.569999694824
1366.272401,121.339996337891
1366.288026,114.790000915527
1366.303651,107.889999389648
1366.319276,101.540000915527
1366.334901,96.1800003051758
1366.350526,91.7300033569336
1366.366151,87.7799987792969
1366.381776,83.8600006103516
1366.397401,79.6399993896484
1366.413026,75.0299987792969
1366.428651,69.9000015258789
1366.444276,63.9000015258789
1366.459901,56.6699981689453
1366.475526,48.310001373291
1366.491151,39.6199989318848
1366.506776,32.0099983215332
1366.522401,26.6200008392334
1366.538026,24.0100002288818
1366.553651,24.1100006103516
1366.569276,26.5599994659424
1366.584901,30.8700008392334
1366.600526,36.4199981689453
1366.616151,42.4900016784668
1366.631776,48.4900016784668
1366.647401,54.2900009155273
1366.663026,60.2999992370605
1366.678651,67.0899963378906
1366.694276,74.8600006103516
1366.709901,83.2900009155273
1366.725526,91.6999969482422
1366.741151,99.4599990844727
1366.756776,106.160003662109
1366.772401,111.440002441406
1366.788026,114.790000915527
1366.803651,115.690002441406
1366.819276,114.040000915527
1366.834901,110.349998474121
1366.850526,105.48999786377
1366.866151,100.389999389648
1366.881776,95.6500015258789
1366.897401,91.4599990844727
1366.913026,87.6699981689453
1366.928651,83.8300018310547
1366.944276,79.379997253418
1366.959901,73.9100036621094
1366.975526,67.3199996948242
1366.991151,59.6199989318848
1367.006776,50.6300010681152
1367.022401,40.1199989318848
1367.038026,28.2700004577637
1367.053651,16.0
1367.069276,4.67999982833862
1367.084901,-4.5
1367.100526,-11.1000003814697
1367.116151,-15.2600002288818
1367.131776,-17.1599998474121
1367.147401,-16.9699993133545
1367.163026,-15.0500001907349
1367.178651,-12.0699996948242
1367.194276,-8.75
1367.209901,-5.53999996185303
1367.225526,-2.44000005722046
1367.241151,0.769999980926514
1367.256776,4.28000020980835
1367.272401,7.84000015258789
1367.288026,10.8800001144409
1367.303651,12.8199996948242
1367.319276,13.4399995803833
1367.334901,12.8500003814697
1367.350526,11.289999961853
1367.366151,8.78999996185303
1367.381776,5.21999979019165
1367.397401,0.589999973773956
1367.413026,-4.55000019073486
1367.428651,-9.4399995803833
1367.444276,-13.4099998474121
1367.459901,-16.3400001525879
1367.475526,-18.5200004577637
1367.491151,-20.6000003814697
1367.506776,-23.3799991607666
1367.522401,-27.4099998474121
1367.538026,-32.7999992370605
1367.553651,-39.4500007629395
1367.569276,-47.4900016784668
1367.584901,-57.0999984741211
1367.600526,-68.0100021362305
1367.616151,-79.120002746582
1367.631776,-88.6999969482422
1367.647401,-95.3000030517578
1367.663026,-98.5
1367.678651,-98.7300033569336
1367.694276,-96.5599975585938
1367.709901,-92.3600006103516
1367.725526,-86.6100006103516
1367.741151,-79.9400024414063
1367.756776,-73.0199966430664
1367.772401,-66.2399978637695
1367.788026,-59.5699996948242
1367.803651,-52.7599983215332
1367.819276,-45.6599998474121
1367.834901,-38.5800018310547
1367.850526,-32.1800003051758
1367.866151,-27.1200008392334
1367.881776,-23.6499996185303
1367.897401,-21.5699996948242
1367.913026,-20.5200004577637
1367.928651,-20.3700008392334
1367.944276,-21.2099990844727
1367.959901,-23.0200004577637
1367.975526,-25.2999992370605
1367.991151,-27.2700004577637
1368.006776,-28.3199996948242
1368.022401,-28.3400001525879
1368.038026,-27.6800003051758
1368.053651,-27.0200004577637
1368.069276,-27.1000003814697
1368.084901,-28.4500007629395
1368.100526,-31.1200008392334
1368.116151,-34.9599990844727
1368.131776,-39.939998626709
1368.147401,-46.1100006103516
1368.163026,-53.2299995422363
1368.178651,-60.3899993896484
1368.194276,-66.1500015258789
1368.209901,-69.3199996948242
1368.225526,-69.6600036621094
1368.241151,-67.7399978637695
1368.256776,-64.1500015258789
1368.272401,-59.1500015258789
1368.288026,-52.7599983215332
1368.303651,-45.1300010681152
1368.319276,-36.6300010681152
1368.334901,-27.7900009155273
1368.350526,-19.0300006866455
1368.366151,-10.710000038147
1368.381776,-3.1800000667572
1368.397401,3.13000011444092
1368.413026,7.86999988555908
1368.428651,10.9700002670288
1368.444276,12.7299995422363
1368.459901,13.6800003051758
1368.475526,14.3400001525879
1368.491151,14.8699998855591
1368.506776,15.0200004577637
1368.522401,14.4099998474121
1368.538026,12.8199996948242
1368.553651,10.2399997711182
1368.569276,6.59999990463257
1368.584901,1.88999998569489
1368.600526,-3.59999990463257
1368.616151,-9.17000007629395
1368.631776,-13.7299995422363
1368.647401,-16.6200008392334
1368.663026,-18.1000003814697
1368.678651,-18.9899997711182
1368.694276,-19.7999992370605
1368.709901,-20.4699993133545
1368.725526,-20.6800003051758
1368.741151,-20.2800006866455
1368.756776,-19.3400001525879
1368.772401,-18.1499996185303
1368.788026,-17.0300006866455
1368.803651,-16.2000007629395
1368.819276,-15.6700000762939
1368.834901,-15.1800003051758
1368.850526,-14.3100004196167
1368.866151,-12.6700000762939
1368.881776,-10.1400003433228
1368.897401,-6.67000007629395
1368.913026,-2.09999990463257
1368.928651,3.65000009536743
1368.944276,10.2299995422363
1368.959901,16.8299999237061
1368.975526,22.4699993133545
1368.991151,26.5300006866455
1369.006776,29.0
1369.022401,30.3400001525879
1369.038026,31.1599998474121
1369.053651,31.8299999237061
1369.069276,32.2999992370605
1369.084901,32.3199996948242
1369.100526,31.6599998474121
1369.116151,30.2000007629395
1369.131776,27.8099994659424
1369.147401,24.4099998474121
1369.163026,20.2000007629395
1369.178651,15.7799997329712
1369.194276,11.9899997711182
1369.209901,9.30000019073486
1369.225526,7.40000009536743
1369.241151,5.59000015258789
1369.256776,3.52999997138977
1369.272401,1.4099999666214
1369.288026,-0.340000003576279
1369.303651,-1.47000002861023
1369.319276,-2.00999999046326
1369.334901,-2.08999991416931
1369.350526,-1.75
1369.366151,-0.990000009536743
1369.381776,0.189999997615814
1369.397401,1.87999999523163
1369.413026,4.23999977111816
1369.428651,7.46000003814697
1369.444276,11.5100002288818
1369.459901,16.2199993133545
1369.475526,21.4799995422363
1369.491151,27.1399993896484
1369.506776,32.8499984741211
1369.522401,37.9900016784668
1369.538026,41.8499984741211
1369.553651,44.0
1369.569276,44.5299987792969
1369.584901,43.9599990844727
1369.600526,42.9300003051758
1369.616151,41.8400001525879
1369.631776,40.7099990844727
1369.647401,39.3300018310547
1369.663026,37.5
1369.678651,35.0699996948242
1369.694276,31.9200000762939
1369.709901,27.9799995422363
1369.725526,23.4200000762939
1369.741151,18.7299995422363
1369.756776,14.5900001525879
1369.772401,11.3999996185303
1369.788026,8.93000030517578
1369.803651,6.61999988555908
1369.819276,4.19000005722046
1369.834901,1.75999999046326
1369.850526,-0.349999994039536
1369.866151,-1.99000000953674
1369.881776,-3.08999991416931
1369.897401,-3.47000002861023
1369.913026,-2.59999990463257
1369.928651,0.0500000007450581
1369.944276,4.59999990463257
1369.959901,10.7799997329712
1369.975526,18.3500003814697
1369.991151,27.1599998474121
1370.006776,36.8400001525879
1370.022401,46.6399993896484
1370.038026,55.6500015258789
1370.053651,63.2000007629395
1370.069276,69.2399978637695
1370.084901,73.9700012207031
1370.100526,77.3300018310547
1370.116151,79.0599975585938
1370.131776,79.0699996948242
1370.147401,77.6800003051758
1370.163026,75.4800033569336
1370.178651,73.0199966430664
1370.194276,70.5999984741211
1370.209901,68.2399978637695
1370.225526,65.8300018310547
1370.241151,63.2900009155273
1370.256776,60.6300010681152
1370.272401,57.9199981689453
1370.288026,55.189998626709
1370.303651,52.4000015258789
1370.319276,49.3300018310547
1370.334901,45.6500015258789
1370.350526,41.0699996948242
1370.366151,35.4599990844727
1370.381776,29.0499992370605
1370.397401,22.4500007629395
1370.413026,16.5300006866455
1370.428651,11.9700002670288
1370.444276,8.97000026702881
1370.459901,7.28999996185303
1370.475526,6.6100001335144
1370.491151,6.98000001907349
1370.506776,8.78999996185303
1370.522401,12.2600002288818
1370.538026,16.8600006103516
1370.553651,21.4799995422363
1370.569276,25.1299991607666
1370.584901,27.3999996185303
1370.600526,28.4200000762939
1370.616151,28.3899993896484
1370.631776,27.1599998474121
1370.647401,24.4599990844727
1370.663026,20.2600002288818
1370.678651,14.9399995803833
1370.694276,9.10999965667725
1370.709901,3.3199999332428
1370.725526,-2.10999989509583
1370.741151,-7.17999982833862
1370.756776,-12.0900001525879
1370.772401,-17.1299991607666
1370.788026,-22.5300006866455
1370.803651,-28.3199996948242
1370.819276,-34.2999992370605
1370.834901,-40.189998626709
1370.850526,-45.7400016784668
1370.866151,-50.8400001525879
1370.881776,-55.5400009155273
1370.897401,-60.0999984741211
1370.913026,-64.9199981689453
1370.928651,-70.3499984741211
1370.944276,-76.3899993896484
1370.959901,-82.4400024414063
1370.975526,-87.4700012207031
1370.991151,-90.5899963378906
1371.006776,-91.5199966430664
1371.022401,-90.5500030517578
1371.038026,-88.0400009155273
1371.053651,-84.0599975585938
1371.069276,-78.4400024414063
1371.084901,-71.3399963378906
1371.100526,-63.6500015258789
1371.116151,-56.689998626709
1371.131776,-51.3600006103516
1371.147401,-47.7999992370605
1371.163026,-45.5499992370605
1371.178651,-44.1500015258789
1371.194276,-43.5400009155273
1371.209901,-43.9799995422363
1371.225526,-45.560001373291
1371.241151,-48.0400009155273
1371.256776,-50.9000015258789
1371.272401,-53.6500015258789
1371.288026,-56.0099983215332
1371.303651,-57.9599990844727
1371.319276,-59.7200012207031
1371.334901,-61.5499992370605
1371.350526,-63.6699981689453
1371.366151,-66.120002746582
1371.381776,-68.7900009155273
1371.397401,-71.5
1371.413026,-74.0500030517578
1371.428651,-76.3399963378906
1371.444276,-78.3600006103516
1371.459901,-80.2600021362305
1371.475526,-82.370002746582
1371.491151,-84.9599990844727
1371.506776,-88.0699996948242
1371.522401,-90.9899978637695
1371.538026,-92.5199966430664
1371.553651,-91.5999984741211
1371.569276,-87.9599990844727
1371.584901,-82.1600036621094
1371.600526,-74.9599990844727
1371.616151,-66.8300018310547
1371.631776,-57.8600006103516
1371.647401,-48.3199996948242
1371.663026,-39.189998626709
1371.678651,-31.7399997711182
1371.694276,-26.6800003051758
1371.709901,-23.8099994659424
1371.725526,-22.3099994659424
1371.741151,-21.3899993896484
1371.756776,-20.7199993133545
1371.772401,-20.3999996185303
1371.788026,-20.5900001525879
1371.803651,-21.2800006866455
1371.819276,-22.2299995422363
1371.834901,-23.1299991607666
1371.850526,-23.7900009155273
1371.866151,-24.2600002288818
1371.881776,-24.8299999237061
1371.897401,-25.8899993896484
1371.913026,-27.7299995422363
1371.928651,-30.3999996185303
1371.944276,-33.7000007629395
1371.959901,-37.2799987792969
1371.975526,-40.7799987792969
1371.991151,-43.9500007629395
1372.006776,-46.7000007629395
1372.022401,-49.0999984741211
1372.038026,-51.2799987792969
1372.053651,-53.3499984741211
1372.069276,-55.2999992370605
1372.084901,-56.6800003051758
1372.100526,-56.6500015258789
1372.116151,-54.4099998474121
1372.131776,-49.8400001525879
1372.147401,-43.4900016784668
1372.163026,-36.1599998474121
1372.178651,-28.3799991607666
1372.194276,-20.3700008392334
1372.209901,-12.460000038147
1372.225526,-5.46000003814697
1372.241151,-0.330000013113022
1372.256776,2.49000000953674
1372.272401,3.38000011444092
1372.288026,3.16000008583069
1372.303651,2.54999995231628
1372.319276,1.82000005245209
1372.334901,0.829999983310699
1372.350526,-0.579999983310699
1372.366151,-2.42000007629395
1372.381776,-4.46000003814697
1372.397401,-6.40000009536743
1372.413026,-8.03999996185303
1372.428651,-9.32999992370605
1372.444276,-10.3599996566772
1372.459901,-11.4399995803833
1372.475526,-13.0100002288818
1372.491151,-15.4700002670288
1372.506776,-18.8999996185303
1372.522401,-23.1599998474121
1372.538026,-28.2099990844727
1372.553651,-34.0400009155273
1372.569276,-40.4300003051758
1372.584901,-46.8300018310547
1372.600526,-52.3400001525879
1372.616151,-56.0400009155273
1372.631776,-57.189998626709
