Time(s),Value(%)
1245.0017972,-27.8700008392334
1245.0174222,-27.6700000762939
1245.0330472,-28.8500003814697
1245.0486722,-32.0400009155273
1245.0642972,-36.8699989318848
1245.0799222,-42.2099990844727
1245.0955472,-46.689998626709
1245.1111722,-49.2599983215332
1245.1267972,-49.4799995422363
1245.1424222,-47.5499992370605
1245.1580472,-44.2000007629395
1245.1736722,-40.4799995422363
1245.1892972,-37.2000007629395
1245.2049222,-34.4500007629395
1245.2205472,-31.9099998474121
1245.2361722,-29.6200008392334
1245.2517972,-28.1399993896484
1245.2674222,-27.8799991607666
1245.2830472,-28.4699993133545
1245.2986722,-28.9599990844727
1245.3142972,-28.3899993896484
1245.3299222,-26.2199993133545
1245.3455472,-22.0300006866455
1245.3611722,-15.0600004196167
1245.3767972,-4.55999994277954
1245.3924222,9.39000034332275
1245.4080472,25.3700008392334
1245.4236722,41.060001373291
1245.4392972,54.4900016784668
1245.4549222,64.8099975585938
1245.4705472,72.3600006103516
1245.4861722,78.0500030517578
1245.5017972,82.8600006103516
1245.5174222,87.4000015258789
1245.5330472,91.5699996948242
1245.5486722,94.3099975585938
1245.5642972,93.9599990844727
1245.5799222,89.2399978637695
1245.5955472,79.8600006103516
1245.6111722,66.4599990844727
1245.6267972,50.2799987792969
1245.6424222,33.1599998474121
1245.6580472,17.0799999237061
1245.6736722,3.60999989509583
1245.6892972,-6.48999977111816
1245.7049222,-13.4300003051758
1245.7205472,-18.2299995422363
1245.7361722,-22.1399993896484
1245.7517972,-25.9799995422363
1245.7674222,-29.8999996185303
1245.7830472,-33.7799987792969
1245.7986722,-37.4599990844727
1245.8142972,-40.689998626709
1245.8299222,-43.0
1245.8455472,-44.1500015258789
1245.8611722,-44.4700012207031
1245.8767972,-44.7200012207031
1245.8924222,-45.4500007629395
1245.9080472,-46.7099990844727
1245.9236722,-48.1399993896484
1245.9392972,-49.1599998474121
1245.9549222,-49.1399993896484
1245.9705472,-47.8699989318848
1245.9861722,-45.7200012207031
1246.0017972,-43.1599998474121
1246.0174222,-40.3600006103516
1246.0330472,-37.2400016784668
1246.0486722,-33.7099990844727
1246.0642972,-29.8799991607666
1246.0799222,-26.0599994659424
1246.0955472,-22.3500003814697
1246.1111722,-18.3099994659424
1246.1267972,-12.7600002288818
1246.1424222,-4.1399998664856
1246.1580472,8.35000038146973
1246.1736722,23.7900009155273
1246.1892972,39.6800003051758
1246.2049222,53.3300018310547
1246.2205472,63.25
1246.2361722,69.8099975585938
1246.2517972,74.6500015258789
1246.2674222,79.2799987792969
1246.2830472,83.9300003051758
1246.2986722,87.5400009155273
1246.3142972,88.7200012207031
1246.3299222,86.7399978637695
1246.3455472,82.0199966430664
1246.3611722,75.7300033569336
1246.3767972,69.1399993896484
1246.3924222,62.7400016784668
1246.4080472,56.1800003051758
1246.4236722,48.7299995422363
1246.4392972,39.8899993896484
1246.4549222,29.7999992370605
1246.4705472,19.2000007629395
1246.4861722,9.02000045776367
1246.5017972,0.0599999986588955
1246.5174222,-7.28999996185303
1246.5330472,-13.1999998092651
1246.5486722,-18.2700004577637
1246.5642972,-23.1900005340576
1246.5799222,-28.2600002288818
1246.5955472,-33.3600006103516
1246.6111722,-38.2400016784668
1246.6267972,-42.7400016784668
1246.6424222,-46.560001373291
1246.6580472,-49.2400016784668
1246.6736722,-50.5499992370605
1246.6892972,-50.7000007629395
1246.7049222,-50.2400016784668
1246.7205472,-49.689998626709
1246.7361722,-49.2799987792969
1246.7517972,-48.7599983215332
1246.7674222,-47.5499992370605
1246.7830472,-45.25
1246.7986722,-42.25
1246.8142972,-39.6599998474121
1246.8299222,-38.5699996948242
1246.8455472,-39.1699981689453
1246.8611722,-40.7200012207031
1246.8767972,-41.939998626709
1246.8924222,-41.2299995422363
1246.9080472,-37.0200004577637
1246.9236722,-28.8500003814697
1246.9392972,-18.0
1246.9549222,-6.71999979019165
1246.9705472,3.0
1246.9861722,10.1800003051758
1247.0017972,14.9200000762939
1247.0174222,18.5
1247.0330472,22.6399993896484
1247.0486722,28.3799991607666
1247.0642972,35.4500007629395
1247.0799222,42.3899993896484
1247.0955472,47.4300003051758
1247.1111722,49.3400001525879
1247.1267972,47.7999992370605
1247.1424222,43.0
1247.1580472,35.2799987792969
1247.1736722,25.2000007629395
1247.1892972,13.8699998855591
1247.2049222,3.09999990463257
1247.2205472,-5.28000020980835
1247.2361722,-10.5900001525879
1247.2517972,-13.6400003433228
1247.2674222,-15.8999996185303
1247.2830472,-18.3799991607666
1247.2986722,-21.2999992370605
1247.3142972,-24.5100002288818
1247.3299222,-27.8799991607666
1247.3455472,-31.1900005340576
1247.3611722,-34.1399993896484
1247.3767972,-36.5499992370605
1247.3924222,-38.6500015258789
1247.4080472,-40.7700004577637
1247.4236722,-43.0400009155273
1247.4392972,-45.4199981689453
1247.4549222,-47.7599983215332
1247.4705472,-49.6599998474121
1247.4861722,-50.4900016784668
1247.5017972,-49.689998626709
1247.5174222,-47.3499984741211
1247.5330472,-44.3499984741211
1247.5486722,-41.6300010681152
1247.5642972,-39.4599990844727
1247.5799222,-37.3800010681152
1247.5955472,-34.9199981689453
1247.6111722,-31.9699993133545
1247.6267972,-28.9599990844727
1247.6424222,-26.6200008392334
1247.6580472,-25.2800006866455
1247.6736722,-24.1000003814697
1247.6892972,-21.25
1247.7049222,-15.0799999237061
1247.7205472,-5.34000015258789
1247.7361722,6.59999990463257
1247.7517972,18.6000003814697
1247.7674222,28.7299995422363
1247.7830472,35.9500007629395
1247.7986722,40.2599983215332
1247.8142972,42.5200004577637
1247.8299222,43.939998626709
1247.8455472,45.25
1247.8611722,46.3800010681152
1247.8767972,46.9000015258789
1247.8924222,46.5099983215332
1247.9080472,44.9599990844727
1247.9236722,41.9000015258789
1247.9392972,37.060001373291
1247.9549222,30.5799999237061
1247.9705472,23.1100006103516
1247.9861722,15.7399997711182
1248.0017972,9.73999977111816
1248.0174222,5.96000003814697
1248.0330472,4.17999982833862
1248.0486722,3.21000003814697
1248.0642972,1.75999999046326
1248.0799222,-0.740000009536743
1248.0955472,-4.09999990463257
1248.1111722,-7.55000019073486
1248.1267972,-10.1199998855591
1248.1424222,-11.2299995422363
1248.1580472,-11.0900001525879
1248.1736722,-10.5600004196167
1248.1892972,-10.4799995422363
1248.2049222,-11.1899995803833
1248.2205472,-12.5799999237061
1248.2361722,-14.3800001144409
1248.2517972,-16.1599998474121
1248.2674222,-17.3700008392334
1248.2830472,-17.5400009155273
1248.2986722,-16.4300003051758
1248.3142972,-14.0600004196167
1248.3299222,-10.7799997329712
1248.3455472,-7.44999980926514
1248.3611722,-4.98999977111816
1248.3767972,-3.82999992370605
1248.3924222,-3.78999996185303
1248.4080472,-4.30000019073486
1248.4236722,-4.30999994277954
1248.4392972,-2.30999994277954
1248.4549222,3.14000010490417
1248.4705472,12.4300003051758
1248.4861722,24.0400009155273
1248.5017972,35.2400016784668
1248.5174222,43.5900001525879
1248.5330472,48.1100006103516
1248.5486722,49.6199989318848
1248.5642972,49.9599990844727
1248.5799222,50.7900009155273
1248.5955472,52.5400009155273
1248.6111722,54.4000015258789
1248.6267972,55.2299995422363
1248.6424222,54.4799995422363
1248.6580472,52.3300018310547
1248.6736722,49.189998626709
1248.6892972,45.1599998474121
1248.7049222,40.0099983215332
1248.7205472,33.5299987792969
1248.7361722,26.1700000762939
1248.7517972,18.9200000762939
1248.7674222,12.7299995422363
1248.7830472,8.10999965667725
1248.7986722,5.09999990463257
1248.8142972,3.36999988555908
1248.8299222,2.25
1248.8455472,0.970000028610229
1248.8611722,-0.819999992847443
1248.8767972,-2.83999991416931
1248.8924222,-4.44999980926514
1248.9080472,-5.34999990463257
1248.9236722,-5.6100001335144
1248.9392972,-5.42000007629395
1248.9549222,-5.03999996185303
1248.9705472,-4.80999994277954
1248.9861722,-5.01000022888184
1249.0017972,-5.65000009536743
1249.0174222,-6.38000011444092
1249.0330472,-6.73000001907349
1249.0486722,-6.65000009536743
1249.0642972,-6.6399998664856
1249.0799222,-7.5
1249.0955472,-9.82999992370605
1249.1111722,-13.7399997711182
1249.1267972,-18.6399993896484
1249.1424222,-23.5400009155273
1249.1580472,-27.3899993896484
1249.1736722,-29.3999996185303
1249.1892972,-28.8099994659424
1249.2049222,-24.9599990844727
1249.2205472,-17.7900009155273
1249.2361722,-8.21000003814697
1249.2517972,2.05999994277954
1249.2674222,11.1999998092651
1249.2830472,18.0300006866455
1249.2986722,22.4200000762939
1249.3142972,25.0599994659424
1249.3299222,26.7600002288818
1249.3455472,27.8700008392334
1249.3611722,28.3899993896484
1249.3767972,28.5499992370605
1249.3924222,28.9300003051758
1249.4080472,29.75
1249.4236722,30.3299999237061
1249.4392972,29.1900005340576
1249.4549222,24.9099998474121
1249.4705472,17.2199993133545
1249.4861722,7.44000005722046
1249.5017972,-2.20000004768372
1249.5174222,-9.89000034332275
1249.5330472,-15.1499996185303
1249.5486722,-18.7000007629395
1249.5642972,-21.4300003051758
1249.5799222,-23.7000007629395
1249.5955472,-25.4400005340576
1249.6111722,-26.5300006866455
1249.6267972,-26.8299999237061
1249.6424222,-26.2900009155273
1249.6580472,-25.2000007629395
1249.6736722,-24.2900009155273
1249.6892972,-24.4799995422363
1249.7049222,-26.0599994659424
1249.7205472,-28.2299995422363
1249.7361722,-29.75
1249.7517972,-30.1599998474121
1249.7674222,-30.1499996185303
1249.7830472,-30.7600002288818
1249.7986722,-32.3600006103516
1249.8142972,-34.3400001525879
1249.8299222,-35.5699996948242
1249.8455472,-35.1199989318848
1249.8611722,-33.0099983215332
1249.8767972,-30.0100002288818
1249.8924222,-26.9899997711182
1249.9080472,-24.5300006866455
1249.9236722,-22.7000007629395
1249.9392972,-20.75
1249.9549222,-17.1700000762939
1249.9705472,-10.710000038147
1249.9861722,-1.32000005245209
1250.0017972,9.6899995803833
1250.0174222,20.2399997711182
1250.0330472,28.5200004577637
1250.0486722,33.8300018310547
1250.0642972,37.0099983215332
1250.0799222,39.6699981689453
1250.0955472,42.9300003051758
1250.1111722,46.4700012207031
1250.1267972,48.7900009155273
1250.1424222,48.5200004577637
1250.1580472,45.4199981689453
1250.1736722,40.2099990844727
1250.1892972,33.6800003051758
1250.2049222,26.1900005340576
1250.2205472,17.6399993896484
1250.2361722,7.88000011444092
1250.2517972,-2.71000003814697
1250.2674222,-13.0
1250.2830472,-21.4599990844727
1250.2986722,-26.9599990844727
1250.3142972,-29.3799991607666
1250.3299222,-29.7999992370605
1250.3455472,-29.8999996185303
1250.3611722,-30.8500003814697
1250.3767972,-32.7599983215332
1250.3924222,-35.0499992370605
1250.4080472,-36.9000015258789
1250.4236722,-37.8499984741211
1250.4392972,-38.0400009155273
1250.4549222,-37.75
1250.4705472,-36.8300018310547
1250.4861722,-34.8400001525879
1250.5017972,-31.8400001525879
1250.5174222,-28.7399997711182
1250.5330472,-26.7600002288818
1250.5486722,-26.5499992370605
1250.5642972,-27.7700004577637
1250.5799222,-29.4699993133545
1250.5955472,-30.6599998474121
1250.6111722,-30.6299991607666
1250.6267972,-29.0400009155273
1250.6424222,-25.9599990844727
1250.6580472,-21.6599998474121
1250.6736722,-16.4400005340576
1250.6892972,-10.6300001144409
1250.7049222,-4.63000011444092
1250.7205472,1.28999996185303
1250.7361722,7.40000009536743
1250.7517972,14.4399995803833
1250.7674222,23.1200008392334
1250.7830472,33.5
1250.7986722,44.6699981689453
1250.8142972,55.0299987792969
1250.8299222,62.9700012207031
1250.8455472,67.6100006103516
1250.8611722,69.0999984741211
1250.8767972,68.2900009155273
1250.8924222,66.1800003051758
1250.9080472,63.4599990844727
1250.9236722,60.2400016784668
1250.9392972,56.1199989318848
1250.9549222,50.6399993896484
1250.9705472,43.560001373291
1250.9861722,34.7200012207031
1251.0017972,24.1200008392334
1251.0174222,12.4300003051758
1251.0330472,1.07000005245209
1251.0486722,-8.55000019073486
1251.0642972,-15.8199996948242
1251.0799222,-20.9699993133545
1251.0955472,-24.5900001525879
1251.1111722,-27.1599998474121
1251.1267972,-29.1700000762939
1251.1424222,-31.2199993133545
1251.1580472,-33.8600006103516
1251.1736722,-37.1199989318848
1251.1892972,-40.310001373291
1251.2049222,-42.3699989318848
1251.2205472,-42.6699981689453
1251.2361722,-41.6199989318848
1251.2517972,-40.1699981689453
1251.2674222,-38.8699989318848
1251.2830472,-37.6800003051758
1251.2986722,-36.560001373291
1251.3142972,-35.6699981689453
1251.3299222,-35.0699996948242
1251.3455472,-34.4599990844727
1251.3611722,-33.2200012207031
1251.3767972,-30.7099990844727
1251.3924222,-26.8799991607666
1251.4080472,-22.4200000762939
1251.4236722,-18.0699996948242
1251.4392972,-13.9099998474121
1251.4549222,-9.5
1251.4705472,-4.1399998664856
1251.4861722,2.82999992370605
1251.5017972,11.8000001907349
1251.5174222,22.4400005340576
1251.5330472,33.6100006103516
1251.5486722,43.7299995422363
1251.5642972,51.5099983215332
1251.5799222,56.2900009155273
1251.5955472,58.1800003051758
1251.6111722,58.0499992370605
1251.6267972,57.2900009155273
1251.6424222,57.060001373291
1251.6580472,57.6699981689453
1251.6736722,58.5499992370605
1251.6892972,58.5099983215332
1251.7049222,56.2099990844727
1251.7205472,50.7000007629395
1251.7361722,41.7900009155273
1251.7517972,30.3299999237061
1251.7674222,18.1800003051758
1251.7830472,7.57000017166138
1251.7986722,0.0099999997764825
1251.8142972,-4.44999980926514
1251.8299222,-7.01000022888184
1251.8455472,-9.39999961853027
1251.8611722,-13.0100002288818
1251.8767972,-17.9599990844727
1251.8924222,-23.0400009155273
1251.9080472,-26.7600002288818
1251.9236722,-28.5
1251.9392972,-28.6399993896484
1251.9549222,-28.0699996948242
1251.9705472,-27.6299991607666
1251.9861722,-27.8299999237061
1252.0017972,-28.7199993133545
1252.0174222,-29.8899993896484
1252.0330472,-30.5300006866455
1252.0486722,-29.9599990844727
1252.0642972,-28.2900009155273
1252.0799222,-26.4200000762939
1252.0955472,-25.3199996948242
1252.1111722,-25.4200000762939
1252.1267972,-26.3700008392334
1252.1424222,-27.25
1252.1580472,-27.2199993133545
1252.1736722,-26.1100006103516
1252.1892972,-24.2900009155273
1252.2049222,-21.7000007629395
1252.2205472,-17.2399997711182
1252.2361722,-9.27000045776367
1252.2517972,2.78999996185303
1252.2674222,17.6499996185303
1252.2830472,32.5900001525879
1252.2986722,44.8899993896484
1252.3142972,52.939998626709
1252.3299222,56.6399993896484
1252.3455472,57.0200004577637
1252.3611722,55.6300010681152
1252.3767972,53.9000015258789
1252.3924222,52.6199989318848
1252.4080472,51.8699989318848
1252.4236722,51.3800010681152
1252.4392972,51.0200004577637
1252.4549222,50.4900016784668
1252.4705472,48.7700004577637
1252.4861722,44.4599990844727
1252.5017972,36.7900009155273
1252.5174222,26.3299999237061
1252.5330472,14.4799995422363
1252.5486722,2.59999990463257
1252.5642972,-8.23999977111816
1252.5799222,-17.1800003051758
1252.5955472,-23.7299995422363
1252.6111722,-27.8299999237061
1252.6267972,-29.9099998474121
1252.6424222,-30.9099998474121
1252.6580472,-32.0900001525879
1252.6736722,-34.4099998474121
1252.6892972,-38.0499992370605
1252.7049222,-42.2000007629395
1252.7205472,-45.4500007629395
1252.7361722,-46.5
1252.7517972,-44.939998626709
1252.7674222,-41.6100006103516
1252.7830472,-38.0
1252.7986722,-35.5099983215332
1252.8142972,-34.810001373291
1252.8299222,-35.75
1252.8455472,-37.4700012207031
1252.8611722,-38.5999984741211
1252.8767972,-37.9900016784668
1252.8924222,-35.4599990844727
1252.9080472,-31.7700004577637
1252.9236722,-27.8199996948242
1252.9392972,-23.8899993896484
1252.9549222,-19.4200000762939
1252.9705472,-13.1499996185303
1252.9861722,-3.97000002861023
1253.0017972,8.14000034332275
1253.0174222,21.75
1253.0330472,34.7799987792969
1253.0486722,45.7799987792969
1253.0642972,54.310001373291
1253.0799222,60.8899993896484
1253.0955472,66.4599990844727
1253.1111722,71.7200012207031
1253.1267972,76.5500030517578
1253.1424222,79.9700012207031
1253.1580472,80.8000030517578
1253.1736722,78.4499969482422
1253.1892972,73.0599975585938
1253.2049222,64.9000015258789
1253.2205472,53.8699989318848
1253.2361722,39.9900016784668
1253.2517972,24.3099994659424
1253.2674222,8.94999980926514
1253.2830472,-3.99000000953674
1253.2986722,-13.6099996566772
1253.3142972,-20.4500007629395
1253.3299222,-25.7099990844727
1253.3455472,-30.3299999237061
1253.3611722,-34.5900001525879
1253.3767972,-38.310001373291
1253.3924222,-41.3899993896484
1253.4080472,-44.060001373291
1253.4236722,-46.6399993896484
1253.4392972,-49.1800003051758
1253.4549222,-51.3300018310547
1253.4705472,-52.5900001525879
1253.4861722,-52.6300010681152
1253.5017972,-51.560001373291
1253.5174222,-49.8699989318848
1253.5330472,-48.310001373291
1253.5486722,-47.4500007629395
1253.5642972,-47.1800003051758
1253.5799222,-46.7099990844727
1253.5955472,-45.189998626709
1253.6111722,-42.3400001525879
1253.6267972,-38.8199996948242
1253.6424222,-36.060001373291
1253.6580472,-35.5499992370605
1253.6736722,-37.5999984741211
1253.6892972,-41.0299987792969
1253.7049222,-43.7799987792969
1253.7205472,-43.8899993896484
1253.7361722,-40.1800003051758
1253.7517972,-32.5
1253.7674222,-21.6200008392334
1253.7830472,-8.82999992370605
1253.7986722,4.44999980926514
1253.8142972,17.0300006866455
1253.8299222,28.0799999237061
1253.8455472,37.5
1253.8611722,45.7400016784668
1253.8767972,53.2099990844727
1253.8924222,59.7599983215332
1253.9080472,64.8199996948242
1253.9236722,67.7799987792969
1253.9392972,68.0199966430664
1253.9549222,64.8600006103516
1253.9705472,57.7799987792969
1253.9861722,46.939998626709
1254.0017972,33.6199989318848
1254.0174222,19.8600006103516
1254.0330472,7.44999980926514
1254.0486722,-2.69000005722046
1254.0642972,-10.4300003051758
1254.0799222,-16.1499996185303
1254.0955472,-20.6900005340576
1254.1111722,-24.8999996185303
1254.1267972,-28.9899997711182
1254.1424222,-32.3800010681152
1254.1580472,-34.1699981689453
1254.1736722,-33.7599983215332
1254.1892972,-31.1100006103516
1254.2049222,-26.9500007629395
1254.2205472,-22.4699993133545
1254.2361722,-18.7800006866455
1254.2517972,-16.6700000762939
1254.2674222,-16.6299991607666
1254.2830472,-18.4699993133545
1254.2986722,-20.9699993133545
1254.3142972,-22.2700004577637
1254.3299222,-21.0799999237061
1254.3455472,-17.3999996185303
1254.3611722,-12.3699998855591
1254.3767972,-7.51000022888184
1254.3924222,-3.90000009536743
1254.4080472,-1.87000000476837
1254.4236722,-1.12999999523163
1254.4392972,-1.24000000953674
1254.4549222,-1.80999994277954
1254.4705472,-1.97000002861023
1254.4861722,0.300000011920929
1254.5017972,7.76000022888184
1254.5174222,21.9599990844727
1254.5330472,41.4900016784668
1254.5486722,62.1699981689453
1254.5642972,79.3000030517578
1254.5799222,90.1999969482422
1254.5955472,95.1500015258789
1254.6111722,96.5500030517578
1254.6267972,96.9000015258789
1254.6424222,97.2900009155273
1254.6580472,97.1800003051758
1254.6736722,95.379997253418
1254.6892972,91.0
1254.7049222,83.9100036621094
1254.7205472,74.5100021362305
1254.7361722,63.4300003051758
1254.7517972,51.4700012207031
1254.7674222,39.7700004577637
1254.7830472,29.3299999237061
1254.7986722,20.4799995422363
1254.8142972,12.8599996566772
1254.8299222,5.86999988555908
1254.8455472,-0.800000011920929
1254.8611722,-7.15000009536743
1254.8767972,-12.9300003051758
1254.8924222,-17.7900009155273
1254.9080472,-21.3199996948242
1254.9236722,-23.2700004577637
1254.9392972,-23.9899997711182
1254.9549222,-24.4200000762939
1254.9705472,-25.5300006866455
1254.9861722,-28.0499992370605
1255.0017972,-32.0900001525879
1255.0174222,-37.0800018310547
1255.0330472,-41.9599990844727
1255.0486722,-45.75
1255.0642972,-48.0200004577637
1255.0799222,-48.7099990844727
1255.0955472,-47.7099990844727
1255.1111722,-44.7999992370605
1255.1267972,-40.1300010681152
1255.1424222,-34.7299995422363
1255.1580472,-30.0799999237061
1255.1736722,-27.4200000762939
1255.1892972,-27.1000003814697
1255.2049222,-28.3500003814697
1255.2205472,-29.2299995422363
1255.2361722,-27.1000003814697
1255.2517972,-19.9200000762939
1255.2674222,-7.44999980926514
1255.2830472,8.47000026702881
1255.2986722,24.7700004577637
1255.3142972,38.3300018310547
1255.3299222,47.4300003051758
1255.3455472,52.3600006103516
1255.3611722,54.8199996948242
