Time(s),Value(%)
0.0241307,-3.72000002861023
0.0397557,-1.11000001430511
0.0553807,3.35999989509583
0.0710057,9.89000034332275
0.0866307,17.5900001525879
0.1022557,25.0
0.1178807,30.6299991607666
0.1335057,33.439998626709
0.1491307,33.25
0.1647557,30.8600006103516
0.1803807,27.4099998474121
0.1960057,23.6100006103516
0.2116307,19.2900009155273
0.2272557,13.9200000762939
0.2428807,7.38000011444092
0.2585057,0.439999997615814
0.2741307,-5.80999994277954
0.2897557,-10.7600002288818
0.3053807,-14.3400001525879
0.3210057,-16.7399997711182
0.3366307,-18.1000003814697
0.3522557,-18.4899997711182
0.3678807,-17.8899993896484
0.3835057,-16.2800006866455
0.3991307,-13.8000001907349
0.4147557,-10.960000038147
0.4303807,-8.46000003814697
0.4460057,-6.82000017166138
0.4616307,-6.17999982833862
0.4772557,-6.30000019073486
0.4928807,-6.80999994277954
0.5085057,-7.48999977111816
0.5241307,-8.28999996185303
0.5397557,-9.10999965667725
0.5553807,-9.57999992370605
0.5710057,-9.22999954223633
0.5866307,-7.96000003814697
0.6022557,-6.21000003814697
0.6178807,-4.44000005722046
0.6335057,-2.44000005722046
0.6491307,0.740000009536743
0.6647557,6.0
0.6803807,13.039999961853
0.6960057,20.3600006103516
0.7116307,26.1100006103516
0.7272557,28.9599990844727
0.7428807,28.6000003814697
0.7585057,25.7700004577637
0.7741307,21.7700004577637
0.7897557,17.75
0.8053807,14.25
0.8210057,11.1300001144409
0.8366307,7.92000007629395
0.8522557,4.42000007629395
0.8678807,1.05999994277954
0.8835057,-1.26999998092651
0.8991307,-1.98000001907349
0.9147557,-1.44000005722046
0.9303807,-0.839999973773956
0.9460057,-1.25
0.9616307,-2.85999989509583
0.9772557,-5.03000020980835
0.9928807,-6.96000003814697
1.0085057,-8.27000045776367
1.0241307,-9.07999992370605
1.0397557,-9.84000015258789
1.0553807,-10.8900003433228
1.0710057,-12.1499996185303
1.0866307,-12.9899997711182
1.1022557,-12.7200002670288
1.1178807,-11.1099996566772
1.1335057,-8.67000007629395
1.1491307,-6.34000015258789
1.1647557,-4.80000019073486
1.1803807,-4.0
1.1960057,-3.42000007629395
1.2116307,-2.64000010490417
1.2272557,-1.52999997138977
1.2428807,-0.0299999993294477
1.2585057,2.17000007629395
1.2741307,5.84000015258789
1.2897557,11.5200004577637
1.3053807,18.8400001525879
1.3210057,26.4799995422363
1.3366307,32.6800003051758
1.3522557,35.8199996948242
1.3678807,35.1699981689453
1.3835057,31.4400005340576
1.3991307,26.4300003051758
1.4147557,21.8700008392334
1.4303807,18.6200008392334
1.4460057,16.4500007629395
1.4616307,14.4700002670288
1.4772557,11.6800003051758
1.4928807,7.6100001335144
1.5085057,2.48000001907349
1.5241307,-2.88000011444092
1.5397557,-7.3899998664856
1.5553807,-10.3299999237061
1.5710057,-11.710000038147
1.5866307,-12.0500001907349
1.6022557,-11.8199996948242
1.6178807,-11.3800001144409
1.6335057,-10.9700002670288
1.6491307,-10.5500001907349
1.6647557,-9.73999977111816
1.6803807,-8.10999965667725
1.6960057,-5.94000005722046
1.7116307,-4.15999984741211
1.7272557,-3.58999991416931
1.7428807,-4.32000017166138
1.7585057,-5.71999979019165
1.7741307,-6.82000017166138
1.7897557,-6.8899998664856
1.8053807,-5.76999998092651
1.8210057,-3.86999988555908
1.8366307,-1.62999999523163
1.8522557,1.0
1.8678807,4.86999988555908
1.8835057,10.8999996185303
1.8991307,19.0200004577637
1.9147557,27.5900001525879
1.9303807,34.0099983215332
1.9460057,36.1500015258789
1.9616307,33.6800003051758
1.9772557,28.2000007629395
1.9928807,22.1900005340576
2.0085057,17.5499992370605
2.0241307,14.8000001907349
2.0397557,13.1400003433228
2.0553807,11.1700000762939
2.0710057,7.86999988555908
2.0866307,3.10999989509583
2.1022557,-2.44000005722046
2.1178807,-7.92999982833862
2.1335057,-12.539999961853
2.1491307,-15.75
2.1647557,-17.4899997711182
2.1803807,-18.0
2.1960057,-17.5
2.2116307,-16.0
2.2272557,-13.6800003051758
2.2428807,-11.0900001525879
2.2585057,-9.18000030517578
2.2741307,-8.89000034332275
2.2897557,-10.5900001525879
2.3053807,-13.6999998092651
2.3210057,-16.9099998474121
2.3366307,-18.8500003814697
2.3522557,-18.8799991607666
2.3678807,-17.1900005340576
2.3835057,-14.4499998092651
2.3991307,-11.2799997329712
2.4147557,-8.14999961853027
2.4303807,-5.55999994277954
2.4460057,-4.1399998664856
2.4616307,-3.98000001907349
2.4772557,-3.99000000953674
2.4928807,-2.26999998092651
2.5085057,2.57999992370605
2.5241307,10.289999961853
2.5397557,18.8099994659424
2.5553807,25.5100002288818
2.5710057,28.7099990844727
2.5866307,28.3700008392334
2.6022557,25.7800006866455
2.6178807,22.7000007629395
2.6335057,20.4300003051758
2.6491307,19.1100006103516
2.6647557,17.9400005340576
2.6803807,15.8800001144409
2.6960057,12.25
2.7116307,6.98000001907349
2.7272557,0.810000002384186
2.7428807,-4.94999980926514
2.7585057,-8.93000030517578
2.7741307,-10.3299999237061
2.7897557,-9.53999996185303
2.8053807,-7.86999988555908
2.8210057,-6.67999982833862
2.8366307,-6.55999994277954
2.8522557,-7.40999984741211
2.8678807,-8.81999969482422
2.8835057,-10.210000038147
2.8991307,-10.8599996566772
2.9147557,-10.3900003433228
2.9303807,-9.10999965667725
2.9460057,-7.86999988555908
2.9616307,-7.44000005722046
2.9772557,-8.31999969482422
2.9928807,-10.6700000762939
3.0085057,-14.210000038147
3.0241307,-18.0599994659424
3.0397557,-21.1900005340576
3.0553807,-22.75
3.0710057,-22.0699996948242
3.0866307,-18.5100002288818
3.1022557,-11.9099998474121
3.1178807,-2.92000007629395
3.1335057,6.8899998664856
3.1491307,15.4200000762939
3.1647557,20.8199996948242
3.1803807,22.4899997711182
3.1960057,21.0699996948242
3.2116307,17.8099994659424
3.2272557,13.9899997711182
3.2428807,10.539999961853
3.2585057,7.65999984741211
3.2741307,4.92999982833862
3.2897557,1.8400000333786
3.3053807,-1.76999998092651
3.3210057,-5.61999988555908
3.3366307,-9.02999973297119
3.3522557,-11.289999961853
3.3678807,-12.1099996566772
3.3835057,-11.9300003051758
3.3991307,-11.6099996566772
3.4147557,-11.789999961853
3.4303807,-12.5600004196167
3.4460057,-13.4200000762939
3.4616307,-13.7600002288818
3.4772557,-13.3699998855591
3.4928807,-12.6899995803833
3.5085057,-12.3100004196167
3.5241307,-12.5299997329712
3.5397557,-13.1199998855591
3.5553807,-13.539999961853
3.5710057,-13.3800001144409
3.5866307,-12.5299997329712
3.6022557,-11.3599996566772
3.6178807,-10.6400003433228
3.6335057,-11.039999961853
3.6491307,-12.6199998855591
3.6647557,-14.5600004196167
3.6803807,-15.7200002670288
3.6960057,-15.2399997711182
3.7116307,-12.7200002670288
3.7272557,-7.96000003814697
3.7428807,-0.850000023841858
3.7585057,8.21000003814697
3.7741307,17.9099998474121
3.7897557,26.2800006866455
3.8053807,31.4799995422363
3.8210057,32.5699996948242
3.8366307,29.9500007629395
3.8522557,25.2000007629395
3.8678807,20.4200000762939
3.8835057,17.1000003814697
3.8991307,15.3699998855591
3.9147557,13.9300003051758
3.9303807,11.1499996185303
3.9460057,6.34999990463257
3.9616307,0.340000003576279
3.9772557,-5.32000017166138
3.9928807,-9.35000038146973
4.0085057,-11.1400003433228
4.0241307,-10.7600002288818
4.0397557,-8.92000007629395
4.0553807,-6.51000022888184
4.0710057,-4.17999982833862
4.0866307,-2.40000009536743
4.1022557,-1.98000001907349
4.1178807,-3.8199999332428
4.1335057,-7.96999979019165
4.1491307,-13.0900001525879
4.1647557,-17.0900001525879
4.1803807,-18.4699993133545
4.1960057,-17.3099994659424
4.2116307,-14.9300003051758
4.2272557,-12.6499996185303
4.2428807,-10.8699998855591
4.2585057,-9.22000026702881
4.2741307,-7.26000022888184
4.2897557,-4.8899998664856
4.3053807,-2.1800000667572
4.3210057,0.970000028610229
4.3366307,4.92000007629395
4.3522557,10.0200004577637
4.3678807,16.1599998474121
4.3835057,22.5499992370605
4.3991307,28.0599994659424
4.4147557,31.8099994659424
4.4303807,33.2999992370605
4.4460057,32.4000015258789
4.4616307,29.4799995422363
4.4772557,25.3799991607666
4.4928807,20.9500007629395
4.5085057,16.4799995422363
4.5241307,11.8199996948242
4.5397557,6.78000020980835
4.5553807,1.45000004768372
4.5710057,-3.76999998092651
4.5866307,-8.18000030517578
4.6022557,-11.0100002288818
4.6178807,-11.8999996185303
4.6335057,-11.0600004196167
4.6491307,-9.09000015258789
4.6647557,-6.76000022888184
4.6803807,-4.84999990463257
4.6960057,-3.91000008583069
4.7116307,-3.92000007629395
4.7272557,-4.3899998664856
4.7428807,-4.75
4.7585057,-4.82999992370605
4.7741307,-4.78999996185303
4.7897557,-4.80999994277954
4.8053807,-5.03000020980835
4.8210057,-5.67000007629395
4.8366307,-6.84999990463257
4.8522557,-8.43000030517578
4.8678807,-10.0600004196167
4.8835057,-11.3599996566772
4.8991307,-12.0
4.9147557,-11.4499998092651
4.9303807,-8.9399995803833
4.9460057,-3.75
4.9616307,4.03000020980835
4.9772557,13.210000038147
4.9928807,21.7099990844727
5.0085057,27.6100006103516
5.0241307,29.8099994659424
5.0397557,28.3199996948242
5.0553807,24.0799999237061
5.0710057,18.75
5.0866307,14.1599998474121
5.1022557,11.5200004577637
5.1178807,10.6599998474121
5.1335057,10.2399997711182
5.1491307,8.78999996185303
5.1647557,5.84000015258789
5.1803807,1.89999997615814
5.1960057,-1.99000000953674
5.2116307,-4.96000003814697
5.2272557,-6.59000015258789
5.2428807,-7.1399998664856
5.2585057,-7.32000017166138
5.2741307,-7.82000017166138
5.2897557,-8.82999992370605
5.3053807,-10.2299995422363
5.3210057,-11.8800001144409
5.3366307,-13.6199998855591
5.3522557,-15.0699996948242
5.3678807,-15.6899995803833
5.3835057,-15.1899995803833
5.3991307,-13.8599996566772
5.4147557,-12.5500001907349
5.4303807,-11.9300003051758
5.4460057,-11.9700002670288
5.4616307,-12.2700004577637
5.4772557,-12.3999996185303
5.4928807,-11.8900003433228
5.5085057,-10.289999961853
5.5241307,-7.32999992370605
5.5397557,-3.05999994277954
5.5553807,2.29999995231628
5.5710057,8.42000007629395
5.5866307,14.6800003051758
5.6022557,20.1200008392334
5.6178807,23.75
5.6335057,25.0699996948242
5.6491307,24.3199996948242
5.6647557,22.1100006103516
5.6803807,18.8999996185303
5.6960057,15.0799999237061
5.7116307,11.0600004196167
5.7272557,7.17000007629395
5.7428807,3.49000000953674
5.7585057,-0.219999998807907
5.7741307,-4.05999994277954
5.7897557,-7.44999980926514
5.8053807,-9.39000034332275
5.8210057,-9.46000003814697
5.8366307,-8.07999992370605
5.8522557,-6.17999982833862
5.8678807,-4.71999979019165
5.8835057,-4.26000022888184
5.8991307,-4.8600001335144
5.9147557,-6.32999992370605
5.9303807,-8.34000015258789
5.9460057,-10.3800001144409
5.9616307,-12.0299997329712
5.9772557,-13.1999998092651
5.9928807,-14.1499996185303
6.0085057,-15.1499996185303
6.0241307,-16.1499996185303
6.0397557,-16.8500003814697
6.0553807,-17.0300006866455
6.0710057,-16.7000007629395
6.0866307,-16.0300006866455
6.1022557,-15.1099996566772
6.1178807,-13.789999961853
6.1335057,-11.6300001144409
6.1491307,-8.06999969482422
6.1647557,-2.60999989509583
6.1803807,4.71999979019165
6.1960057,12.9799995422363
6.2116307,20.4699993133545
6.2272557,25.4599990844727
6.2428807,27.0900001525879
6.2585057,25.8899993896484
6.2741307,23.4599990844727
6.2897557,21.4099998474121
6.3053807,20.3700008392334
6.3210057,19.7900009155273
6.3366307,18.4799995422363
6.3522557,15.3800001144409
6.3678807,10.1400003433228
6.3835057,3.17000007629395
6.3991307,-4.42000007629395
6.4147557,-11.1800003051758
6.4303807,-15.8400001525879
6.4460057,-17.7199993133545
6.4616307,-16.9899997711182
6.4772557,-14.6599998474121
6.4928807,-12.1700000762939
6.5085057,-10.5500001907349
6.5241307,-9.89000034332275
6.5397557,-9.77000045776367
6.5553807,-9.97000026702881
6.5710057,-10.7200002670288
6.5866307,-12.25
6.6022557,-14.3599996566772
6.6178807,-16.4099998474121
6.6335057,-17.6900005340576
6.6491307,-17.8999996185303
6.6647557,-17.1599998474121
6.6803807,-15.6999998092651
6.6960057,-13.6400003433228
6.7116307,-10.9300003051758
6.7272557,-7.42000007629395
6.7428807,-3.04999995231628
6.7585057,2.21000003814697
6.7741307,8.5
6.7897557,15.6700000762939
6.8053807,23.0100002288818
6.8210057,29.4500007629395
6.8366307,33.8600006103516
6.8522557,35.4199981689453
6.8678807,33.9599990844727
6.8835057,30.2299995422363
6.8991307,25.5799999237061
6.9147557,21.2000007629395
6.9303807,17.6399993896484
6.9460057,14.8400001525879
6.9616307,12.5100002288818
6.9772557,10.3599996566772
6.9928807,8.1899995803833
7.0085057,5.8600001335144
7.0241307,3.19000005722046
7.0397557,0.0500000007450581
7.0553807,-3.36999988555908
7.0710057,-6.6100001335144
7.0866307,-9.27999973297119
7.1022557,-11.210000038147
7.1178807,-12.5500001907349
7.1335057,-13.6800003051758
7.1491307,-15.1000003814697
7.1647557,-17.0599994659424
7.1803807,-19.1200008392334
7.1960057,-20.4500007629395
7.2116307,-20.5499992370605
7.2272557,-19.7399997711182
7.2428807,-18.7099990844727
7.2585057,-18.0300006866455
7.2741307,-17.8899993896484
7.2897557,-18.2900009155273
7.3053807,-19.0799999237061
7.3210057,-19.8299999237061
7.3366307,-19.9500007629395
7.3522557,-18.5699996948242
7.3678807,-14.8199996948242
7.3835057,-8.07999992370605
7.3991307,1.50999999046326
7.4147557,12.8400001525879
7.4303807,23.8099994659424
7.4460057,32.0699996948242
7.4616307,36.1800003051758
7.4772557,36.0999984741211
7.4928807,33.0999984741211
7.5085057,29.0799999237061
7.5241307,25.5599994659424
7.5397557,22.9099998474121
7.5553807,20.2000007629395
7.5710057,16.0400009155273
7.5866307,9.85999965667725
7.6022557,2.63000011444092
7.6178807,-3.63000011444092
7.6335057,-7.21999979019165
7.6491307,-7.80000019073486
7.6647557,-6.3899998664856
7.6803807,-4.44999980926514
7.6960057,-3.17000007629395
7.7116307,-3.27999997138977
7.7272557,-4.90999984741211
7.7428807,-7.57999992370605
7.7585057,-10.5100002288818
7.7741307,-13.1499996185303
7.7897557,-15.3000001907349
7.8053807,-16.8899993896484
7.8210057,-17.8299999237061
7.8366307,-18.1800003051758
7.8522557,-18.2299995422363
7.8678807,-18.1900005340576
7.8835057,-18.0499992370605
7.8991307,-17.6900005340576
7.9147557,-17.0200004577637
7.9303807,-16.1299991607666
7.9460057,-15.0900001525879
7.9616307,-13.6800003051758
7.9772557,-11.3000001907349
7.9928807,-7.15999984741211
8.0085057,-0.610000014305115
8.0241307,8.32999992370605
8.0397557,18.6800003051758
8.0553807,28.6599998474121
8.0710057,36.439998626709
8.0866307,40.8600006103516
8.1022557,41.75
8.1178807,39.8600006103516
8.1335057,36.1399993896484
8.1491307,31.1900005340576
8.1647557,25.2299995422363
8.1803807,18.2900009155273
8.1960057,10.5900001525879
8.2116307,2.78999996185303
8.2272557,-4.07999992370605
8.2428807,-9.02999973297119
8.2585057,-11.5799999237061
8.2741307,-12.0299997329712
8.2897557,-11.210000038147
8.3053807,-10.039999961853
8.3210057,-9.22000026702881
8.3366307,-9.30000019073486
8.3522557,-10.6099996566772
8.3678807,-13.0799999237061
8.3835057,-16.1499996185303
8.3991307,-19.1100006103516
8.4147557,-21.2999992370605
8.4303807,-22.1200008392334
8.4460057,-21.1700000762939
8.4616307,-18.5599994659424
8.4772557,-15.0799999237061
8.4928807,-11.75
8.5085057,-9.39000034332275
8.5241307,-8.36999988555908
8.5397557,-8.64000034332275
8.5553807,-9.89000034332275
8.5710057,-11.8400001525879
8.5866307,-14.0699996948242
8.6022557,-15.7700004577637
8.6178807,-15.7399997711182
8.6335057,-12.7700004577637
8.6491307,-5.88000011444092
8.6647557,5.05999994277954
8.6803807,18.7900009155273
8.6960057,32.7099990844727
8.7116307,43.7799987792969
8.7272557,49.9000015258789
8.7428807,50.6100006103516
8.7585057,47.060001373291
8.7741307,41.4099998474121
8.7897557,35.7799987792969
8.8053807,31.2099990844727
8.8210057,27.3600006103516
8.8366307,22.9899997711182
8.8522557,17.25
8.8678807,10.4700002670288
8.8835057,3.88000011444092
8.8991307,-1.25999999046326
8.9147557,-4.48000001907349
8.9303807,-6.21000003814697
8.9460057,-7.42000007629395
8.9616307,-8.9399995803833
8.9772557,-10.8100004196167
8.9928807,-12.4099998474121
9.0085057,-13.1800003051758
9.0241307,-13.25
9.0397557,-13.1700000762939
9.0553807,-13.4799995422363
9.0710057,-14.4099998474121
9.0866307,-15.8599996566772
9.1022557,-17.6299991607666
9.1178807,-19.6700000762939
9.1335057,-22.0799999237061
9.1491307,-24.6700000762939
9.1647557,-26.6599998474121
9.1803807,-26.9699993133545
9.1960057,-25.2000007629395
9.2116307,-21.9799995422363
9.2272557,-18.3999996185303
9.2428807,-15.1400003433228
9.2585057,-12.0699996948242
9.2741307,-8.38000011444092
9.2897557,-3.07999992370605
9.3053807,4.26000022888184
9.3210057,13.1199998855591
9.3366307,22.0799999237061
9.3522557,29.4099998474121
9.3678807,33.939998626709
9.3835057,35.5499992370605
9.3991307,35.0900001525879
9.4147557,33.7000007629395
9.4303807,32.1199989318848
9.4460057,30.3799991607666
9.4616307,28.0400009155273
9.4772557,24.5499992370605
9.4928807,19.6499996185303
9.5085057,13.6899995803833
9.5241307,7.53000020980835
9.5397557,2.13000011444092
9.5553807,-1.88999998569489
9.5710057,-4.53000020980835
9.5866307,-6.23999977111816
9.6022557,-7.59999990463257
9.6178807,-9.17000007629395
9.6335057,-11.1400003433228
9.6491307,-13.3299999237061
9.6647557,-15.3199996948242
9.6803807,-16.8999996185303
9.6960057,-18.0200004577637
9.7116307,-18.7099990844727
9.7272557,-19.0100002288818
9.7428807,-19.0100002288818
9.7585057,-18.7800006866455
9.7741307,-18.2299995422363
9.7897557,-17.1399993896484
9.8053807,-15.4700002670288
9.8210057,-13.6599998474121
9.8366307,-12.460000038147
9.8522557,-12.3999996185303
9.8678807,-13.2799997329712
9.8835057,-14.0
9.8991307,-12.8599996566772
9.9147557,-8.10999965667725
9.9303807,1.19000005722046
9.9460057,14.1499996185303
9.9616307,27.9400005340576
9.9772557,39.0499992370605
9.9928807,45.1699981689453
10.0085057,45.9900016784668
10.0241307,42.8199996948242
10.0397557,37.6599998474121
10.0553807,32.2700004577637
10.0710057,27.5499992370605
10.0866307,23.3099994659424
10.1022557,18.8099994659424
10.1178807,13.4300003051758
10.1335057,7.0
10.1491307,-0.0199999995529652
10.1647557,-6.65000009536743
10.1803807,-11.75
10.1960057,-14.5200004577637
10.2116307,-14.8400001525879
10.2272557,-13.3599996566772
10.2428807,-11.1199998855591
10.2585057,-9.05000019073486
10.2741307,-7.76999998092651
10.2897557,-7.65999984741211
10.3053807,-8.77999973297119
10.3210057,-10.7399997711182
10.3366307,-12.9399995803833
10.3522557,-15.0299997329712
10.3678807,-17.1700000762939
10.3835057,-19.7199993133545
10.3991307,-22.6800003051758
10.4147557,-25.4699993133545
10.4303807,-27.4300003051758
10.4460057,-28.2800006866455
10.4616307,-28.2299995422363
10.4772557,-27.7600002288818
10.4928807,-27.2600002288818
10.5085057,-26.8400001525879
10.5241307,-25.8400001525879
10.5397557,-22.9699993133545
10.5553807,-17.3600006103516
10.5710057,-9.55000019073486
10.5866307,-1.36000001430511
10.6022557,5.19999980926514
10.6178807,9.07999992370605
10.6335057,10.6199998855591
10.6491307,11.1300001144409
10.6647557,11.9399995803833
10.6803807,13.4799995422363
10.6960057,15.210000038147
10.7116307,16.2600002288818
10.7272557,15.8900003433228
10.7428807,13.7799997329712
10.7585057,10.1499996185303
10.7741307,5.6399998664856
10.7897557,0.970000028610229
10.8053807,-3.1800000667572
10.8210057,-6.17000007629395
10.8366307,-7.55999994277954
10.8522557,-7.73000001907349
10.8678807,-7.84000015258789
10.8835057,-9.22000026702881
10.8991307,-12.8500003814697
10.9147557,-18.9599990844727
10.9303807,-26.7999992370605
10.9460057,-34.8899993896484
10.9616307,-41.5299987792969
10.9772557,-45.4199981689453
10.9928807,-46.0099983215332
11.0085057,-43.4599990844727
11.0241307,-38.3600006103516
11.0397557,-31.7000007629395
11.0553807,-24.5900001525879
11.0710057,-17.75
11.0866307,-10.9700002670288
11.1022557,-3.57999992370605
11.1178807,4.78999996185303
11.1335057,13.8100004196167
11.1491307,21.9300003051758
11.1647557,25.9500007629395
11.1803807,22.9099998474121
11.1960057,13.5100002288818
11.2116307,2.83999991416931
11.2272557,-2.75
11.2428807,0.340000003576279
11.2585057,11.460000038147
11.2741307,26.4099998474121
11.2897557,40.060001373291
11.3053807,49.0999984741211
11.3210057,53.0999984741211
11.3366307,53.0099983215332
11.3522557,49.3199996948242
11.3678807,41.9700012207031
11.3835057,31.4899997711182
11.3991307,19.6299991607666
11.4147557,8.76000022888184
11.4303807,0.790000021457672
11.4460057,-3.72000002861023
11.4616307,-5.67000007629395
