Time(s),Value(%)
1620.006776,-22.8899993896484
1620.022401,-24.6000003814697
1620.038026,-25.0200004577637
1620.053651,-24.7999992370605
1620.069276,-24.2700004577637
1620.084901,-23.6299991607666
1620.100526,-23.0
1620.116151,-22.4799995422363
1620.131776,-22.0799999237061
1620.147401,-21.7900009155273
1620.163026,-21.6299991607666
1620.178651,-21.7299995422363
1620.194276,-22.4200000762939
1620.209901,-23.9599990844727
1620.225526,-26.3899993896484
1620.241151,-29.3899993896484
1620.256776,-32.4799995422363
1620.272401,-35.3400001525879
1620.288026,-38.0099983215332
1620.303651,-40.6699981689453
1620.319276,-43.2900009155273
1620.334901,-45.6399993896484
1620.350526,-47.4900016784668
1620.366151,-48.810001373291
1620.381776,-49.810001373291
1620.397401,-50.8199996948242
1620.413026,-52.2599983215332
1620.428651,-54.3699989318848
1620.444276,-57.2099990844727
1620.459901,-60.7000007629395
1620.475526,-64.870002746582
1620.491151,-69.7799987792969
1620.506776,-74.3099975585938
1620.522401,-78.8399963378906
1620.538026,-82.5500030517578
1620.553651,-84.8300018310547
1620.569276,-85.5800018310547
1620.584901,-85.129997253418
1620.600526,-83.8199996948242
1620.616151,-81.8600006103516
1620.631776,-79.4300003051758
1620.647401,-76.75
1620.663026,-74.0500030517578
1620.678651,-71.4700012207031
1620.694276,-69.0100021362305
1620.709901,-66.5899963378906
1620.725526,-64.1800003051758
1620.741151,-61.8600006103516
1620.756776,-59.8699989318848
1620.772401,-58.4300003051758
1620.788026,-57.5900001525879
1620.803651,-57.2400016784668
1620.819276,-57.1699981689453
1620.834901,-57.2599983215332
1620.850526,-57.5499992370605
1620.866151,-58.0900001525879
1620.881776,-58.7400016784668
1620.897401,-59.2799987792969
1620.913026,-59.5299987792969
1620.928651,-59.4300003051758
1620.944276,-59.1300010681152
1620.959901,-58.8499984741211
1620.975526,-58.8800010681152
1620.991151,-59.4199981689453
1621.006776,-60.5
1621.022401,-62.0499992370605
1621.038026,-64.0500030517578
1621.053651,-66.5100021362305
1621.069276,-69.3199996948242
1621.084901,-72.120002746582
1621.100526,-74.3499984741211
1621.116151,-75.4599990844727
1621.131776,-75.2200012207031
1621.147401,-73.6800003051758
1621.163026,-71.0899963378906
1621.178651,-67.7300033569336
1621.194276,-63.9300003051758
1621.209901,-60.0099983215332
1621.225526,-56.2400016784668
1621.241151,-52.7299995422363
1621.256776,-49.4799995422363
1621.272401,-46.4300003051758
1621.288026,-43.5
1621.303651,-40.7299995422363
1621.319276,-38.2299995422363
1621.334901,-36.1100006103516
1621.350526,-34.4300003051758
1621.366151,-33.1599998474121
1621.381776,-32.2999992370605
1621.397401,-31.8700008392334
1621.413026,-31.8600006103516
1621.428651,-32.1599998474121
1621.444276,-32.560001373291
1621.459901,-32.8899993896484
1621.475526,-33.1599998474121
1621.491151,-33.5200004577637
1621.506776,-34.4700012207031
1621.522401,-35.5999984741211
1621.538026,-36.7700004577637
1621.553651,-37.8800010681152
1621.569276,-39.0
1621.584901,-40.25
1621.600526,-41.6100006103516
1621.616151,-42.8699989318848
1621.631776,-43.7999992370605
1621.647401,-44.3400001525879
1621.663026,-44.4900016784668
1621.678651,-44.1300010681152
1621.694276,-42.8800010681152
1621.709901,-40.310001373291
1621.725526,-36.3699989318848
1621.741151,-31.3799991607666
1621.756776,-25.8400001525879
1621.772401,-20.2000007629395
1621.788026,-14.75
1621.803651,-9.77999973297119
1621.819276,-5.65000009536743
1621.834901,-2.65000009536743
1621.850526,-0.860000014305115
1621.866151,-0.129999995231628
1621.881776,-0.200000002980232
1621.897401,-0.800000011920929
1621.913026,-1.69000005722046
1621.928651,-2.66000008583069
1621.944276,-3.58999991416931
1621.959901,-4.44999980926514
1621.975526,-5.26000022888184
1621.991151,-6.09999990463257
1622.006776,-7.01999998092651
1622.022401,-8.10999965667725
1622.038026,-9.53999996185303
1622.053651,-11.4700002670288
1622.069276,-13.8500003814697
1622.084901,-16.4699993133545
1622.100526,-18.9400005340576
1622.116151,-21.0499992370605
1622.131776,-22.8199996948242
1622.147401,-24.3999996185303
1622.163026,-25.7999992370605
1622.178651,-26.8600006103516
1622.194276,-27.4500007629395
1622.209901,-27.5699996948242
1622.225526,-27.2900009155273
1622.241151,-26.4500007629395
1622.256776,-24.5
1622.272401,-20.8799991607666
1622.288026,-15.5
1622.303651,-8.85000038146973
1622.319276,-1.70000004768372
1622.334901,5.28000020980835
1622.350526,11.6899995803833
1622.366151,17.1599998474121
1622.381776,21.2700004577637
1622.397401,23.7399997711182
1622.413026,24.6900005340576
1622.428651,24.6299991607666
1622.444276,24.1299991607666
1622.459901,23.5900001525879
1622.475526,23.1499996185303
1622.491151,22.8099994659424
1622.506776,22.7800006866455
1622.522401,22.6700000762939
1622.538026,22.4500007629395
1622.553651,22.1100006103516
1622.569276,21.7000007629395
1622.584901,21.2299995422363
1622.600526,20.7000007629395
1622.616151,20.1000003814697
1622.631776,19.4099998474121
1622.647401,18.6100006103516
1622.663026,17.6800003051758
1622.678651,16.7199993133545
1622.694276,16.0200004577637
1622.709901,15.9099998474121
1622.725526,16.5499992370605
1622.741151,17.8299999237061
1622.756776,19.4500007629395
1622.772401,21.0599994659424
1622.788026,22.4899997711182
1622.803651,23.8899993896484
1622.819276,25.7099990844727
1622.834901,28.3999996185303
1622.850526,32.1199989318848
1622.866151,36.6100006103516
1622.881776,41.4700012207031
1622.897401,46.3400001525879
1622.913026,50.9199981689453
1622.928651,54.7299995422363
1622.944276,57.0499992370605
1622.959901,57.2999992370605
1622.975526,55.5699996948242
1622.991151,52.5200004577637
1623.006776,48.9599990844727
1623.022401,45.439998626709
1623.038026,42.1699981689453
1623.053651,39.1300010681152
1623.069276,36.189998626709
1623.084901,33.189998626709
1623.100526,29.8999996185303
1623.116151,26.2000007629395
1623.131776,22.0900001525879
1623.147401,17.7199993133545
1623.163026,13.210000038147
1623.178651,8.65999984741211
1623.194276,4.15999984741211
1623.209901,-0.189999997615814
1623.225526,-4.21999979019165
1623.241151,-7.48999977111816
1623.256776,-9.34000015258789
1623.272401,-9.14999961853027
1623.288026,-6.8600001335144
1623.303651,-2.98000001907349
1623.319276,1.60000002384186
1623.334901,6.09999990463257
1623.350526,10.0200004577637
1623.366151,13.1599998474121
1623.381776,15.539999961853
1623.397401,17.25
1623.413026,18.4500007629395
1623.428651,19.3400001525879
1623.444276,20.1100006103516
1623.459901,20.8999996185303
1623.475526,21.6900005340576
1623.491151,22.1800003051758
1623.506776,22.3199996948242
1623.522401,20.9799995422363
1623.538026,18.0400009155273
1623.553651,13.9399995803833
1623.569276,9.35999965667725
1623.584901,4.8600001335144
1623.600526,0.740000009536743
1623.616151,-2.97000002861023
1623.631776,-6.46999979019165
1623.647401,-10.0
1623.663026,-13.9099998474121
1623.678651,-18.4500007629395
1623.694276,-23.5400009155273
1623.709901,-28.6700000762939
1623.725526,-32.9199981689453
1623.741151,-35.5200004577637
1623.756776,-36.2200012207031
1623.772401,-35.3499984741211
1623.788026,-33.3300018310547
1623.803651,-29.9799995422363
1623.819276,-24.3400001525879
1623.834901,-15.6199998855591
1623.850526,-4.30999994277954
1623.866151,7.92999982833862
1623.881776,19.3199996948242
1623.897401,28.7999992370605
1623.913026,36.3199996948242
1623.928651,42.4500007629395
1623.944276,47.8499984741211
1623.959901,52.9700012207031
1623.975526,57.9900016784668
1623.991151,63.1699981689453
1624.006776,68.9899978637695
1624.022401,75.9300003051758
1624.038026,83.9100036621094
1624.053651,91.7399978637695
1624.069276,97.3499984741211
1624.084901,99.0500030517578
1624.100526,96.8099975585938
1624.116151,91.9000015258789
1624.131776,85.6999969482422
1624.147401,79.0699996948242
1624.163026,72.4599990844727
1624.178651,66.1800003051758
1624.194276,60.3300018310547
1624.209901,54.6500015258789
1624.225526,48.5800018310547
1624.241151,41.75
1624.256776,34.439998626709
1624.272401,27.3199996948242
1624.288026,20.8500003814697
1624.303651,14.9799995422363
1624.319276,9.42000007629395
1624.334901,3.86999988555908
1624.350526,-1.57000005245209
1624.366151,-6.03999996185303
1624.381776,-7.73999977111816
1624.397401,-5.07000017166138
1624.413026,2.24000000953674
1624.428651,13.1199998855591
1624.444276,26.0400009155273
1624.459901,39.7400016784668
1624.475526,53.1199989318848
1624.491151,64.5800018310547
1624.506776,72.3199996948242
1624.522401,73.8899993896484
1624.538026,69.25
1624.553651,60.2000007629395
1624.569276,48.9199981689453
1624.584901,36.9799995422363
1624.600526,25.1299991607666
1624.616151,13.6000003814697
1624.631776,2.40000009536743
1624.647401,-8.55000019073486
1624.663026,-19.4300003051758
1624.678651,-30.3400001525879
1624.694276,-41.2799987792969
1624.709901,-52.1800003051758
1624.725526,-63.0400009155273
1624.741151,-73.8899993896484
1624.756776,-84.6999969482422
1624.772401,-95.379997253418
1624.788026,-105.839996337891
1624.803651,-115.98999786377
1624.819276,-125.589996337891
1624.834901,-134.270004272461
1624.850526,-141.619995117188
1624.866151,-147.419998168945
1624.881776,-151.779998779297
1624.897401,-155.070007324219
1624.913026,-157.610000610352
1624.928651,-159.080001831055
1624.944276,-158.380004882813
1624.959901,-154.350006103516
1624.975526,-146.759994506836
1624.991151,-136.479995727539
1625.006776,-124.930000305176
1625.022401,-113.309997558594
1625.038026,-102.51000213623
1625.053651,-93.4199981689453
1625.069276,-87.3099975585938
1625.084901,-85.2699966430664
1625.100526,-87.3199996948242
1625.116151,-92.3600006103516
1625.131776,-98.8000030517578
1625.147401,-105.279998779297
1625.163026,-111.0
1625.178651,-115.76000213623
1625.194276,-119.709999084473
1625.209901,-123.230003356934
1625.225526,-126.730003356934
1625.241151,-130.470001220703
1625.256776,-134.490005493164
1625.272401,-138.800003051758
1625.288026,-143.550003051758
1625.303651,-148.949996948242
1625.319276,-154.919998168945
1625.334901,-160.940002441406
1625.350526,-166.25
1625.366151,-170.300003051758
1625.381776,-173.080001831055
1625.397401,-174.839996337891
1625.413026,-175.619995117188
1625.428651,-175.199996948242
1625.444276,-173.460006713867
1625.459901,-170.529998779297
1625.475526,-166.679992675781
1625.491151,-161.649993896484
1625.506776,-154.449996948242
1625.522401,-143.899993896484
1625.538026,-129.830001831055
1625.553651,-113.290000915527
1625.569276,-95.9300003051758
1625.584901,-79.2099990844727
1625.600526,-64.0
1625.616151,-50.8899993896484
1625.631776,-40.5900001525879
1625.647401,-33.7299995422363
1625.663026,-30.3600006103516
1625.678651,-29.7199993133545
1625.694276,-30.5100002288818
1625.709901,-31.4899997711182
1625.725526,-31.8600006103516
1625.741151,-31.3600006103516
1625.756776,-30.2099990844727
1625.772401,-28.9400005340576
1625.788026,-28.2099990844727
1625.803651,-28.5
1625.819276,-29.8799991607666
1625.834901,-32.2299995422363
1625.850526,-35.560001373291
1625.866151,-39.939998626709
1625.881776,-45.1500015258789
1625.897401,-50.3899993896484
1625.913026,-54.439998626709
1625.928651,-56.3300018310547
1625.944276,-55.9099998474121
1625.959901,-53.6399993896484
1625.975526,-49.8300018310547
1625.991151,-44.189998626709
1626.006776,-35.9900016784668
1626.022401,-24.7800006866455
1626.038026,-10.8999996185303
1626.053651,4.57999992370605
1626.069276,20.5400009155273
1626.084901,36.3400001525879
1626.100526,51.8899993896484
1626.116151,67.0199966430664
1626.131776,80.9899978637695
1626.147401,92.7699966430664
1626.163026,101.830001831055
1626.178651,108.5
1626.194276,113.620002746582
1626.209901,117.930000305176
1626.225526,121.629997253418
1626.241151,124.51000213623
1626.256776,126.349998474121
1626.272401,127.190002441406
1626.288026,127.269996643066
1626.303651,126.959999084473
1626.319276,126.589996337891
1626.334901,126.339996337891
1626.350526,126.220001220703
1626.366151,126.0
1626.381776,125.26000213623
1626.397401,123.620002746582
1626.413026,121.089996337891
1626.428651,118.019996643066
1626.444276,114.900001525879
1626.459901,112.069999694824
1626.475526,109.669998168945
1626.491151,107.559997558594
1626.506776,104.230003356934
1626.522401,100.76000213623
1626.538026,97.120002746582
1626.553651,93.6100006103516
1626.569276,90.8099975585938
1626.584901,89.2099990844727
1626.600526,88.9499969482422
1626.616151,89.9300003051758
1626.631776,92.0899963378906
1626.647401,95.3000030517578
1626.663026,99.1699981689453
1626.678651,102.949996948242
1626.694276,105.769996643066
1626.709901,107.059997558594
1626.725526,106.819999694824
1626.741151,105.540000915527
1626.756776,103.809997558594
1626.772401,101.870002746582
1626.788026,99.4300003051758
1626.803651,95.9899978637695
1626.819276,91.2799987792969
1626.834901,85.370002746582
1626.850526,78.3499984741211
1626.866151,70.3300018310547
1626.881776,61.6800003051758
1626.897401,53.189998626709
1626.913026,45.9599990844727
1626.928651,40.5999984741211
1626.944276,36.7299995422363
1626.959901,33.4000015258789
1626.975526,30.0699996948242
1626.991151,26.9099998474121
1627.006776,24.3500003814697
1627.022401,22.6299991607666
1627.038026,21.6700000762939
1627.053651,21.1299991607666
1627.069276,20.5699996948242
1627.084901,19.6900005340576
1627.100526,18.4300003051758
1627.116151,16.9400005340576
1627.131776,15.4499998092651
1627.147401,14.1499996185303
1627.163026,13.1999998092651
1627.178651,13.0
1627.194276,14.2799997329712
1627.209901,17.7199993133545
1627.225526,23.3199996948242
1627.241151,30.1499996185303
1627.256776,36.8199996948242
1627.272401,42.0800018310547
1627.288026,45.4599990844727
1627.303651,47.2400016784668
1627.319276,48.0200004577637
1627.334901,48.189998626709
1627.350526,47.6800003051758
1627.366151,46.3300018310547
1627.381776,44.3699989318848
1627.397401,42.189998626709
1627.413026,39.8699989318848
1627.428651,37.1300010681152
1627.444276,33.7999992370605
1627.459901,30.1499996185303
1627.475526,26.9300003051758
1627.491151,24.6100006103516
1627.506776,22.6900005340576
1627.522401,20.7600002288818
1627.538026,18.5799999237061
1627.553651,16.5100002288818
1627.569276,15.0500001907349
1627.584901,14.4399995803833
1627.600526,14.5200004577637
1627.616151,14.8800001144409
1627.631776,15.1000003814697
1627.647401,14.8800001144409
1627.663026,14.1899995803833
1627.678651,13.2600002288818
1627.694276,12.3800001144409
1627.709901,11.8299999237061
1627.725526,11.7299995422363
1627.741151,12.3800001144409
1627.756776,14.2799997329712
1627.772401,17.75
1627.788026,22.4500007629395
1627.803651,27.4500007629395
1627.819276,31.7999992370605
1627.834901,34.9599990844727
1627.850526,36.9900016784668
1627.866151,38.2900009155273
1627.881776,39.2799987792969
1627.897401,40.0499992370605
1627.913026,40.25
1627.928651,39.4099998474121
1627.944276,37.3300018310547
1627.959901,34.0299987792969
1627.975526,29.5499992370605
1627.991151,23.9500007629395
1628.006776,17.5400009155273
1628.022401,11.1599998474121
1628.038026,5.98999977111816
1628.053651,2.75999999046326
1628.069276,1.12999999523163
1628.084901,0.129999995231628
1628.100526,-0.879999995231628
1628.116151,-1.87000000476837
1628.131776,-2.47000002861023
1628.147401,-2.45000004768372
1628.163026,-1.87000000476837
1628.178651,-1.11000001430511
1628.194276,-0.699999988079071
1628.209901,-1.02999997138977
1628.225526,-2.1800000667572
1628.241151,-3.88000011444092
1628.256776,-5.69999980926514
1628.272401,-7.28999996185303
1628.288026,-8.39999961853027
1628.303651,-8.64000034332275
1628.319276,-7.30999994277954
1628.334901,-3.92000007629395
1628.350526,1.25
1628.366151,7.23999977111816
1628.381776,12.8500003814697
1628.397401,17.1900005340576
1628.413026,19.7099990844727
1628.428651,20.3600006103516
1628.444276,19.5499992370605
1628.459901,18.0900001525879
1628.475526,16.8700008392334
1628.491151,16.3500003814697
1628.506776,16.4400005340576
1628.522401,16.5900001525879
1628.538026,16.7000007629395
1628.553651,17.0499992370605
1628.569276,17.9599990844727
1628.584901,19.5100002288818
1628.600526,21.4400005340576
1628.616151,23.25
1628.631776,24.3099994659424
1628.647401,24.1800003051758
1628.663026,22.7900009155273
1628.678651,20.2299995422363
1628.694276,16.5100002288818
1628.709901,11.5500001907349
1628.725526,5.57000017166138
1628.741151,-0.589999973773956
1628.756776,-5.69000005722046
1628.772401,-8.6899995803833
1628.788026,-9.52000045776367
1628.803651,-8.78999996185303
1628.819276,-7.03999996185303
1628.834901,-4.5
1628.850526,-1.25999999046326
1628.866151,2.45000004768372
1628.881776,6.3600001335144
1628.897401,10.1199998855591
1628.913026,13.5200004577637
1628.928651,16.4699993133545
1628.944276,18.9699993133545
1628.959901,20.8700008392334
1628.975526,21.7600002288818
1628.991151,21.2399997711182
1629.006776,19.2999992370605
1629.022401,16.5
1629.038026,13.7200002670288
1629.053651,11.5799999237061
1629.069276,10.0100002288818
1629.084901,8.68000030517578
1629.100526,7.51000022888184
1629.116151,6.84000015258789
1629.131776,6.96999979019165
1629.147401,7.8899998664856
1629.163026,9.27999973297119
1629.178651,10.5699996948242
1629.194276,11.1700000762939
1629.209901,10.6700000762939
1629.225526,9.02999973297119
1629.241151,6.34000015258789
1629.256776,2.5699999332428
1629.272401,-2.36999988555908
1629.288026,-8.3100004196167
1629.303651,-14.4499998092651
1629.319276,-19.5200004577637
1629.334901,-22.4899997711182
1629.350526,-23.1700000762939
1629.366151,-22.0200004577637
1629.381776,-19.6000003814697
1629.397401,-16.2000007629395
1629.413026,-12.0799999237061
1629.428651,-7.55000019073486
1629.444276,-2.99000000953674
1629.459901,1.25
1629.475526,4.92999982833862
1629.491151,7.92999982833862
1629.506776,10.460000038147
1629.522401,12.3199996948242
1629.538026,13.2299995422363
1629.553651,12.8800001144409
1629.569276,11.2399997711182
1629.584901,8.80000019073486
1629.600526,6.30999994277954
1629.616151,4.32000017166138
1629.631776,2.75999999046326
1629.647401,1.30999994277954
1629.663026,-0.0500000007450581
1629.678651,-1.0
1629.694276,-1.19000005722046
1629.709901,-0.600000023841858
1629.725526,0.46000000834465
1629.741151,1.44000005722046
1629.756776,1.67999994754791
1629.772401,0.730000019073486
1629.788026,-1.48000001907349
1629.803651,-4.82000017166138
1629.819276,-9.28999996185303
1629.834901,-14.9300003051758
1629.850526,-21.5300006866455
1629.866151,-28.2600002288818
1629.881776,-33.7700004577637
1629.897401,-36.8899993896484
1629.913026,-37.2799987792969
1629.928651,-35.3400001525879
1629.944276,-31.6599998474121
1629.959901,-26.75
1629.975526,-21.0599994659424
1629.991151,-15.0699996948242
1630.006776,-9.22000026702881
1630.022401,-3.91000008583069
1630.038026,0.540000021457672
1630.053651,4.01999998092651
1630.069276,6.55000019073486
1630.084901,8.17000007629395
1630.100526,8.76000022888184
1630.116151,8.14999961853027
1630.131776,6.42000007629395
1630.147401,4.01000022888184
1630.163026,1.5900000333786
1630.178651,-0.439999997615814
1630.194276,-2.16000008583069
1630.209901,-3.84999990463257
1630.225526,-5.48999977111816
1630.241151,-6.75
1630.256776,-7.30999994277954
1630.272401,-7.15999984741211
1630.288026,-6.57999992370605
1630.303651,-6.09999990463257
1630.319276,-6.30999994277954
1630.334901,-7.61999988555908
1630.350526,-10.0799999237061
1630.366151,-13.5600004196167
1630.381776,-18.0300006866455
1630.397401,-23.5300006866455
1630.413026,-29.8500003814697
1630.428651,-36.25
1630.444276,-41.5099983215332
1630.459901,-44.5400009155273
1630.475526,-44.9000015258789
1630.491151,-42.7999992370605
1630.506776,-39.189998626709
1630.522401,-34.0499992370605
1630.538026,-27.9599990844727
1630.553651,-21.5
1630.569276,-15.2399997711182
1630.584901,-9.64000034332275
1630.600526,-5.1399998664856
1630.616151,-1.99000000953674
1630.631776,-0.170000001788139
1630.647401,0.5
1630.663026,0.109999999403954
1630.678651,-1.32000005245209
1630.694276,-3.67000007629395
1630.709901,-6.51000022888184
1630.725526,-9.27999973297119
1630.741151,-11.6099996566772
1630.756776,-13.6000003814697
1630.772401,-15.5200004577637
