Time(s),Value(%)
506.0120582,-2.70000004768372
506.0276832,-2.23000001907349
506.0433082,-2.14000010490417
506.0589332,-2.17000007629395
506.0745582,-1.94000005722046
506.0901832,-1.30999994277954
506.1058082,-0.490000009536743
506.1214332,0.159999996423721
506.1370582,0.490000009536743
506.1526832,0.579999983310699
506.1683082,0.680000007152557
506.1839332,0.959999978542328
506.1995582,1.29999995231628
506.2151832,1.49000000953674
506.2308082,1.47000002861023
506.2464332,1.33000004291534
506.2620582,1.28999996185303
506.2776832,1.49000000953674
506.2933082,1.94000005722046
506.3089332,2.51999998092651
506.3245582,3.13000011444092
506.3401832,3.72000002861023
506.3558082,4.30999994277954
506.3714332,5.01999998092651
506.3870582,6.03999996185303
506.4026832,7.40999984741211
506.4183082,8.85999965667725
506.4339332,10.0
506.4495582,10.6000003814697
506.4651832,10.75
506.4808082,10.7799997329712
506.4964332,11.0600004196167
506.5120582,11.7600002288818
506.5276832,12.7600002288818
506.5433082,13.7299995422363
506.5589332,14.3699998855591
506.5745582,14.5
506.5901832,14.1300001144409
506.6058082,13.4300003051758
506.6214332,12.4799995422363
506.6370582,11.2399997711182
506.6526832,9.61999988555908
506.6683082,7.63000011444092
506.6839332,5.46000003814697
506.6995582,3.39000010490417
506.7151832,1.72000002861023
506.7308082,0.540000021457672
506.7464332,-0.230000004172325
506.7620582,-0.740000009536743
506.7776832,-1.04999995231628
506.7933082,-1.20000004768372
506.8089332,-1.26999998092651
506.8245582,-1.35000002384186
506.8401832,-1.47000002861023
506.8558082,-1.62999999523163
506.8714332,-1.85000002384186
506.8870582,-2.13000011444092
506.9026832,-2.48000001907349
506.9183082,-2.86999988555908
506.9339332,-3.27999997138977
506.9495582,-3.6800000667572
506.9651832,-4.09999990463257
506.9808082,-4.51000022888184
506.9964332,-4.92000007629395
507.0120582,-5.34000015258789
507.0276832,-5.80999994277954
507.0433082,-6.28999996185303
507.0589332,-6.65999984741211
507.0745582,-6.80000019073486
507.0901832,-6.80000019073486
507.1058082,-6.80999994277954
507.1214332,-6.94000005722046
507.1370582,-7.19999980926514
507.1526832,-7.51999998092651
507.1683082,-7.75
507.1839332,-7.80000019073486
507.1995582,-7.69999980926514
507.2151832,-7.6100001335144
507.2308082,-7.65999984741211
507.2464332,-7.80999994277954
507.2620582,-8.0
507.2776832,-8.15999984741211
507.2933082,-8.31999969482422
507.3089332,-8.47999954223633
507.3245582,-8.65999984741211
507.3401832,-8.81999969482422
507.3558082,-8.89000034332275
507.3714332,-8.72999954223633
507.3870582,-8.28999996185303
507.4026832,-7.59999990463257
507.4183082,-6.76999998092651
507.4339332,-5.82999992370605
507.4495582,-4.8600001335144
507.4651832,-3.94000005722046
507.4808082,-3.04999995231628
507.4964332,-2.08999991416931
507.5120582,-1.12999999523163
507.5276832,-0.409999996423721
507.5433082,-0.0900000035762787
507.5589332,-0.119999997317791
507.5745582,-0.25
507.5901832,-0.180000007152557
507.6058082,0.119999997317791
507.6214332,0.569999992847443
507.6370582,1.02999997138977
507.6526832,1.39999997615814
507.6683082,1.66999995708466
507.6839332,1.78999996185303
507.6995582,1.73000001907349
507.7151832,1.57000005245209
507.7308082,1.49000000953674
507.7464332,1.58000004291534
507.7620582,1.86000001430511
507.7776832,2.24000000953674
507.7933082,2.67000007629395
507.8089332,3.00999999046326
507.8245582,3.0699999332428
507.8401832,2.75
507.8558082,2.16000008583069
507.8714332,1.55999994277954
507.8870582,1.13999998569489
507.9026832,0.889999985694885
507.9183082,0.610000014305115
507.9339332,0.159999996423721
507.9495582,-0.430000007152557
507.9651832,-1.0900000333786
507.9808082,-1.61000001430511
507.9964332,-1.75999999046326
508.0120582,-1.41999995708466
508.0276832,-0.660000026226044
508.0433082,0.370000004768372
508.0589332,1.52999997138977
508.0745582,2.76999998092651
508.0901832,4.05999994277954
508.1058082,5.23000001907349
508.1214332,6.05000019073486
508.1370582,6.40999984741211
508.1526832,6.36999988555908
508.1683082,5.98999977111816
508.1839332,5.30999994277954
508.1995582,4.3600001335144
508.2151832,3.15000009536743
508.2308082,1.72000002861023
508.2464332,0.230000004172325
508.2620582,-1.0900000333786
508.2776832,-2.02999997138977
508.2933082,-2.36999988555908
508.3089332,-1.94000005722046
508.3245582,-0.720000028610229
508.3401832,0.949999988079071
508.3558082,2.59999990463257
508.3714332,3.88000011444092
508.3870582,4.69999980926514
508.4026832,5.07999992370605
508.4183082,5.1399998664856
508.4339332,5.05999994277954
508.4495582,4.98000001907349
508.4651832,5.03000020980835
508.4808082,5.28000020980835
508.4964332,5.65000009536743
508.5120582,5.96000003814697
508.5276832,5.96999979019165
508.5433082,5.59000015258789
508.5589332,5.0
508.5745582,4.40999984741211
508.5901832,3.94000005722046
508.6058082,3.53999996185303
508.6214332,3.1800000667572
508.6370582,2.8199999332428
508.6526832,2.44000005722046
508.6683082,2.08999991416931
508.6839332,1.95000004768372
508.6995582,2.16000008583069
508.7151832,2.72000002861023
508.7308082,3.39000010490417
508.7464332,3.8199999332428
508.7620582,3.85999989509583
508.7776832,3.67000007629395
508.7933082,3.47000002861023
508.8089332,3.40000009536743
508.8245582,3.39000010490417
508.8401832,3.3199999332428
508.8558082,3.04999995231628
508.8714332,2.55999994277954
508.8870582,1.89999997615814
508.9026832,1.12000000476837
508.9183082,0.310000002384186
508.9339332,-0.430000007152557
508.9495582,-1.12000000476837
508.9651832,-1.77999997138977
508.9808082,-2.42000007629395
508.9964332,-3.0
509.0120582,-3.54999995231628
509.0276832,-4.07000017166138
509.0433082,-4.51000022888184
509.0589332,-4.75
509.0745582,-4.71999979019165
509.0901832,-4.44000005722046
509.1058082,-4.0
509.1214332,-3.48000001907349
509.1370582,-3.00999999046326
509.1526832,-2.77999997138977
509.1683082,-2.9300000667572
509.1839332,-3.49000000953674
509.1995582,-4.32000017166138
509.2151832,-5.21000003814697
509.2308082,-5.84999990463257
509.2464332,-5.98999977111816
509.2620582,-5.61999988555908
509.2776832,-5.05999994277954
509.2933082,-4.71999979019165
509.3089332,-4.78999996185303
509.3245582,-5.07999992370605
509.3401832,-5.25
509.3558082,-4.96000003814697
509.3714332,-4.15000009536743
509.3870582,-3.02999997138977
509.4026832,-1.82000005245209
509.4183082,-0.629999995231628
509.4339332,0.540000021457672
509.4495582,1.74000000953674
509.4651832,3.05999994277954
509.4808082,4.44000005722046
509.4964332,5.65000009536743
509.5120582,6.40999984741211
509.5276832,6.59000015258789
509.5433082,6.13000011444092
509.5589332,4.84000015258789
509.5745582,2.55999994277954
509.5901832,-0.349999994039536
509.6058082,-2.97000002861023
509.6214332,-4.48000001907349
509.6370582,-4.76000022888184
509.6526832,-4.3600001335144
509.6683082,-3.98000001907349
509.6839332,-3.96000003814697
509.6995582,-4.09999990463257
509.7151832,-4.07000017166138
509.7308082,-3.73000001907349
509.7464332,-3.07999992370605
509.7620582,-2.14000010490417
509.7776832,-0.910000026226044
509.7933082,0.560000002384186
509.8089332,2.09999990463257
509.8245582,3.42000007629395
509.8401832,4.07999992370605
509.8558082,3.58999991416931
509.8714332,1.74000000953674
509.8870582,-1.13999998569489
509.9026832,-4.30000019073486
509.9183082,-6.84999990463257
509.9339332,-8.25
509.9495582,-8.55000019073486
509.9651832,-8.25
509.9808082,-7.8899998664856
509.9964332,-7.65999984741211
510.0120582,-7.46999979019165
510.0276832,-7.32000017166138
510.0433082,-7.36999988555908
510.0589332,-7.73000001907349
510.0745582,-8.25
510.0901832,-8.60999965667725
510.1058082,-8.48999977111816
510.1214332,-7.78000020980835
510.1370582,-6.55999994277954
510.1526832,-5.09999990463257
510.1683082,-3.71000003814697
510.1839332,-2.5699999332428
510.1995582,-1.5
510.2151832,-0.349999994039536
510.2308082,0.709999978542328
510.2464332,1.35000002384186
510.2620582,1.51999998092651
510.2776832,1.48000001907349
510.2933082,1.51999998092651
510.3089332,1.66999995708466
510.3245582,1.86000001430511
510.3401832,1.99000000953674
510.3558082,2.03999996185303
510.3714332,2.02999997138977
510.3870582,2.05999994277954
510.4026832,2.19000005722046
510.4183082,2.39000010490417
510.4339332,2.60999989509583
510.4495582,2.88000011444092
510.4651832,3.20000004768372
510.4808082,3.46000003814697
510.4964332,3.51999998092651
510.5120582,3.26999998092651
510.5276832,2.79999995231628
510.5433082,2.27999997138977
510.5589332,1.83000004291534
510.5745582,1.42999994754791
510.5901832,1.11000001430511
510.6058082,0.959999978542328
510.6214332,1.00999999046326
510.6370582,1.21000003814697
510.6526832,1.52999997138977
510.6683082,2.04999995231628
510.6839332,2.76999998092651
510.6995582,3.58999991416931
510.7151832,4.34999990463257
510.7308082,4.8899998664856
510.7464332,5.13000011444092
510.7620582,5.07000017166138
510.7776832,4.76000022888184
510.7933082,4.17000007629395
510.8089332,3.27999997138977
510.8245582,2.11999988555908
510.8401832,0.939999997615814
510.8558082,0.159999996423721
510.8714332,0.0700000002980232
510.8870582,0.620000004768372
510.9026832,1.60000002384186
510.9183082,2.8199999332428
510.9339332,4.09999990463257
510.9495582,5.26999998092651
510.9651832,6.25
510.9808082,7.0
510.9964332,7.48999977111816
511.0120582,7.65000009536743
511.0276832,7.5
511.0433082,7.07999992370605
511.0589332,6.53000020980835
511.0745582,5.98000001907349
511.0901832,5.55000019073486
511.1058082,5.17999982833862
511.1214332,4.73999977111816
511.1370582,4.1100001335144
511.1526832,3.34999990463257
511.1683082,2.60999989509583
511.1839332,2.04999995231628
511.1995582,1.75999999046326
511.2151832,1.64999997615814
511.2308082,1.51999998092651
511.2464332,1.21000003814697
511.2620582,0.680000007152557
511.2776832,0.0099999997764825
511.2933082,-0.730000019073486
511.3089332,-1.48000001907349
511.3245582,-2.16000008583069
511.3401832,-2.75999999046326
511.3558082,-3.27999997138977
511.3714332,-3.75
511.3870582,-4.19000005722046
511.4026832,-4.6399998664856
511.4183082,-5.03999996185303
511.4339332,-5.17999982833862
511.4495582,-4.92000007629395
511.4651832,-4.40000009536743
511.4808082,-3.94000005722046
511.4964332,-3.75999999046326
511.5120582,-3.79999995231628
511.5276832,-3.78999996185303
511.5433082,-3.63000011444092
511.5589332,-3.4300000667572
511.5745582,-3.30999994277954
511.5901832,-3.25999999046326
511.6058082,-3.24000000953674
511.6214332,-3.25
511.6370582,-3.23000001907349
511.6526832,-3.04999995231628
511.6683082,-2.50999999046326
511.6839332,-1.47000002861023
511.6995582,-0.0599999986588955
511.7151832,1.42999994754791
511.7308082,2.6800000667572
511.7464332,3.4300000667572
511.7620582,3.63000011444092
511.7776832,3.36999988555908
511.7933082,2.89000010490417
511.8089332,2.45000004768372
511.8245582,2.22000002861023
511.8401832,2.23000001907349
511.8558082,2.26999998092651
511.8714332,2.16000008583069
511.8870582,1.9099999666214
511.9026832,1.60000002384186
511.9183082,1.27999997138977
511.9339332,1.01999998092651
511.9495582,0.889999985694885
511.9651832,0.879999995231628
511.9808082,0.879999995231628
511.9964332,0.800000011920929
512.0120582,0.689999997615814
512.0276832,0.670000016689301
512.0433082,0.720000028610229
512.0589332,0.730000019073486
512.0745582,0.610000014305115
512.0901832,0.379999995231628
512.1058082,0.170000001788139
512.1214332,0.0299999993294477
512.1370582,-0.0500000007450581
512.1526832,-0.109999999403954
512.1683082,-0.129999995231628
512.1839332,-0.0900000035762787
512.1995582,-0.100000001490116
512.2151832,-0.28999999165535
512.2308082,-0.709999978542328
512.2464332,-1.29999995231628
512.2620582,-1.97000002861023
512.2776832,-2.65000009536743
512.2933082,-3.26999998092651
512.3089332,-3.71000003814697
512.3245582,-3.79999995231628
512.3401832,-3.45000004768372
512.3558082,-2.76999998092651
512.3714332,-1.89999997615814
512.3870582,-0.959999978542328
512.4026832,-0.0299999993294477
512.4183082,0.660000026226044
512.4339332,0.889999985694885
512.4495582,0.629999995231628
512.4651832,0.109999999403954
512.4808082,-0.330000013113022
512.4964332,-0.540000021457672
512.5120582,-0.469999998807907
512.5276832,-0.200000002980232
512.5433082,0.0799999982118607
512.5589332,0.200000002980232
512.5745582,0.0500000007450581
512.5901832,-0.300000011920929
512.6058082,-0.740000009536743
512.6214332,-1.05999994277954
512.6370582,-1.17999994754791
512.6526832,-1.17999994754791
512.6683082,-1.29999995231628
512.6839332,-1.87999999523163
512.6995582,-3.57999992370605
512.7151832,-6.55000019073486
512.7308082,-9.44999980926514
512.7464332,-10.3599996566772
512.7620582,-8.60999965667725
512.7776832,-5.13000011444092
512.7933082,-1.55999994277954
512.8089332,0.720000028610229
512.8245582,1.12000000476837
512.8401832,-0.100000001490116
512.8558082,-2.20000004768372
512.8714332,-4.30000019073486
512.8870582,-5.73000001907349
512.9026832,-6.17999982833862
512.9183082,-5.65999984741211
512.9339332,-4.3899998664856
512.9495582,-2.5699999332428
512.9651832,-0.469999998807907
512.9808082,1.55999994277954
512.9964332,3.26999998092651
513.0120582,4.30000019073486
513.0276832,4.17000007629395
513.0433082,2.83999991416931
513.0589332,1.22000002861023
513.0745582,0.560000002384186
513.0901832,1.51999998092651
513.1058082,3.82999992370605
513.1214332,6.61999988555908
513.1370582,8.96000003814697
513.1526832,10.3599996566772
513.1683082,10.9200000762939
513.1839332,10.9499998092651
513.1995582,10.710000038147
513.2151832,10.4300003051758
513.2308082,10.289999961853
513.2464332,10.2399997711182
513.2620582,9.98999977111816
513.2776832,9.1899995803833
513.2933082,7.82000017166138
513.3089332,6.28999996185303
513.3245582,5.09999990463257
513.3401832,4.46000003814697
513.3558082,4.26000022888184
513.3714332,4.19999980926514
513.3870582,4.07999992370605
513.4026832,3.75
513.4183082,3.13000011444092
513.4339332,2.14000010490417
513.4495582,0.709999978542328
513.4651832,-1.33000004291534
513.4808082,-3.77999997138977
513.4964332,-5.55000019073486
513.5120582,-5.75
513.5276832,-4.80999994277954
513.5433082,-3.82999992370605
513.5589332,-3.48000001907349
513.5745582,-3.71000003814697
513.5901832,-4.1100001335144
513.6058082,-4.32999992370605
513.6214332,-4.51000022888184
513.6370582,-5.57999992370605
513.6526832,-8.52000045776367
513.6683082,-13.0600004196167
513.6839332,-18.1000003814697
513.6995582,-22.9400005340576
513.7151832,-27.3500003814697
513.7308082,-30.7000007629395
513.7464332,-31.9699993133545
513.7620582,-30.5100002288818
513.7776832,-26.8999996185303
513.7933082,-23.0400009155273
513.8089332,-21.2399997711182
513.8245582,-22.5900001525879
513.8401832,-26.1900005340576
513.8558082,-29.8500003814697
513.8714332,-31.5200004577637
513.8870582,-30.2099990844727
513.9026832,-26.0100002288818
513.9183082,-19.7700004577637
513.9339332,-12.7399997711182
513.9495582,-6.09000015258789
513.9651832,-0.519999980926514
513.9808082,3.61999988555908
513.9964332,6.23999977111816
514.0120582,7.28999996185303
514.0276832,7.07000017166138
514.0433082,6.3899998664856
514.0589332,6.57000017166138
514.0745582,8.8100004196167
514.0901832,13.5200004577637
514.1058082,20.3899993896484
514.1214332,29.0900001525879
514.1370582,39.4000015258789
514.1526832,50.1599998474121
514.1683082,59.1199989318848
514.1839332,64.3199996948242
514.1995582,65.5800018310547
514.2151832,64.3899993896484
514.2308082,62.4199981689453
514.2464332,60.4300003051758
514.2620582,58.4300003051758
514.2776832,56.2900009155273
514.2933082,54.0699996948242
514.3089332,51.9500007629395
514.3245582,50.1100006103516
514.3401832,48.810001373291
514.3558082,48.0400009155273
514.3714332,47.3300018310547
514.3870582,45.8800010681152
514.4026832,43.0299987792969
514.4183082,38.5299987792969
514.4339332,32.7900009155273
514.4495582,26.5799999237061
514.4651832,20.5300006866455
514.4808082,14.710000038147
514.4964332,8.93000030517578
514.5120582,3.25999999046326
514.5276832,-1.91999995708466
514.5433082,-6.32000017166138
514.5589332,-10.0600004196167
514.5745582,-13.6300001144409
514.5901832,-17.6299991607666
514.6058082,-22.2700004577637
514.6214332,-27.2199993133545
514.6370582,-31.8600006103516
514.6526832,-35.8300018310547
514.6683082,-39.2299995422363
514.6839332,-42.2700004577637
514.6995582,-44.8300018310547
514.7151832,-46.3899993896484
514.7308082,-46.5699996948242
514.7464332,-45.689998626709
514.7620582,-44.6399993896484
514.7776832,-44.2099990844727
514.7933082,-44.5699996948242
514.8089332,-45.3400001525879
514.8245582,-46.0
514.8401832,-46.1199989318848
514.8558082,-45.4500007629395
514.8714332,-44.0800018310547
514.8870582,-42.2700004577637
514.9026832,-40.2700004577637
514.9183082,-38.1800003051758
514.9339332,-36.0699996948242
514.9495582,-34.0299987792969
514.9651832,-32.2099990844727
514.9808082,-30.6299991607666
514.9964332,-29.1499996185303
515.0120582,-27.5599994659424
515.0276832,-25.7399997711182
515.0433082,-23.6499996185303
515.0589332,-21.2999992370605
515.0745582,-18.8099994659424
515.0901832,-16.3299999237061
515.1058082,-13.9799995422363
515.1214332,-11.8400001525879
515.1370582,-10.039999961853
515.1526832,-8.64999961853027
515.1683082,-7.44999980926514
515.1839332,-6.05999994277954
515.1995582,-4.40000009536743
515.2151832,-2.96000003814697
515.2308082,-2.28999996185303
515.2464332,-2.53999996185303
515.2620582,-3.34999990463257
515.2776832,-4.07000017166138
515.2933082,-4.19000005722046
515.3089332,-3.53999996185303
515.3245582,-2.22000002861023
515.3401832,-0.5
515.3558082,1.30999994277954
515.3714332,2.90000009536743
515.3870582,4.01999998092651
515.4026832,4.63000011444092
515.4183082,4.98000001907349
515.4339332,5.44000005722046
515.4495582,6.30999994277954
515.4651832,7.65999984741211
515.4808082,9.34000015258789
515.4964332,11.0100002288818
515.5120582,12.3500003814697
515.5276832,13.25
515.5433082,13.6899995803833
515.5589332,13.6700000762939
515.5745582,13.210000038147
515.5901832,12.5
515.6058082,12.0
515.6214332,12.25
515.6370582,13.6099996566772
515.6526832,15.9799995422363
515.6683082,19.0
515.6839332,22.2399997711182
515.6995582,25.2600002288818
515.7151832,27.6200008392334
515.7308082,29.0900001525879
515.7464332,29.5699996948242
515.7620582,29.0900001525879
515.7776832,27.6900005340576
515.7933082,25.5799999237061
515.8089332,23.2000007629395
515.8245582,21.0599994659424
515.8401832,19.5599994659424
515.8558082,18.7600002288818
515.8714332,18.3299999237061
515.8870582,17.8099994659424
515.9026832,16.9300003051758
515.9183082,15.8100004196167
515.9339332,14.789999961853
515.9495582,14.1300001144409
515.9651832,13.7600002288818
515.9808082,13.3500003814697
515.9964332,12.5600004196167
516.0120582,11.2799997329712
516.0276832,9.61999988555908
516.0433082,7.67000007629395
516.0589332,5.40999984741211
516.0745582,2.92000007629395
516.0901832,0.560000002384186
516.1058082,-1.04999995231628
516.1214332,-1.57000005245209
516.1370582,-1.0900000333786
516.1526832,-0.200000002980232
516.1683082,0.409999996423721
516.1839332,0.5
516.1995582,0.310000002384186
516.2151832,0.140000000596046
516.2308082,-0.100000001490116
516.2464332,-1.12999999523163
516.2620582,-4.46000003814697
516.2776832,-11.539999961853
516.2933082,-21.5300006866455
516.3089332,-30.6499996185303
516.3245582,-35.1500015258789
516.3401832,-34.7200012207031
516.3558082,-32.5299987792969
516.3714332,-32.0
516.3870582,-34.0699996948242
516.4026832,-37.3400001525879
516.4183082,-40.0499992370605
516.4339332,-41.3699989318848
516.4495582,-41.3499984741211
516.4651832,-40.1599998474121
516.4808082,-37.4900016784668
516.4964332,-32.6199989318848
516.5120582,-25.3199996948242
516.5276832,-16.5900001525879
516.5433082,-8.14999961853027
516.5589332,-1.27999997138977
516.5745582,3.8199999332428
516.5901832,7.92999982833862
516.6058082,11.8900003433228
516.6214332,16.0400009155273
516.6370582,20.1200008392334
516.6526832,23.7299995422363
516.6683082,26.6200008392334
516.6839332,28.7399997711182
516.6995582,30.25
516.7151832,31.6200008392334
516.7308082,33.4700012207031
516.7464332,36.1599998474121
516.7620582,39.439998626709
