Time(s),Value(%)
712.0137919,20.6599998474121
712.0294169,19.1200008392334
712.0450419,17.4200000762939
712.0606669,15.3400001525879
712.0762919,12.8100004196167
712.0919169,9.98999977111816
712.1075419,7.19000005722046
712.1231669,4.78999996185303
712.1387919,2.97000002861023
712.1544169,1.60000002384186
712.1700419,0.430000007152557
712.1856669,-0.759999990463257
712.2012919,-2.16000008583069
712.2169169,-3.8199999332428
712.2325419,-5.6100001335144
712.2481669,-7.26999998092651
712.2637919,-8.64000034332275
712.2794169,-9.73999977111816
712.2950419,-10.6499996185303
712.3106669,-11.4899997711182
712.3262919,-12.3900003433228
712.3419169,-13.3500003814697
712.3575419,-14.3199996948242
712.3731669,-15.1800003051758
712.3887919,-15.8000001907349
712.4044169,-16.0100002288818
712.4200419,-15.7799997329712
712.4356669,-15.2600002288818
712.4512919,-14.6599998474121
712.4669169,-14.1700000762939
712.4825419,-13.9099998474121
712.4981669,-13.8299999237061
712.5137919,-13.6800003051758
712.5294169,-13.1999998092651
712.5450419,-12.1499996185303
712.5606669,-10.2200002670288
712.5762919,-7.03000020980835
712.5919169,-2.21000003814697
712.6075419,4.21000003814697
712.6231669,11.539999961853
712.6387919,18.5400009155273
712.6544169,24.0699996948242
712.6700419,27.4599990844727
712.6856669,28.6100006103516
712.7012919,27.8700008392334
712.7169169,25.9500007629395
712.7325419,23.6200008392334
712.7481669,21.4300003051758
712.7637919,19.4899997711182
712.7794169,17.6000003814697
712.7950419,15.4799995422363
712.8106669,12.9499998092651
712.8262919,10.0900001525879
712.8419169,7.15999984741211
712.8575419,4.42999982833862
712.8731669,2.13000011444092
712.8887919,0.389999985694885
712.9044169,-0.75
712.9200419,-1.4099999666214
712.9356669,-1.88999998569489
712.9512919,-2.52999997138977
712.9669169,-3.55999994277954
712.9825419,-4.98000001907349
712.9981669,-6.59000015258789
713.0137919,-8.11999988555908
713.0294169,-9.38000011444092
713.0450419,-10.289999961853
713.0606669,-10.8900003433228
713.0762919,-11.2600002288818
713.0919169,-11.5799999237061
713.1075419,-11.960000038147
713.1231669,-12.4099998474121
713.1387919,-12.789999961853
713.1544169,-12.9200000762939
713.1700419,-12.6800003051758
713.1856669,-12.0699996948242
713.2012919,-11.2700004577637
713.2169169,-10.4899997711182
713.2325419,-9.77000045776367
713.2481669,-8.93000030517578
713.2637919,-7.69999980926514
713.2794169,-5.82999992370605
713.2950419,-2.91000008583069
713.3106669,1.3400000333786
713.3262919,6.84999990463257
713.3419169,12.9300003051758
713.3575419,18.5
713.3731669,22.3999996185303
713.3887919,23.8600006103516
713.4044169,22.8500003814697
713.4200419,20.3600006103516
713.4356669,17.8500003814697
713.4512919,16.4200000762939
713.4669169,16.1299991607666
713.4825419,16.1100006103516
713.4981669,15.2399997711182
713.5137919,12.9899997711182
713.5294169,9.77999973297119
713.5450419,6.65000009536743
713.5606669,4.5
713.5762919,3.71000003814697
713.5919169,4.28000020980835
713.6075419,6.01999998092651
713.6231669,8.36999988555908
713.6387919,10.1700000762939
713.6544169,9.92000007629395
713.6700419,6.67999982833862
713.6856669,0.600000023841858
713.7012919,-7.07000017166138
713.7169169,-14.6099996566772
713.7325419,-20.4200000762939
713.7481669,-23.6399993896484
713.7637919,-24.5200004577637
713.7794169,-24.1800003051758
713.7950419,-24.1800003051758
713.8106669,-25.5499992370605
713.8262919,-28.1000003814697
713.8419169,-30.6700000762939
713.8575419,-32.2400016784668
713.8731669,-32.4500007629395
713.8887919,-31.5799999237061
713.9044169,-30.1299991607666
713.9200419,-28.7000007629395
713.9356669,-27.6000003814697
713.9512919,-26.5799999237061
713.9669169,-24.8199996948242
713.9825419,-21.3199996948242
713.9981669,-15.5100002288818
714.0137919,-7.73000001907349
714.0294169,0.819999992847443
714.0450419,8.52000045776367
714.0606669,13.9799995422363
714.0762919,16.7000007629395
714.0919169,17.2000007629395
714.1075419,16.6900005340576
714.1231669,16.2900009155273
714.1387919,16.5100002288818
714.1544169,17.3199996948242
714.1700419,18.3999996185303
714.1856669,19.3700008392334
714.2012919,19.8500003814697
714.2169169,19.6000003814697
714.2325419,18.5300006866455
714.2481669,16.8799991607666
714.2637919,15.1099996566772
714.2794169,13.8400001525879
714.2950419,13.4399995803833
714.3106669,13.710000038147
714.3262919,14.0100002288818
714.3419169,13.6999998092651
714.3575419,12.6199998855591
714.3731669,11.0699996948242
714.3887919,9.64000034332275
714.4044169,8.72000026702881
714.4200419,8.38000011444092
714.4356669,8.30000019073486
714.4512919,7.98000001907349
714.4669169,7.01000022888184
714.4825419,5.34999990463257
714.4981669,3.47000002861023
714.5137919,2.02999997138977
714.5294169,1.37000000476837
714.5450419,1.24000000953674
714.5606669,1.02999997138977
714.5762919,0.25
714.5919169,-1.02999997138977
714.6075419,-2.38000011444092
714.6231669,-2.98000001907349
714.6387919,-1.94000005722046
714.6544169,1.24000000953674
714.6700419,6.34999990463257
714.6856669,12.4799995422363
714.7012919,18.4599990844727
714.7169169,23.3199996948242
714.7325419,26.4300003051758
714.7481669,27.6000003814697
714.7637919,27.1200008392334
714.7794169,25.6599998474121
714.7950419,23.9799995422363
714.8106669,22.5400009155273
714.8262919,21.3999996185303
714.8419169,20.3899993896484
714.8575419,19.2000007629395
714.8731669,17.3299999237061
714.8887919,14.210000038147
714.9044169,9.75
714.9200419,4.59000015258789
714.9356669,-0.230000004172325
714.9512919,-4.05999994277954
714.9669169,-6.98999977111816
714.9825419,-9.5600004196167
714.9981669,-12.1899995803833
715.0137919,-14.8900003433228
715.0294169,-17.2900009155273
715.0450419,-19.1200008392334
715.0606669,-20.4799995422363
715.0762919,-21.8199996948242
715.0919169,-23.4899997711182
715.1075419,-25.5499992370605
715.1231669,-27.75
715.1387919,-29.6200008392334
715.1544169,-30.7999992370605
715.1700419,-31.2000007629395
715.1856669,-31.1000003814697
715.2012919,-30.8899993896484
715.2169169,-30.8899993896484
715.2325419,-31.1900005340576
715.2481669,-31.6000003814697
715.2637919,-31.7700004577637
715.2794169,-31.3600006103516
715.2950419,-30.0699996948242
715.3106669,-27.5699996948242
715.3262919,-23.4400005340576
715.3419169,-17.5599994659424
715.3575419,-10.3100004196167
715.3731669,-2.63000011444092
715.3887919,4.30999994277954
715.4044169,9.5600004196167
715.4200419,12.6700000762939
715.4356669,13.9200000762939
715.4512919,13.9799995422363
715.4669169,13.4399995803833
715.4825419,12.710000038147
715.4981669,11.9499998092651
715.5137919,11.1899995803833
715.5294169,10.1599998474121
715.5450419,8.53999996185303
715.5606669,6.26999998092651
715.5762919,3.72000002861023
715.5919169,1.44000005722046
715.6075419,-0.200000002980232
715.6231669,-1.33000004291534
715.6387919,-2.34999990463257
715.6544169,-3.55999994277954
715.6700419,-5.01999998092651
715.6856669,-6.65000009536743
715.7012919,-8.25
715.7169169,-9.56999969482422
715.7325419,-10.4300003051758
715.7481669,-10.8199996948242
715.7637919,-10.7600002288818
715.7794169,-10.3100004196167
715.7950419,-9.60000038146973
715.8106669,-8.89999961853027
715.8262919,-8.57999992370605
715.8419169,-8.71000003814697
715.8575419,-8.81999969482422
715.8731669,-8.06999969482422
715.8887919,-5.90999984741211
715.9044169,-2.65000009536743
715.9200419,0.870000004768372
715.9356669,4.0
715.9512919,6.6100001335144
715.9669169,9.09000015258789
715.9825419,11.8000001907349
715.9981669,14.7600002288818
716.0137919,17.7099990844727
716.0294169,20.3400001525879
716.0450419,22.4899997711182
716.0606669,24.0300006866455
716.0762919,24.7199993133545
716.0919169,24.4300003051758
716.1075419,23.3500003814697
716.1231669,21.9899997711182
716.1387919,20.7399997711182
716.1544169,19.6200008392334
716.1700419,18.3099994659424
716.1856669,16.4699993133545
716.2012919,14.1300001144409
716.2169169,11.7299995422363
716.2325419,9.69999980926514
716.2481669,8.18000030517578
716.2637919,6.96000003814697
716.2794169,5.80000019073486
716.2950419,4.46999979019165
716.3106669,2.79999995231628
716.3262919,0.75
716.3419169,-1.5900000333786
716.3575419,-4.15000009536743
716.3731669,-6.88000011444092
716.3887919,-9.69999980926514
716.4044169,-12.3999996185303
716.4200419,-14.75
716.4356669,-16.5799999237061
716.4512919,-17.7800006866455
716.4669169,-18.3500003814697
716.4825419,-18.4799995422363
716.4981669,-18.5
716.5137919,-18.6599998474121
716.5294169,-18.9799995422363
716.5450419,-19.3400001525879
716.5606669,-19.5699996948242
716.5762919,-19.5400009155273
716.5919169,-19.0200004577637
716.6075419,-17.6599998474121
716.6231669,-15.0600004196167
716.6387919,-11.0900001525879
716.6544169,-6.03000020980835
716.6700419,-0.660000026226044
716.6856669,4.1399998664856
716.7012919,7.84999990463257
716.7169169,10.4499998092651
716.7325419,12.1099996566772
716.7481669,12.7700004577637
716.7637919,12.3500003814697
716.7794169,11.1300001144409
716.7950419,9.77000045776367
716.8106669,8.82999992370605
716.8262919,8.28999996185303
716.8419169,7.67000007629395
716.8575419,6.53999996185303
716.8731669,4.84999990463257
716.8887919,3.00999999046326
716.9044169,1.70000004768372
716.9200419,1.37999999523163
716.9356669,2.09999990463257
716.9512919,3.45000004768372
716.9669169,4.90999984741211
716.9825419,6.03999996185303
716.9981669,6.53999996185303
717.0137919,6.32999992370605
717.0294169,5.63000011444092
717.0450419,4.78000020980835
717.0606669,4.03000020980835
717.0762919,3.5
717.0919169,3.17000007629395
717.1075419,2.75999999046326
717.1231669,1.95000004768372
717.1387919,0.680000007152557
717.1544169,-0.870000004768372
717.1700419,-2.44000005722046
717.1856669,-3.79999995231628
717.2012919,-4.84000015258789
717.2169169,-5.5
717.2325419,-5.57000017166138
717.2481669,-4.69000005722046
717.2637919,-2.41000008583069
717.2794169,1.58000004291534
717.2950419,7.15999984741211
717.3106669,13.539999961853
717.3262919,19.4400005340576
717.3419169,23.7600002288818
717.3575419,26.0100002288818
717.3731669,26.3899993896484
717.3887919,25.5400009155273
717.4044169,24.1599998474121
717.4200419,22.7299995422363
717.4356669,21.3600006103516
717.4512919,19.8899993896484
717.4669169,17.9200000762939
717.4825419,15.1400003433228
717.4981669,11.6099996566772
717.5137919,7.73999977111816
717.5294169,4.05000019073486
717.5450419,0.910000026226044
717.5606669,-1.62000000476837
717.5762919,-3.70000004768372
717.5919169,-5.5
717.6075419,-7.15999984741211
717.6231669,-8.72999954223633
717.6387919,-10.3100004196167
717.6544169,-11.9799995422363
717.6700419,-13.75
717.6856669,-15.4799995422363
717.7012919,-16.9699993133545
717.7169169,-18.1700000762939
717.7325419,-19.1599998474121
717.7481669,-20.0599994659424
717.7637919,-20.9200000762939
717.7794169,-21.6700000762939
717.7950419,-22.25
717.8106669,-22.5699996948242
717.8262919,-22.5699996948242
717.8419169,-22.1399993896484
717.8575419,-21.1399993896484
717.8731669,-19.4200000762939
717.8887919,-16.7399997711182
717.9044169,-12.7200002670288
717.9200419,-7.19999980926514
717.9356669,-0.740000009536743
717.9512919,5.55999994277954
717.9669169,10.7600002288818
717.9825419,14.4300003051758
717.9981669,16.5300006866455
718.0137919,17.2800006866455
718.0294169,16.9899997711182
718.0450419,16.1800003051758
718.0606669,15.3599996566772
718.0762919,14.6099996566772
718.0919169,13.5
718.1075419,11.539999961853
718.1231669,8.64000034332275
718.1387919,5.17999982833862
718.1544169,1.73000001907349
718.1700419,-1.33000004291534
718.1856669,-3.92000007629395
718.2012919,-6.03000020980835
718.2169169,-7.61999988555908
718.2325419,-8.72999954223633
718.2481669,-9.57999992370605
718.2637919,-10.5
718.2794169,-11.710000038147
718.2950419,-13.1899995803833
718.3106669,-14.6899995803833
718.3262919,-15.8400001525879
718.3419169,-16.3299999237061
718.3575419,-16.1000003814697
718.3731669,-15.5299997329712
718.3887919,-15.2200002670288
718.4044169,-15.460000038147
718.4200419,-15.8900003433228
718.4356669,-15.8599996566772
718.4512919,-14.9200000762939
718.4669169,-12.9499998092651
718.4825419,-10.0200004577637
718.4981669,-6.30000019073486
718.5137919,-1.87999999523163
718.5294169,3.3199999332428
718.5450419,9.39000034332275
718.5606669,15.9799995422363
718.5762919,22.2600002288818
718.5919169,27.2600002288818
718.6075419,30.4300003051758
718.6231669,31.7199993133545
718.6387919,31.4200000762939
718.6544169,30.1000003814697
718.6700419,28.3799991607666
718.6856669,26.5799999237061
718.7012919,24.6599998474121
718.7169169,22.2700004577637
718.7325419,19.0300006866455
718.7481669,14.9200000762939
718.7637919,10.3699998855591
718.7794169,6.03999996185303
718.7950419,2.35999989509583
718.8106669,-0.540000021457672
718.8262919,-2.82999992370605
718.8419169,-4.73999977111816
718.8575419,-6.53999996185303
718.8731669,-8.39000034332275
718.8887919,-10.3100004196167
718.9044169,-12.2799997329712
718.9200419,-14.2700004577637
718.9356669,-16.1900005340576
718.9512919,-17.9699993133545
718.9669169,-19.5300006866455
718.9825419,-20.8899993896484
718.9981669,-22.1499996185303
719.0137919,-23.3799991607666
719.0294169,-24.5300006866455
719.0450419,-25.5
719.0606669,-26.3099994659424
719.0762919,-26.9300003051758
719.0919169,-27.2399997711182
719.1075419,-27.0400009155273
719.1231669,-25.9400005340576
719.1387919,-23.4500007629395
719.1544169,-19.1599998474121
719.1700419,-13.0699996948242
719.1856669,-5.80999994277954
719.2012919,1.57000005245209
719.2169169,8.07999992370605
719.2325419,13.0500001907349
719.2481669,16.3500003814697
719.2637919,18.2900009155273
719.2794169,19.3400001525879
719.2950419,19.8999996185303
719.3106669,20.1800003051758
719.3262919,20.1499996185303
719.3419169,19.6100006103516
719.3575419,18.3400001525879
719.3731669,16.2299995422363
719.3887919,13.4099998474121
719.4044169,10.1700000762939
719.4200419,6.88000011444092
719.4356669,3.91000008583069
719.4512919,1.49000000953674
719.4669169,-0.319999992847443
719.4825419,-1.55999994277954
719.4981669,-2.39000010490417
719.5137919,-3.03999996185303
719.5294169,-3.80999994277954
719.5450419,-4.8600001335144
719.5606669,-6.17999982833862
719.5762919,-7.71000003814697
719.5919169,-9.39000034332275
719.6075419,-11.1000003814697
719.6231669,-12.6099996566772
719.6387919,-13.6000003814697
719.6544169,-13.960000038147
719.6700419,-13.8900003433228
719.6856669,-13.710000038147
719.7012919,-13.5799999237061
719.7169169,-13.4499998092651
719.7325419,-13.2700004577637
719.7481669,-12.8999996185303
719.7637919,-12.25
719.7794169,-11.0799999237061
719.7950419,-8.94999980926514
719.8106669,-5.30999994277954
719.8262919,0.109999999403954
719.8419169,6.96000003814697
719.8575419,14.2600002288818
719.8731669,20.8400001525879
719.8887919,25.9099998474121
719.9044169,29.3199996948242
719.9200419,31.3600006103516
719.9356669,32.3800010681152
719.9512919,32.6100006103516
719.9669169,32.2299995422363
719.9825419,31.3400001525879
719.9981669,29.9099998474121
720.0137919,27.8400001525879
720.0294169,25.0499992370605
720.0450419,21.6000003814697
720.0606669,17.7399997711182
720.0762919,13.8500003814697
720.0919169,10.289999961853
720.1075419,7.28000020980835
720.1231669,4.80999994277954
720.1387919,2.72000002861023
720.1544169,0.850000023841858
720.1700419,-0.870000004768372
720.1856669,-2.49000000953674
720.2012919,-4.05999994277954
720.2169169,-5.6399998664856
720.2325419,-7.30999994277954
720.2481669,-9.01000022888184
720.2637919,-10.5900001525879
720.2794169,-11.9399995803833
720.2950419,-13.1300001144409
720.3106669,-14.289999961853
720.3262919,-15.5100002288818
720.3419169,-16.6700000762939
720.3575419,-17.5400009155273
720.3731669,-17.9799995422363
720.3887919,-18.0499992370605
720.4044169,-17.9599990844727
720.4200419,-17.8600006103516
720.4356669,-17.8199996948242
720.4512919,-17.7399997711182
720.4669169,-17.4899997711182
720.4825419,-16.8400001525879
720.4981669,-15.3000001907349
720.5137919,-12.3000001907349
720.5294169,-7.57999992370605
720.5450419,-1.5900000333786
720.5606669,4.78999996185303
720.5762919,10.9399995803833
720.5919169,16.5100002288818
720.6075419,21.1200008392334
720.6231669,24.3199996948242
720.6387919,25.9699993133545
720.6544169,26.2900009155273
720.6700419,25.6900005340576
720.6856669,24.5900001525879
720.7012919,23.3099994659424
720.7169169,21.8700008392334
720.7325419,20.0900001525879
720.7481669,17.75
720.7637919,14.8000001907349
720.7794169,11.3999996185303
720.7950419,7.86999988555908
720.8106669,4.57000017166138
720.8262919,1.77999997138977
720.8419169,-0.349999994039536
720.8575419,-1.88999998569489
720.8731669,-3.03999996185303
720.8887919,-4.09999990463257
720.9044169,-5.32000017166138
720.9200419,-6.84999990463257
720.9356669,-8.6899995803833
720.9512919,-10.6499996185303
720.9669169,-12.4399995803833
720.9825419,-13.8800001144409
720.9981669,-15.0600004196167
721.0137919,-16.1499996185303
721.0294169,-17.25
721.0450419,-18.2399997711182
721.0606669,-18.9899997711182
721.0762919,-19.4400005340576
721.0919169,-19.6599998474121
721.1075419,-19.7399997711182
721.1231669,-19.75
721.1387919,-19.7199993133545
721.1544169,-19.6900005340576
721.1700419,-19.4400005340576
721.1856669,-18.3099994659424
721.2012919,-15.4799995422363
721.2169169,-10.539999961853
721.2325419,-3.78999996185303
721.2481669,3.79999995231628
721.2637919,11.0299997329712
721.2794169,16.8400001525879
721.2950419,20.6900005340576
721.3106669,22.6200008392334
721.3262919,23.0400009155273
721.3419169,22.4500007629395
721.3575419,21.3700008392334
721.3731669,20.1900005340576
721.3887919,19.0699996948242
721.4044169,17.8600006103516
721.4200419,16.1599998474121
721.4356669,13.5799999237061
721.4512919,10.0699996948242
721.4669169,6.09999990463257
721.4825419,2.48000001907349
721.4981669,-0.119999997317791
721.5137919,-1.57000005245209
721.5294169,-2.3199999332428
721.5450419,-2.99000000953674
721.5606669,-3.97000002861023
721.5762919,-5.26999998092651
721.5919169,-6.78999996185303
721.6075419,-8.38000011444092
721.6231669,-10.0
721.6387919,-11.6199998855591
721.6544169,-13.210000038147
721.6700419,-14.7600002288818
721.6856669,-16.2099990844727
721.7012919,-17.3600006103516
721.7169169,-18.0200004577637
721.7325419,-18.2600002288818
721.7481669,-18.2700004577637
721.7637919,-18.2299995422363
721.7794169,-18.2700004577637
721.7950419,-18.3899993896484
721.8106669,-18.4400005340576
721.8262919,-17.9699993133545
721.8419169,-16.2199993133545
721.8575419,-12.5299997329712
721.8731669,-6.76000022888184
721.8887919,0.46000000834465
721.9044169,8.03999996185303
721.9200419,14.8599996566772
721.9356669,20.1200008392334
721.9512919,23.4899997711182
721.9669169,24.9899997711182
721.9825419,24.9099998474121
721.9981669,23.75
722.0137919,22.0400009155273
722.0294169,20.1900005340576
722.0450419,18.5
722.0606669,17.1499996185303
722.0762919,16.0300006866455
722.0919169,14.7799997329712
722.1075419,13.1999998092651
722.1231669,11.4099998474121
722.1387919,9.68000030517578
722.1544169,8.15999984741211
722.1700419,6.84999990463257
722.1856669,5.73000001907349
722.2012919,4.71000003814697
722.2169169,3.8199999332428
722.2325419,3.1800000667572
722.2481669,2.72000002861023
722.2637919,2.11999988555908
722.2794169,1.10000002384186
722.2950419,-0.180000007152557
722.3106669,-1.36000001430511
722.3262919,-2.22000002861023
722.3419169,-2.84999990463257
722.3575419,-3.26999998092651
722.3731669,-3.24000000953674
722.3887919,-2.6800000667572
722.4044169,-2.01999998092651
722.4200419,-2.07999992370605
722.4356669,-3.40000009536743
722.4512919,-5.67999982833862
722.4669169,-7.78000020980835
722.4825419,-8.31999969482422
722.4981669,-6.26000022888184
722.5137919,-1.45000004768372
722.5294169,5.23999977111816
722.5450419,12.4099998474121
722.5606669,18.6299991607666
722.5762919,22.9599990844727
722.5919169,25.1100006103516
722.6075419,25.3199996948242
722.6231669,24.1599998474121
722.6387919,22.2299995422363
722.6544169,19.9899997711182
722.6700419,17.6499996185303
722.6856669,15.1700000762939
722.7012919,12.4300003051758
722.7169169,9.22999954223633
722.7325419,5.46000003814697
722.7481669,1.22000002861023
