Time(s),Value(%)
1736.0071752,-53.0800018310547
1736.0228002,-52.8600006103516
1736.0384252,-52.0999984741211
1736.0540502,-51.1100006103516
1736.0696752,-50.0400009155273
1736.0853002,-48.8199996948242
1736.1009252,-47.4500007629395
1736.1165502,-46.0400009155273
1736.1321752,-44.5900001525879
1736.1478002,-42.8600006103516
1736.1634252,-40.4099998474121
1736.1790502,-36.6300010681152
1736.1946752,-30.0900001525879
1736.2103002,-18.2800006866455
1736.2259252,0.560000002384186
1736.2415502,25.0100002288818
1736.2571752,50.3199996948242
1736.2728002,71.0800018310547
1736.2884252,83.9700012207031
1736.3040502,88.6900024414063
1736.3196752,87.2600021362305
1736.3353002,82.4599990844727
1736.3509252,76.6500015258789
1736.3665502,71.0599975585938
1736.3821752,65.7099990844727
1736.3978002,59.7999992370605
1736.4134252,52.4700012207031
1736.4290502,43.4099998474121
1736.4446752,33.0
1736.4603002,22.0900001525879
1736.4759252,11.7700004577637
1736.4915502,3.02999997138977
1736.5071752,-3.59999990463257
1736.5228002,-8.22999954223633
1736.5384252,-11.4799995422363
1736.5540502,-14.2200002670288
1736.5696752,-17.1800003051758
1736.5853002,-20.6499996185303
1736.6009252,-24.6200008392334
1736.6165502,-28.9500007629395
1736.6321752,-33.4099998474121
1736.6478002,-37.7200012207031
1736.6634252,-41.5999984741211
1736.6790502,-44.8300018310547
1736.6946752,-47.3800010681152
1736.7103002,-49.5
1736.7259252,-51.5400009155273
1736.7415502,-53.4599990844727
1736.7571752,-54.6800003051758
1736.7728002,-54.6500015258789
1736.7884252,-53.3499984741211
1736.8040502,-51.3800010681152
1736.8196752,-49.4300003051758
1736.8353002,-47.7900009155273
1736.8509252,-46.3400001525879
1736.8665502,-44.7599983215332
1736.8821752,-42.75
1736.8978002,-40.0999984741211
1736.9134252,-36.5699996948242
1736.9290502,-31.3700008392334
1736.9446752,-22.1000003814697
1736.9603002,-5.21000003814697
1736.9759252,20.7399997711182
1736.9915502,52.2599983215332
1737.0071752,82.3000030517578
1737.0228002,104.360000610352
1737.0384252,115.569999694824
1737.0540502,117.059997558594
1737.0696752,112.400001525879
1737.0853002,105.449996948242
1737.1009252,98.9300003051758
1737.1165502,93.7600021362305
1737.1321752,89.0800018310547
1737.1478002,83.25
1737.1634252,75.0699996948242
1737.1790502,64.4000015258789
1737.1946752,52.1599998474121
1737.2103002,39.6599998474121
1737.2259252,28.0
1737.2415502,17.7399997711182
1737.2571752,8.97999954223633
1737.2728002,1.57000005245209
1737.2884252,-4.73000001907349
1737.3040502,-10.2700004577637
1737.3196752,-15.4099998474121
1737.3353002,-20.5499992370605
1737.3509252,-25.9099998474121
1737.3665502,-31.4099998474121
1737.3821752,-36.689998626709
1737.3978002,-41.3800010681152
1737.4134252,-45.3300018310547
1737.4290502,-48.7400016784668
1737.4446752,-52.060001373291
1737.4603002,-55.7999992370605
1737.4759252,-60.1599998474121
1737.4915502,-64.7300033569336
1737.5071752,-68.7099990844727
1737.5228002,-71.4400024414063
1737.5384252,-72.7099990844727
1737.5540502,-72.8000030517578
1737.5696752,-72.1399993896484
1737.5853002,-71.0299987792969
1737.6009252,-69.6699981689453
1737.6165502,-68.1399993896484
1737.6321752,-66.3399963378906
1737.6478002,-63.9700012207031
1737.6634252,-60.7299995422363
1737.6790502,-56.3699989318848
1737.6946752,-49.9300003051758
1737.7103002,-39.1300010681152
1737.7259252,-21.5
1737.7415502,3.11999988555908
1737.7571752,31.5699996948242
1737.7728002,58.6100006103516
1737.7884252,79.629997253418
1737.8040502,92.4499969482422
1737.8196752,97.6500015258789
1737.8353002,97.5199966430664
1737.8509252,94.7399978637695
1737.8665502,91.2099990844727
1737.8821752,87.4300003051758
1737.8978002,82.870002746582
1737.9134252,76.870002746582
1737.9290502,69.1900024414063
1737.9446752,60.1599998474121
1737.9603002,50.3600006103516
1737.9759252,40.310001373291
1737.9915502,30.3899993896484
1738.0071752,20.7700004577637
1738.0228002,11.4899997711182
1738.0384252,2.63000011444092
1738.0540502,-5.63000011444092
1738.0696752,-13.0699996948242
1738.0853002,-19.4500007629395
1738.1009252,-24.4500007629395
1738.1165502,-28.0599994659424
1738.1321752,-30.8400001525879
1738.1478002,-33.7200012207031
1738.1634252,-37.3199996948242
1738.1790502,-41.7099990844727
1738.1946752,-46.5699996948242
1738.2103002,-51.5499992370605
1738.2259252,-56.2999992370605
1738.2415502,-60.4599990844727
1738.2571752,-63.7599983215332
1738.2728002,-66.1100006103516
1738.2884252,-67.5800018310547
1738.3040502,-68.4000015258789
1738.3196752,-68.9000015258789
1738.3353002,-69.3499984741211
1738.3509252,-69.9300003051758
1738.3665502,-70.620002746582
1738.3821752,-71.0400009155273
1738.3978002,-70.6399993896484
1738.4134252,-69.0400009155273
1738.4290502,-66.0100021362305
1738.4446752,-60.8800010681152
1738.4603002,-51.4599990844727
1738.4759252,-33.8400001525879
1738.4915502,-4.65999984741211
1738.5071752,35.060001373291
1738.5228002,78.5
1738.5384252,116.129997253418
1738.5540502,140.979995727539
1738.5696752,151.399993896484
1738.5853002,150.410003662109
1738.6009252,142.949996948242
1738.6165502,133.410003662109
1738.6321752,124.339996337891
1738.6478002,116.430000305176
1738.6634252,109.059997558594
1738.6790502,101.169998168945
1738.6946752,91.9300003051758
1738.7103002,80.9499969482422
1738.7259252,68.3199996948242
1738.7415502,54.5800018310547
1738.7571752,40.6599998474121
1738.7728002,27.6000003814697
1738.7884252,15.9899997711182
1738.8040502,5.90999984741211
1738.8196752,-2.99000000953674
1738.8353002,-11.289999961853
1738.8509252,-19.5799999237061
1738.8665502,-28.3600006103516
1738.8821752,-37.7400016784668
1738.8978002,-47.0999984741211
1738.9134252,-55.4199981689453
1738.9290502,-61.9300003051758
1738.9446752,-66.5
1738.9603002,-69.5899963378906
1738.9759252,-71.8099975585938
1738.9915502,-73.379997253418
1739.0071752,-73.9199981689453
1739.0228002,-73.0500030517578
1739.0384252,-70.8199996948242
1739.0540502,-67.6999969482422
1739.0696752,-64.2099990844727
1739.0853002,-60.6199989318848
1739.1009252,-56.8300018310547
1739.1165502,-52.8699989318848
1739.1321752,-49.4799995422363
1739.1478002,-47.6800003051758
1739.1634252,-47.7999992370605
1739.1790502,-49.25
1739.1946752,-50.7700004577637
1739.2103002,-50.6199989318848
1739.2259252,-45.9500007629395
1739.2415502,-33.1599998474121
1739.2571752,-10.3000001907349
1739.2728002,20.1399993896484
1739.2884252,51.8699989318848
1739.3040502,78.1399993896484
1739.3196752,94.8899993896484
1739.3353002,101.849998474121
1739.3509252,101.540000915527
1739.3665502,97.5
1739.3821752,92.8099975585938
1739.3978002,89.0699996948242
1739.4134252,86.0400009155273
1739.4290502,82.1100006103516
1739.4446752,75.4899978637695
1739.4603002,65.379997253418
1739.4759252,52.4500007629395
1739.4915502,38.4199981689453
1739.5071752,25.0200004577637
1739.5228002,13.1099996566772
1739.5384252,2.58999991416931
1739.5540502,-7.07999992370605
1739.5696752,-16.2700004577637
1739.5853002,-24.8400001525879
1739.6009252,-32.25
1739.6165502,-37.810001373291
1739.6321752,-40.9099998474121
1739.6478002,-41.2000007629395
1739.6634252,-38.6399993896484
1739.6790502,-33.8899993896484
1739.6946752,-28.4899997711182
1739.7103002,-24.2199993133545
1739.7259252,-22.0599994659424
1739.7415502,-21.9699993133545
1739.7571752,-23.4699993133545
1739.7728002,-26.0400009155273
1739.7884252,-29.1299991607666
1739.8040502,-32.2200012207031
1739.8196752,-34.9500007629395
1739.8353002,-37.6100006103516
1739.8509252,-40.8199996948242
1739.8665502,-44.4199981689453
1739.8821752,-46.5299987792969
1739.8978002,-44.25
1739.9134252,-35.7999992370605
1739.9290502,-22.0400009155273
1739.9446752,-6.05000019073486
1739.9603002,8.56999969482422
1739.9759252,19.3899993896484
1739.9915502,25.7900009155273
1740.0071752,28.7199993133545
1740.0228002,29.6299991607666
1740.0384252,29.4699993133545
1740.0540502,28.2299995422363
1740.0696752,25.3799991607666
1740.0853002,21.0200004577637
1740.1009252,16.2800006866455
1740.1165502,12.6599998474121
1740.1321752,10.9099998474121
1740.1478002,10.7200002670288
1740.1634252,11.1199998855591
1740.1790502,11.0299997329712
1740.1946752,9.98999977111816
1740.2103002,8.47999954223633
1740.2259252,7.55000019073486
1740.2415502,7.98999977111816
1740.2571752,9.57999992370605
1740.2728002,11.1999998092651
1740.2884252,11.710000038147
1740.3040502,10.8900003433228
1740.3196752,8.9399995803833
1740.3353002,5.40999984741211
1740.3509252,-0.490000009536743
1740.3665502,-8.97999954223633
1740.3821752,-19.3299999237061
1740.3978002,-30.5499992370605
1740.4134252,-42.0900001525879
1740.4290502,-54.0999984741211
1740.4446752,-66.8199996948242
1740.4603002,-78.1500015258789
1740.4759252,-80.6399993896484
1740.4915502,-64.4400024414063
1740.5071752,-28.2900009155273
1740.5228002,13.6400003433228
1740.5384252,40.1399993896484
1740.5540502,38.9599990844727
1740.5696752,15.6599998474121
1740.5853002,-11.1700000762939
1740.6009252,-22.6100006103516
1740.6165502,-10.5200004577637
1740.6321752,19.2099990844727
1740.6478002,51.3600006103516
1740.6634252,70.6399993896484
1740.6790502,70.1100006103516
1740.6946752,53.1599998474121
1740.7103002,28.8600006103516
1740.7259252,5.11999988555908
1740.7415502,-15.3199996948242
1740.7571752,-33.439998626709
1740.7728002,-49.4300003051758
1740.7884252,-60.7700004577637
1740.8040502,-64.5500030517578
1740.8196752,-60.2400016784668
1740.8353002,-50.1100006103516
1740.8509252,-37.6100006103516
1740.8665502,-25.6000003814697
1740.8821752,-15.3999996185303
1740.8978002,-6.86999988555908
1740.9134252,0.660000026226044
1740.9290502,7.78999996185303
1740.9446752,14.9300003051758
1740.9603002,21.7900009155273
1740.9759252,25.7099990844727
1740.9915502,21.8899993896484
1741.0071752,7.28000020980835
1741.0228002,-15.4700002670288
1741.0384252,-39.2999992370605
1741.0540502,-57.5999984741211
1741.0696752,-67.0999984741211
1741.0853002,-66.4400024414063
1741.1009252,-54.1599998474121
1741.1165502,-28.8299999237061
1741.1321752,9.05000019073486
1741.1478002,55.6300010681152
1741.1634252,104.550003051758
1741.1790502,149.330001831055
1741.1946752,184.690002441406
1741.2103002,207.360000610352
1741.2259252,217.529998779297
1741.2415502,219.320007324219
1741.2571752,218.210006713867
1741.2728002,216.470001220703
1741.2884252,211.669998168945
1741.3040502,199.669998168945
1741.3196752,177.839996337891
1741.3353002,146.0
1741.3509252,105.940002441406
1741.3665502,60.9799995422363
1741.3821752,15.1300001144409
1741.3978002,-27.4400005340576
1741.4134252,-62.8800010681152
1741.4290502,-88.8399963378906
1741.4446752,-105.870002746582
1741.4603002,-117.230003356934
1741.4759252,-126.940002441406
1741.4915502,-136.660003662109
1741.5071752,-143.889999389648
1741.5228002,-144.240005493164
1741.5384252,-135.949996948242
1741.5540502,-122.300003051758
1741.5696752,-109.620002746582
1741.5853002,-103.150001525879
1741.6009252,-104.089996337891
1741.6165502,-109.680000305176
1741.6321752,-115.800003051758
1741.6478002,-119.569999694824
1741.6634252,-120.629997253418
1741.6790502,-120.430000305176
1741.6946752,-120.23999786377
1741.7103002,-119.129997253418
1741.7259252,-113.809997558594
1741.7415502,-101.01000213623
1741.7571752,-80.120002746582
1741.7728002,-53.4799995422363
1741.7884252,-24.9699993133545
1741.8040502,1.01999998092651
1741.8196752,20.75
1741.8353002,32.5400009155273
1741.8509252,37.3699989318848
1741.8665502,37.8400001525879
1741.8821752,36.3199996948242
1741.8978002,33.7799987792969
1741.9134252,30.4099998474121
1741.9290502,27.0
1741.9446752,26.1200008392334
1741.9603002,32.7200012207031
1741.9759252,51.3600006103516
1741.9915502,81.6500015258789
1742.0071752,117.319999694824
1742.0228002,148.970001220703
1742.0384252,168.240005493164
1742.0540502,171.619995117188
1742.0696752,161.179992675781
1742.0853002,141.789993286133
1742.1009252,117.879997253418
1742.1165502,92.2200012207031
1742.1321752,66.0299987792969
1742.1478002,39.0499992370605
1742.1634252,10.539999961853
1742.1790502,-18.2299995422363
1742.1946752,-43.4599990844727
1742.2103002,-61.4099998474121
1742.2259252,-71.9700012207031
1742.2415502,-80.129997253418
1742.2571752,-92.6600036621094
1742.2728002,-111.379997253418
1742.2884252,-130.789993286133
1742.3040502,-142.399993896484
1742.3196752,-139.410003662109
1742.3353002,-118.110000610352
1742.3509252,-78.1399993896484
1742.3665502,-24.0499992370605
1742.3821752,33.0099983215332
1742.3978002,78.3600006103516
1742.4134252,102.470001220703
1742.4290502,108.339996337891
1742.4446752,109.480003356934
1742.4603002,119.129997253418
1742.4759252,140.669998168945
1742.4915502,166.520004272461
1742.5071752,183.649993896484
1742.5228002,181.509994506836
1742.5384252,158.820007324219
1742.5540502,124.050003051758
1742.5696752,88.1800003051758
1742.5853002,56.6399993896484
1742.6009252,27.6200008392334
1742.6165502,-3.57999992370605
1742.6321752,-39.0099983215332
1742.6478002,-75.3000030517578
1742.6634252,-105.790000915527
1742.6790502,-125.5
1742.6946752,-134.179992675781
1742.7103002,-135.389999389648
1742.7259252,-133.179992675781
1742.7415502,-129.919998168945
1742.7571752,-126.540000915527
1742.7728002,-123.559997558594
1742.7884252,-121.349998474121
1742.8040502,-119.690002441406
1742.8196752,-117.720001220703
1742.8353002,-114.400001525879
1742.8509252,-109.269996643066
1742.8665502,-102.870002746582
1742.8821752,-96.1900024414063
1742.8978002,-89.4300003051758
1742.9134252,-81.5599975585938
1742.9290502,-71.2300033569336
1742.9446752,-57.6500015258789
1742.9603002,-40.9799995422363
1742.9759252,-22.7700004577637
1742.9915502,-5.38000011444092
1743.0071752,9.28999996185303
1743.0228002,20.6900005340576
1743.0384252,29.0100002288818
1743.0540502,34.6599998474121
1743.0696752,38.25
1743.0853002,40.5499992370605
1743.1009252,42.0200004577637
1743.1165502,42.5400009155273
1743.1321752,41.4900016784668
1743.1478002,38.0499992370605
1743.1634252,31.6800003051758
1743.1790502,22.4300003051758
1743.1946752,10.8900003433228
1743.2103002,-2.17000007629395
1743.2259252,-15.9300003051758
1743.2415502,-29.3600006103516
1743.2571752,-41.3800010681152
1743.2728002,-51.3300018310547
1743.2884252,-58.9500007629395
1743.3040502,-63.6699981689453
1743.3196752,-64.620002746582
1743.3353002,-61.1100006103516
1743.3509252,-53.2299995422363
1743.3665502,-41.9099998474121
1743.3821752,-28.5
1743.3978002,-14.6599998474121
1743.4134252,-2.52999997138977
1743.4290502,5.55999994277954
1743.4446752,8.42000007629395
1743.4603002,6.46999979019165
1743.4759252,0.980000019073486
1743.4915502,-6.59999990463257
1743.5071752,-14.1800003051758
1743.5228002,-18.4699993133545
1743.5384252,-15.6599998474121
1743.5540502,-3.15000009536743
1743.5696752,18.6200008392334
1743.5853002,45.8300018310547
1743.6009252,72.7799987792969
1743.6165502,94.2699966430664
1743.6321752,107.279998779297
1743.6478002,111.379997253418
1743.6634252,108.160003662109
1743.6790502,100.290000915527
1743.6946752,90.7600021362305
1743.7103002,82.1399993896484
1743.7259252,75.9000015258789
1743.7415502,71.9400024414063
1743.7571752,68.7600021362305
1743.7728002,64.6999969482422
1743.7884252,59.3300018310547
1743.8040502,53.5900001525879
1743.8196752,48.6500015258789
1743.8353002,44.9099998474121
1743.8509252,42.0
1743.8665502,39.560001373291
1743.8821752,37.4900016784668
1743.8978002,35.8300018310547
1743.9134252,34.4900016784668
1743.9290502,33.1500015258789
1743.9446752,31.1800003051758
1743.9603002,28.2000007629395
1743.9759252,25.1499996185303
1743.9915502,24.1399993896484
1744.0071752,26.2800006866455
1744.0228002,29.8500003814697
1744.0384252,31.8299999237061
1744.0540502,31.1000003814697
1744.0696752,28.4500007629395
1744.0853002,24.1700000762939
1744.1009252,17.25
1744.1165502,7.01000022888184
1744.1321752,-5.53000020980835
1744.1478002,-18.1299991607666
1744.1634252,-28.4300003051758
1744.1790502,-34.8199996948242
1744.1946752,-36.3199996948242
1744.2103002,-32.7000007629395
1744.2259252,-24.9099998474121
1744.2415502,-14.9200000762939
1744.2571752,-4.86999988555908
1744.2728002,3.63000011444092
1744.2884252,9.61999988555908
1744.3040502,12.8100004196167
1744.3196752,13.8400001525879
1744.3353002,14.1000003814697
1744.3509252,14.9399995803833
1744.3665502,16.8199996948242
1744.3821752,18.8400001525879
1744.3978002,19.1499996185303
1744.4134252,16.1100006103516
1744.4290502,9.52000045776367
1744.4446752,0.759999990463257
1744.4603002,-8.23999977111816
1744.4759252,-16.4400005340576
1744.4915502,-23.9200000762939
1744.5071752,-31.1200008392334
1744.5228002,-38.310001373291
1744.5384252,-45.3899993896484
1744.5540502,-51.9199981689453
1744.5696752,-57.2700004577637
1744.5853002,-60.9900016784668
1744.6009252,-63.0200004577637
1744.6165502,-63.6599998474121
1744.6321752,-63.2400016784668
1744.6478002,-61.8199996948242
1744.6634252,-59.3600006103516
1744.6790502,-56.0900001525879
1744.6946752,-52.5099983215332
1744.7103002,-49.0499992370605
1744.7259252,-45.9099998474121
1744.7415502,-43.0999984741211
1744.7571752,-40.5200004577637
1744.7728002,-37.7200012207031
1744.7884252,-33.6199989318848
1744.8040502,-26.5400009155273
1744.8196752,-15.1099996566772
1744.8353002,0.560000002384186
1744.8509252,18.3999996185303
1744.8665502,35.0099983215332
1744.8821752,47.2700004577637
1744.8978002,53.75
1744.9134252,54.8499984741211
1744.9290502,52.0999984741211
1744.9446752,47.2200012207031
1744.9603002,41.5800018310547
1744.9759252,35.9700012207031
1744.9915502,30.5300006866455
1745.0071752,24.8099994659424
1745.0228002,18.1200008392334
1745.0384252,10.1800003051758
1745.0540502,1.76999998092651
1745.0696752,-5.6399998664856
1745.0853002,-10.8199996948242
1745.1009252,-13.3900003433228
1745.1165502,-13.8599996566772
1745.1321752,-13.210000038147
1745.1478002,-12.4300003051758
1745.1634252,-12.1400003433228
1745.1790502,-12.4200000762939
1745.1946752,-13.1000003814697
1745.2103002,-14.3299999237061
1745.2259252,-16.8099994659424
1745.2415502,-21.0900001525879
1745.2571752,-27.0900001525879
1745.2728002,-34.4300003051758
1745.2884252,-43.0
1745.3040502,-52.5
1745.3196752,-61.8600006103516
1745.3353002,-69.6900024414063
1745.3509252,-75.120002746582
1745.3665502,-77.9800033569336
1745.3821752,-78.5199966430664
1745.3978002,-76.8399963378906
1745.4134252,-72.2399978637695
1745.4290502,-62.9199981689453
1745.4446752,-46.7200012207031
1745.4603002,-22.7000007629395
1745.4759252,7.46999979019165
1745.4915502,39.4199981689453
1745.5071752,67.629997253418
1745.5228002,87.8300018310547
1745.5384252,98.5199966430664
1745.5540502,100.819999694824
1745.5696752,97.1500015258789
1745.5853002,90.120002746582
1745.6009252,81.8899993896484
1745.6165502,73.8000030517578
1745.6321752,66.2799987792969
1745.6478002,59.1100006103516
1745.6634252,51.9700012207031
1745.6790502,44.5999984741211
1745.6946752,36.6699981689453
1745.7103002,27.8099994659424
1745.7259252,18.2399997711182
1745.7415502,8.89999961853027
1745.7571752,0.899999976158142
1745.7728002,-5.17000007629395
1745.7884252,-9.30000019073486
1745.8040502,-11.7399997711182
1745.8196752,-12.7700004577637
1745.8353002,-12.7200002670288
1745.8509252,-12.1700000762939
1745.8665502,-11.960000038147
1745.8821752,-12.6999998092651
1745.8978002,-14.1499996185303
1745.9134252,-15.289999961853
1745.9290502,-15.5500001907349
1745.9446752,-15.6199998855591
1745.9603002,-16.7800006866455
1745.9759252,-19.4200000762939
1745.9915502,-22.5499992370605
1746.0071752,-24.6800003051758
1746.0228002,-25.1200008392334
1746.0384252,-24.4599990844727
1746.0540502,-24.0699996948242
1746.0696752,-24.8799991607666
1746.0853002,-26.3400001525879
1746.1009252,-26.4200000762939
1746.1165502,-22.5799999237061
1746.1321752,-13.3299999237061
1746.1478002,0.479999989271164
1746.1634252,15.789999961853
1746.1790502,29.0100002288818
1746.1946752,37.8800010681152
1746.2103002,42.189998626709
1746.2259252,43.060001373291
1746.2415502,41.9900016784668
1746.2571752,40.4599990844727
1746.2728002,39.5800018310547
1746.2884252,39.2299995422363
1746.3040502,37.439998626709
1746.3196752,32.060001373291
1746.3353002,23.5599994659424
1746.3509252,15.6199998855591
1746.3665502,12.5299997329712
