Time(s),Value(%)
0.0311039,-27.4200000762939
0.0467289,-24.7399997711182
0.0623539,-21.7700004577637
0.0779789,-18.75
0.0936039,-15.6800003051758
0.1092289,-12.5100002288818
0.1248539,-9.28999996185303
0.1404789,-6.19999980926514
0.1561039,-3.50999999046326
0.1717289,-1.45000004768372
0.1873539,-0.0700000002980232
0.2029789,0.800000011920929
0.2186039,1.45000004768372
0.2342289,2.07999992370605
0.2498539,2.82999992370605
0.2654789,3.70000004768372
0.2811039,4.69000005722046
0.2967289,5.76999998092651
0.3123539,6.8899998664856
0.3279789,7.86999988555908
0.3436039,8.55000019073486
0.3592289,8.60999965667725
0.3748539,8.02000045776367
0.3904789,7.21000003814697
0.4061039,6.86999988555908
0.4217289,7.55999994277954
0.4373539,9.23999977111816
0.4529789,11.4700002670288
0.4686039,13.8199996948242
0.4842289,16.1499996185303
0.4998539,18.5100002288818
0.5154789,20.9599990844727
0.5311039,23.5
0.5467289,26.1200008392334
0.5623539,28.9200000762939
0.5779789,31.9899997711182
0.5936039,35.3300018310547
0.6092289,38.7799987792969
0.6248539,42.0800018310547
0.6404789,45.0
0.6561039,47.4500007629395
0.6717289,49.5200004577637
0.6873539,51.3800010681152
0.7029789,53.1500015258789
0.7186039,54.7700004577637
0.7342289,56.0800018310547
0.7498539,56.9900016784668
0.7654789,57.560001373291
0.7811039,57.9300003051758
0.7967289,58.2299995422363
0.8123539,58.4700012207031
0.8279789,58.5900001525879
0.8436039,58.3699989318848
0.8592289,57.6399993896484
0.8748539,56.3499984741211
0.8904789,54.5099983215332
0.9061039,52.0900001525879
0.9217289,49.0800018310547
0.9373539,45.5699996948242
0.9529789,41.9199981689453
0.9686039,38.6800003051758
0.9842289,36.2299995422363
0.9998539,34.5400009155273
1.0154789,33.2700004577637
1.0311039,32.2099990844727
1.0467289,31.3199996948242
1.0623539,30.6900005340576
1.0779789,30.3099994659424
1.0936039,30.1000003814697
1.1092289,29.9500007629395
1.1248539,29.7900009155273
1.1404789,29.6200008392334
1.1561039,29.4500007629395
1.1717289,29.2199993133545
1.1873539,28.8199996948242
1.2029789,28.1399993896484
1.2186039,27.1700000762939
1.2342289,26.0400009155273
1.2498539,24.9899997711182
1.2654789,24.2099990844727
1.2811039,23.6200008392334
1.2967289,23.0400009155273
1.3123539,22.3299999237061
1.3279789,21.5
1.3436039,20.9300003051758
1.3592289,20.3600006103516
1.3748539,19.7999992370605
1.3904789,19.2099990844727
1.4061039,18.4699993133545
1.4217289,17.5100002288818
1.4373539,16.2999992370605
1.4529789,14.8999996185303
1.4686039,13.4099998474121
1.4842289,11.9200000762939
1.4998539,10.4899997711182
1.5154789,9.23999977111816
1.5311039,8.35999965667725
1.5467289,8.13000011444092
1.5623539,8.75
1.5779789,10.25
1.5936039,12.3500003814697
1.6092289,14.6599998474121
1.6248539,16.8099994659424
1.6404789,18.5699996948242
1.6561039,19.9599990844727
1.6717289,21.3299999237061
1.6873539,23.3099994659424
1.7029789,26.4799995422363
1.7186039,30.9699993133545
1.7342289,36.6100006103516
1.7498539,43.2099990844727
1.7654789,50.6800003051758
1.7811039,58.6699981689453
1.7967289,66.379997253418
1.8123539,72.5699996948242
1.8279789,76.3099975585938
1.8436039,77.5999984741211
1.8592289,77.0999984741211
1.8748539,75.4100036621094
1.8904789,72.7399978637695
1.9061039,69.1600036621094
1.9217289,64.8399963378906
1.9373539,60.0299987792969
1.9529789,54.8300018310547
1.9686039,49.0
1.9842289,42.2400016784668
1.9998539,34.4300003051758
2.0154789,25.7099990844727
2.0311039,16.2800006866455
2.0467289,6.28000020980835
2.0623539,-4.03000020980835
2.0779789,-14.2799997329712
2.0936039,-24.0400009155273
2.1092289,-33.189998626709
2.1248539,-42.0299987792969
2.1404789,-50.9599990844727
2.1561039,-59.939998626709
2.1717289,-68.5400009155273
2.1873539,-76.2600021362305
2.2029789,-82.9100036621094
2.2186039,-88.620002746582
2.2342289,-93.7200012207031
2.2498539,-98.5699996948242
2.2654789,-103.370002746582
2.2811039,-108.160003662109
2.2967289,-112.830001831055
2.3123539,-117.26000213623
2.3279789,-121.349998474121
2.3436039,-125.900001525879
2.3592289,-129.770004272461
2.3748539,-132.449996948242
2.3904789,-133.550003051758
2.4061039,-133.130004882813
2.4217289,-131.740005493164
2.4373539,-130.070007324219
2.4529789,-128.669998168945
2.4686039,-127.839996337891
2.4842289,-127.629997253418
2.4998539,-127.849998474121
2.5154789,-128.149993896484
2.5311039,-128.130004882813
2.5467289,-127.569999694824
2.5623539,-126.550003051758
2.5779789,-125.309997558594
2.5936039,-123.940002441406
2.6092289,-122.370002746582
2.6248539,-120.470001220703
2.6404789,-118.23999786377
2.6561039,-115.73999786377
2.6717289,-113.080001831055
2.6873539,-110.339996337891
2.7029789,-107.519996643066
2.7186039,-104.599998474121
2.7342289,-101.51000213623
2.7498539,-98.1399993896484
2.7654789,-94.3600006103516
2.7811039,-90.1900024414063
2.7967289,-85.7099990844727
2.8123539,-80.9100036621094
2.8279789,-75.3000030517578
2.8436039,-67.9100036621094
2.8592289,-57.9300003051758
2.8748539,-45.5
2.8904789,-31.7600002288818
2.9061039,-18.1299991607666
2.9217289,-5.65999984741211
2.9373539,5.25
2.9529789,14.6899995803833
2.9686039,22.8400001525879
2.9842289,29.8700008392334
2.9998539,35.9799995422363
3.0154789,41.4500007629395
3.0311039,46.7000007629395
3.0467289,52.060001373291
3.0623539,57.5699996948242
3.0779789,62.6199989318848
3.0936039,66.120002746582
3.1092289,67.2099990844727
3.1248539,65.9100036621094
3.1404789,63.0999984741211
3.1561039,59.7900009155273
3.1717289,56.5699996948242
3.1873539,53.6199989318848
3.2029789,50.8499984741211
3.2186039,48.0400009155273
3.2342289,44.810001373291
3.2498539,40.560001373291
3.2654789,34.7999992370605
3.2811039,27.5100002288818
3.2967289,19.0499992370605
3.3123539,9.81999969482422
3.3279789,0.129999995231628
3.3436039,-9.68000030517578
3.3592289,-19.1399993896484
3.3748539,-27.6700000762939
3.3904789,-35.0200004577637
3.4061039,-41.5400009155273
3.4217289,-47.7999992370605
3.4373539,-53.9799995422363
3.4529789,-59.7700004577637
3.4686039,-64.7300033569336
3.4842289,-68.6699981689453
3.4998539,-71.6800003051758
3.5154789,-73.9400024414063
3.5311039,-75.5
3.5467289,-76.3399963378906
3.5623539,-76.4899978637695
3.5779789,-76.2300033569336
3.5936039,-76.0699996948242
3.6092289,-76.4599990844727
3.6248539,-77.5199966430664
3.6404789,-78.9000015258789
3.6561039,-80.0100021362305
3.6717289,-80.4400024414063
3.6873539,-80.3499984741211
3.7029789,-80.1900024414063
3.7186039,-80.1399993896484
3.7342289,-80.0100021362305
3.7498539,-79.4800033569336
3.7654789,-78.3899993896484
3.7811039,-76.8000030517578
3.7967289,-75.0599975585938
3.8123539,-73.6999969482422
3.8279789,-73.0999984741211
3.8436039,-73.3300018310547
3.8592289,-74.0899963378906
3.8748539,-74.9100036621094
3.8904789,-75.4100036621094
3.9061039,-75.3300018310547
3.9217289,-74.3499984741211
3.9373539,-71.9000015258789
3.9529789,-67.4899978637695
3.9686039,-61.2000007629395
3.9842289,-53.689998626709
3.9998539,-45.8699989318848
4.0154789,-38.439998626709
4.0311039,-31.7299995422363
4.0467289,-25.6900005340576
4.0623539,-20.0499992370605
4.0779789,-14.4200000762939
4.0936039,-8.32999992370605
4.1092289,-1.49000000953674
4.1248539,6.07000017166138
4.1404789,14.0100002288818
4.1561039,21.8500003814697
4.1717289,29.2099990844727
4.1873539,35.9099998474121
4.2029789,41.8400001525879
4.2186039,46.8300018310547
4.2342289,50.6399993896484
4.2498539,53.0499992370605
4.2654789,54.0800018310547
4.2811039,54.060001373291
4.2967289,53.5099983215332
4.3123539,52.9099998474121
4.3279789,52.5299987792969
4.3436039,52.0900001525879
4.3592289,51.9500007629395
4.3748539,52.0800018310547
4.3904789,52.5
4.4061039,53.2099990844727
4.4217289,54.1800003051758
4.4373539,55.4300003051758
4.4529789,56.9900016784668
4.4686039,58.8199996948242
4.4842289,60.8499984741211
4.4998539,63.0499992370605
4.5154789,65.3600006103516
4.5311039,67.6399993896484
4.5467289,69.6699981689453
4.5623539,71.1699981689453
4.5779789,71.9899978637695
4.5936039,72.1600036621094
4.6092289,71.9000015258789
4.6248539,71.4100036621094
4.6404789,70.6399993896484
4.6561039,69.1699981689453
4.6717289,66.5500030517578
4.6873539,62.6500015258789
4.7029789,57.6199989318848
4.7186039,51.6300010681152
4.7342289,44.8300018310547
4.7498539,37.5400009155273
4.7654789,30.4099998474121
4.7811039,24.3799991607666
4.7967289,20.1900005340576
4.8123539,17.9300003051758
4.8279789,17.2299995422363
4.8436039,17.6499996185303
4.8592289,18.8899993896484
4.8748539,20.6100006103516
4.8904789,22.4300003051758
4.9061039,24.0499992370605
4.9217289,25.3799991607666
4.9373539,26.5499992370605
4.9529789,27.6700000762939
4.9686039,28.7000007629395
4.9842289,29.5
4.9998539,30.0599994659424
5.0154789,30.5400009155273
5.0311039,31.1200008392334
5.0467289,31.8700008392334
5.0623539,32.7900009155273
5.0779789,33.8800010681152
5.0936039,35.25
5.1092289,37.0400009155273
5.1248539,39.25
5.1404789,41.7200012207031
5.1561039,44.1800003051758
5.1717289,46.3899993896484
5.1873539,48.2400016784668
5.2029789,49.75
5.2186039,50.9900016784668
5.2342289,51.9799995422363
5.2498539,52.7099990844727
5.2654789,53.0999984741211
5.2811039,53.1699981689453
5.2967289,53.0299987792969
5.3123539,52.7799987792969
5.3279789,52.5299987792969
5.3436039,52.2599983215332
5.3592289,52.0
5.3748539,51.7099990844727
5.3904789,51.3600006103516
5.4061039,50.939998626709
5.4217289,50.4599990844727
5.4373539,49.9199981689453
5.4529789,49.3300018310547
5.4686039,48.7000007629395
5.4842289,48.0999984741211
5.4998539,47.6100006103516
5.5154789,47.2999992370605
5.5311039,47.1800003051758
5.5467289,47.1300010681152
5.5623539,47.0299987792969
5.5779789,46.7999992370605
5.5936039,46.4199981689453
5.6092289,45.9000015258789
5.6248539,45.3199996948242
5.6404789,44.7999992370605
5.6561039,44.560001373291
5.6717289,44.7700004577637
5.6873539,45.4500007629395
5.7029789,46.4799995422363
5.7186039,47.7099990844727
5.7342289,49.0299987792969
5.7498539,50.3199996948242
5.7654789,51.4199981689453
5.7811039,52.0900001525879
5.7967289,52.1500015258789
5.8123539,51.6199989318848
5.8279789,50.6699981689453
5.8436039,49.4500007629395
5.8592289,48.0099983215332
5.8748539,46.3800010681152
5.8904789,44.5999984741211
5.9061039,42.6800003051758
5.9217289,40.5099983215332
5.9373539,37.8199996948242
5.9529789,34.3300018310547
5.9686039,29.9300003051758
5.9842289,24.6000003814697
5.9998539,18.1299991607666
6.0154789,10.3199996948242
6.0311039,1.33000004291534
6.0467289,-8.17000007629395
6.0623539,-17.2900009155273
6.0779789,-25.3999996185303
6.0936039,-32.5699996948242
6.1092289,-39.0999984741211
6.1248539,-44.939998626709
6.1404789,-49.6500015258789
6.1561039,-52.9000015258789
6.1717289,-54.810001373291
6.1873539,-55.810001373291
6.2029789,-56.3300018310547
6.2186039,-56.5800018310547
6.2342289,-56.5200004577637
6.2498539,-56.0699996948242
6.2654789,-55.2000007629395
6.2811039,-53.9599990844727
6.2967289,-52.4300003051758
6.3123539,-50.7000007629395
6.3279789,-48.7900009155273
6.3436039,-46.7900009155273
6.3592289,-44.2400016784668
6.3748539,-41.0200004577637
6.3904789,-37.2700004577637
6.4061039,-33.3300018310547
6.4217289,-29.6000003814697
6.4373539,-26.3099994659424
6.4529789,-23.5100002288818
6.4686039,-21.0799999237061
6.4842289,-18.8600006103516
6.4998539,-16.7600002288818
6.5154789,-14.7399997711182
6.5311039,-12.8000001907349
6.5467289,-10.8699998855591
6.5623539,-8.73999977111816
6.5779789,-6.21000003814697
6.5936039,-3.24000000953674
6.6092289,-0.0399999991059303
6.6248539,3.09999990463257
6.6404789,6.11999988555908
6.6561039,9.34000015258789
6.6717289,13.1300001144409
6.6873539,17.4799995422363
6.7029789,21.9500007629395
6.7186039,26.0
6.7342289,29.3299999237061
6.7498539,31.9200000762939
6.7654789,33.9300003051758
6.7811039,35.5699996948242
6.7967289,36.9700012207031
6.8123539,38.189998626709
6.8279789,39.3400001525879
6.8436039,40.5999984741211
6.8592289,42.1500015258789
6.8748539,43.9799995422363
6.8904789,45.7099990844727
6.9061039,46.7000007629395
6.9217289,46.4199981689453
6.9373539,44.8600006103516
6.9529789,42.4300003051758
6.9686039,39.560001373291
6.9842289,36.5
6.9998539,33.3300018310547
7.0154789,30.0699996948242
7.0311039,26.7700004577637
7.0467289,23.5
7.0623539,20.3500003814697
7.0779789,17.3799991607666
7.0936039,14.6599998474121
7.1092289,12.3999996185303
7.1248539,11.039999961853
7.1404789,10.9700002670288
7.1561039,12.210000038147
7.1717289,14.2200002670288
7.1873539,16.25
7.2029789,17.8700008392334
7.2186039,19.2700004577637
7.2342289,20.8099994659424
7.2498539,22.4500007629395
7.2654789,23.6599998474121
7.2811039,23.9300003051758
7.2967289,23.1399993896484
7.3123539,21.5599994659424
7.3279789,19.6499996185303
7.3436039,17.9300003051758
7.3592289,16.4500007629395
7.3748539,15.25
7.3904789,14.2700004577637
7.4061039,13.5500001907349
7.4217289,13.1599998474121
7.4373539,13.0600004196167
7.4529789,12.8100004196167
7.4686039,11.6700000762939
7.4842289,9.0600004196167
7.4998539,5.07999992370605
7.5154789,0.370000004768372
7.5311039,-4.42000007629395
7.5467289,-9.01000022888184
7.5623539,-13.3699998855591
7.5779789,-17.6200008392334
7.5936039,-21.8500003814697
7.6092289,-26.0799999237061
7.6248539,-30.2800006866455
7.6404789,-34.4099998474121
7.6561039,-38.4300003051758
7.6717289,-42.3300018310547
7.6873539,-46.1399993896484
7.7029789,-49.9099998474121
7.7186039,-53.6500015258789
7.7342289,-57.4700012207031
7.7498539,-61.5400009155273
7.7654789,-66.0699996948242
7.7811039,-71.0699996948242
7.7967289,-76.3600006103516
7.8123539,-81.5699996948242
7.8279789,-86.379997253418
7.8436039,-90.6399993896484
7.8592289,-94.3899993896484
7.8748539,-97.75
7.8904789,-100.819999694824
7.9061039,-103.639999389648
7.9217289,-106.269996643066
7.9373539,-108.849998474121
7.9529789,-111.540000915527
7.9686039,-114.370002746582
7.9842289,-117.199996948242
7.9998539,-119.830001831055
8.0154789,-122.089996337891
8.0311039,-123.970001220703
8.0467289,-125.610000610352
8.0623539,-127.360000610352
8.0779789,-129.529998779297
8.0936039,-132.229995727539
8.1092289,-135.419998168945
8.1248539,-139.110000610352
8.1404789,-143.320007324219
8.1561039,-147.880004882813
8.1717289,-152.259994506836
8.1873539,-155.669998168945
8.2029789,-157.649993896484
8.2186039,-158.490005493164
8.2342289,-158.889999389648
8.2498539,-159.210006713867
8.2654789,-159.320007324219
8.2811039,-158.850006103516
8.2967289,-157.600006103516
8.3123539,-155.600006103516
8.3279789,-153.059997558594
8.3436039,-150.25
8.3592289,-147.190002441406
8.3748539,-143.889999389648
8.3904789,-140.119995117188
8.4061039,-135.410003662109
8.4217289,-129.320007324219
8.4373539,-121.800003051758
8.4529789,-113.040000915527
8.4686039,-103.209999084473
8.4842289,-92.2399978637695
8.4998539,-80.0400009155273
8.5154789,-66.879997253418
8.5311039,-53.6599998474121
8.5467289,-41.4700012207031
8.5623539,-31.0200004577637
8.5779789,-22.2900009155273
8.5936039,-14.8100004196167
8.6092289,-8.14999961853027
8.6248539,-2.28999996185303
8.6404789,2.52999997138977
8.6561039,6.19000005722046
8.6717289,8.78999996185303
8.6873539,10.5600004196167
8.7029789,11.7700004577637
8.7186039,12.6599998474121
8.7342289,13.4499998092651
8.7498539,14.3100004196167
8.7654789,15.1400003433228
8.7811039,15.5900001525879
8.7967289,15.3199996948242
8.8123539,14.3699998855591
8.8279789,13.1800003051758
8.8436039,12.210000038147
8.8592289,11.7700004577637
8.8748539,11.8299999237061
8.8904789,12.0100002288818
8.9061039,11.7200002670288
8.9217289,10.460000038147
8.9373539,8.10000038146973
8.9529789,4.75
8.9686039,0.439999997615814
8.9842289,-4.82999992370605
8.9998539,-10.8199996948242
9.0154789,-16.6900005340576
9.0311039,-21.1399993896484
9.0467289,-23.1100006103516
9.0623539,-22.4500007629395
9.0779789,-19.7099990844727
9.0936039,-15.539999961853
9.1092289,-10.3400001525879
9.1248539,-4.3899998664856
9.1404789,1.98000001907349
9.1561039,8.52999973297119
9.1717289,15.3000001907349
9.1873539,22.8299999237061
9.2029789,31.7299995422363
9.2186039,42.1199989318848
9.2342289,53.5800018310547
9.2498539,65.4100036621094
9.2654789,77.0100021362305
9.2811039,87.9499969482422
9.2967289,97.8099975585938
9.3123539,106.040000915527
9.3279789,112.190002441406
9.3436039,115.629997253418
9.3592289,117.290000915527
9.3748539,117.76000213623
9.3904789,117.540000915527
9.4061039,117.029998779297
9.4217289,116.449996948242
9.4373539,115.849998474121
9.4529789,115.080001831055
9.4686039,113.809997558594
9.4842289,111.76000213623
9.4998539,108.839996337891
9.5154789,105.180000305176
9.5311039,100.879997253418
9.5467289,96.0199966430664
9.5623539,90.7600021362305
9.5779789,85.5500030517578
9.5936039,80.9899978637695
9.6092289,77.4700012207031
9.6248539,74.9000015258789
9.6404789,72.8300018310547
9.6561039,71.0100021362305
9.6717289,69.4400024414063
9.6873539,68.2399978637695
9.7029789,67.4400024414063
9.7186039,66.9100036621094
9.7342289,66.3499984741211
9.7498539,65.3600006103516
9.7654789,63.6199989318848
9.7811039,61.0800018310547
9.7967289,57.9000015258789
9.8123539,54.2200012207031
9.8279789,50.1599998474121
9.8436039,45.8800010681152
9.8592289,41.8400001525879
9.8748539,38.7200012207031
9.8904789,37.0699996948242
9.9061039,36.8600006103516
9.9217289,37.6199989318848
9.9373539,38.8499984741211
9.9529789,40.2599983215332
9.9686039,41.7599983215332
9.9842289,43.2999992370605
9.9998539,44.8199996948242
10.0154789,46.2200012207031
10.0311039,47.3400001525879
10.0467289,48.060001373291
10.0623539,48.3699989318848
10.0779789,48.3699989318848
10.0936039,48.2000007629395
10.1092289,47.9900016784668
10.1248539,47.810001373291
10.1404789,47.7000007629395
10.1561039,47.7000007629395
10.1717289,47.8300018310547
10.1873539,48.0499992370605
10.2029789,48.2400016784668
10.2186039,48.1399993896484
10.2342289,47.5
10.2498539,46.2400016784668
10.2654789,44.5200004577637
10.2811039,42.7299995422363
10.2967289,41.3199996948242
10.3123539,40.4700012207031
10.3279789,40.1300010681152
10.3436039,39.9000015258789
10.3592289,39.7400016784668
10.3748539,39.5800018310547
10.3904789,39.439998626709
10.4061039,39.3400001525879
10.4217289,39.310001373291
10.4373539,39.2700004577637
10.4529789,39.1199989318848
10.4686039,38.6699981689453
10.4842289,37.7900009155273
10.4998539,36.4700012207031
10.5154789,34.7799987792969
10.5311039,32.7999992370605
10.5467289,30.5900001525879
10.5623539,28.25
10.5779789,26.0
10.5936039,24.2000007629395
10.6092289,23.0900001525879
10.6248539,22.6200008392334
10.6404789,22.4699993133545
10.6561039,22.3700008392334
10.6717289,22.2199993133545
10.6873539,22.0200004577637
10.7029789,21.8299999237061
10.7186039,21.6499996185303
10.7342289,21.3799991607666
10.7498539,20.8400001525879
10.7654789,19.8600006103516
10.7811039,18.3799991607666
10.7967289,16.4300003051758
10.8123539,14.0
10.8279789,11.0900001525879
10.8436039,7.78999996185303
10.8592289,4.44999980926514
10.8748539,1.53999996185303
10.8904789,-0.589999973773956
10.9061039,-2.03999996185303
10.9217289,-3.14000010490417
10.9373539,-4.1100001335144
10.9529789,-4.94000005722046
10.9686039,-5.53999996185303
10.9842289,-5.84999990463257
10.9998539,-5.96000003814697
11.0154789,-6.05999994277954
11.0311039,-6.40999984741211
11.0467289,-7.19000005722046
11.0623539,-8.43000030517578
11.0779789,-9.97000026702881
11.0936039,-11.5900001525879
11.1092289,-13.1199998855591
11.1248539,-14.460000038147
11.1404789,-15.5600004196167
11.1561039,-16.3600006103516
11.1717289,-16.7999992370605
11.1873539,-16.9300003051758
11.2029789,-16.9099998474121
11.2186039,-16.9799995422363
11.2342289,-17.3700008392334
11.2498539,-18.1299991607666
11.2654789,-19.0200004577637
11.2811039,-19.6499996185303
11.2967289,-19.7099990844727
11.3123539,-19.2199993133545
11.3279789,-18.4599990844727
11.3436039,-17.6900005340576
11.3592289,-17.0499992370605
11.3748539,-16.6900005340576
11.3904789,-16.6800003051758
11.4061039,-17.0300006866455
11.4217289,-17.5499992370605
11.4373539,-17.9699993133545
11.4529789,-18.1100006103516
11.4686039,-18.0499992370605
11.4842289,-18.0
11.4998539,-18.0300006866455
11.5154789,-18.0400009155273
11.5311039,-17.8799991607666
11.5467289,-17.5
11.5623539,-16.9500007629395
11.5779789,-16.3999996185303
