Time(s),Value(%)
1179.0125088,54.0499992370605
1179.0281338,72.1900024414063
1179.0437588,83.629997253418
1179.0593838,85.4800033569336
1179.0750088,77.7300033569336
1179.0906338,62.7400016784668
1179.1062588,44.2799987792969
1179.1218838,26.1700000762939
1179.1375088,11.210000038147
1179.1531338,0.349999994039536
1179.1687588,-7.15000009536743
1179.1843838,-12.8100004196167
1179.2000088,-17.6299991607666
1179.2156338,-21.7299995422363
1179.2312588,-24.6900005340576
1179.2468838,-26.1900005340576
1179.2625088,-26.3400001525879
1179.2781338,-25.6200008392334
1179.2937588,-24.6100006103516
1179.3093838,-23.8799991607666
1179.3250088,-23.8400001525879
1179.3406338,-24.4500007629395
1179.3562588,-25.2600002288818
1179.3718838,-25.8799991607666
1179.3875088,-26.2900009155273
1179.4031338,-26.6100006103516
1179.4187588,-26.8700008392334
1179.4343838,-26.8600006103516
1179.4500088,-26.2299995422363
1179.4656338,-24.6399993896484
1179.4812588,-22.1599998474121
1179.4968838,-19.3600006103516
1179.5125088,-16.9599990844727
1179.5281338,-15.3299999237061
1179.5437588,-14.4200000762939
1179.5593838,-14.039999961853
1179.5750088,-14.1000003814697
1179.5906338,-14.4799995422363
1179.6062588,-14.6199998855591
1179.6218838,-13.1700000762939
1179.6375088,-8.10000038146973
1179.6531338,2.55999994277954
1179.6687588,19.4200000762939
1179.6843838,40.4500007629395
1179.7000088,60.9599990844727
1179.7156338,75.3600006103516
1179.7312588,79.620002746582
1179.7468838,73.0100021362305
1179.7625088,58.3800010681152
1179.7781338,40.6599998474121
1179.7937588,24.5400009155273
1179.8093838,12.5699996948242
1179.8250088,4.6100001335144
1179.8406338,-1.13999998569489
1179.8562588,-6.59000015258789
1179.8718838,-12.4499998092651
1179.8875088,-18.0100002288818
1179.9031338,-21.9200000762939
1179.9187588,-23.4400005340576
1179.9343838,-22.9699993133545
1179.9500088,-21.6700000762939
1179.9656338,-20.8500003814697
1179.9812588,-21.3400001525879
1179.9968838,-23.2399997711182
1180.0125088,-25.9799995422363
1180.0281338,-28.6900005340576
1180.0437588,-30.7299995422363
1180.0593838,-31.9300003051758
1180.0750088,-32.5699996948242
1180.0906338,-33.0900001525879
1180.1062588,-33.6699981689453
1180.1218838,-34.0099983215332
1180.1375088,-33.6699981689453
1180.1531338,-32.3499984741211
1180.1687588,-30.0599994659424
1180.1843838,-26.8899993896484
1180.2000088,-22.9400005340576
1180.2156338,-18.6399993896484
1180.2312588,-14.8299999237061
1180.2468838,-12.1800003051758
1180.2625088,-10.6499996185303
1180.2781338,-9.27000045776367
1180.2937588,-6.13000011444092
1180.3093838,1.32000005245209
1180.3250088,15.0900001525879
1180.3406338,34.8899993896484
1180.3562588,57.189998626709
1180.3718838,76.1999969482422
1180.3875088,86.4199981689453
1180.4031338,85.3199996948242
1180.4187588,74.1500015258789
1180.4343838,56.9300003051758
1180.4500088,38.5
1180.4656338,22.7099990844727
1180.4812588,11.4399995803833
1180.4968838,4.30999994277954
1180.5125088,-0.5
1180.5281338,-4.76999998092651
1180.5437588,-9.13000011444092
1180.5593838,-13.1599998474121
1180.5750088,-16.2900009155273
1180.5906338,-18.5300006866455
1180.6062588,-20.4300003051758
1180.6218838,-22.4200000762939
1180.6375088,-24.6000003814697
1180.6531338,-26.8799991607666
1180.6687588,-29.1399993896484
1180.6843838,-31.1200008392334
1180.7000088,-32.4599990844727
1180.7156338,-33.0499992370605
1180.7312588,-33.060001373291
1180.7468838,-32.7200012207031
1180.7625088,-32.0299987792969
1180.7781338,-30.9400005340576
1180.7937588,-29.5300006866455
1180.8093838,-28.1299991607666
1180.8250088,-27.0799999237061
1180.8406338,-26.4300003051758
1180.8562588,-25.8999996185303
1180.8718838,-25.0499992370605
1180.8875088,-23.5
1180.9031338,-21.0300006866455
1180.9187588,-17.8299999237061
1180.9343838,-14.1899995803833
1180.9500088,-9.82999992370605
1180.9656338,-3.17000007629395
1180.9812588,8.17000007629395
1180.9968838,25.6499996185303
1181.0125088,47.9300003051758
1181.0281338,70.6900024414063
1181.0437588,88.3300018310547
1181.0593838,96.2699966430664
1181.0750088,92.9800033569336
1181.0906338,80.5699996948242
1181.1062588,63.5900001525879
1181.1218838,46.7999992370605
1181.1375088,33.4000015258789
1181.1531338,24.2999992370605
1181.1687588,18.4699993133545
1181.1843838,14.0100002288818
1181.2000088,9.3100004196167
1181.2156338,3.66000008583069
1181.2312588,-2.75
1181.2468838,-9.39000034332275
1181.2625088,-15.6599998474121
1181.2781338,-21.0400009155273
1181.2937588,-25.3199996948242
1181.3093838,-28.5900001525879
1181.3250088,-31.1299991607666
1181.3406338,-33.3400001525879
1181.3562588,-35.7900009155273
1181.3718838,-38.9700012207031
1181.3875088,-42.7999992370605
1181.4031338,-46.5200004577637
1181.4187588,-49.1699981689453
1181.4343838,-50.189998626709
1181.4500088,-49.5200004577637
1181.4656338,-47.2999992370605
1181.4812588,-43.7999992370605
1181.4968838,-39.5499992370605
1181.5125088,-35.2700004577637
1181.5281338,-31.4500007629395
1181.5437588,-28.0599994659424
1181.5593838,-24.7900009155273
1181.5750088,-21.6000003814697
1181.5906338,-18.8600006103516
1181.6062588,-16.7199993133545
1181.6218838,-14.4399995803833
1181.6375088,-10.1099996566772
1181.6531338,-1.10000002384186
1181.6687588,14.8400001525879
1181.6843838,37.7900009155273
1181.7000088,64.4400024414063
1181.7156338,88.9199981689453
1181.7312588,105.349998474121
1181.7468838,110.459999084473
1181.7625088,104.690002441406
1181.7781338,91.5699996948242
1181.7937588,75.8899993896484
1181.8093838,61.6500015258789
1181.8250088,50.6599998474121
1181.8406338,42.3699989318848
1181.8562588,34.7799987792969
1181.8718838,25.6700000762939
1181.8875088,13.8500003814697
1181.9031338,-0.0700000002980232
1181.9187588,-14.0500001907349
1181.9343838,-25.7000007629395
1181.9500088,-33.5299987792969
1181.9656338,-37.5400009155273
1181.9812588,-39.0900001525879
1181.9968838,-40.0699996948242
1182.0125088,-42.0099983215332
1182.0281338,-45.2999992370605
1182.0437588,-49.1399993896484
1182.0593838,-52.2700004577637
1182.0750088,-53.7900009155273
1182.0906338,-53.3699989318848
1182.1062588,-51.1699981689453
1182.1218838,-47.6599998474121
1182.1375088,-43.560001373291
1182.1531338,-39.7000007629395
1182.1687588,-36.7099990844727
1182.1843838,-34.7799987792969
1182.2000088,-33.5800018310547
1182.2156338,-32.6500015258789
1182.2312588,-31.7099990844727
1182.2468838,-30.7399997711182
1182.2625088,-29.5300006866455
1182.2781338,-27.6299991607666
1182.2937588,-24.3099994659424
1182.3093838,-18.3400001525879
1182.3250088,-7.65999984741211
1182.3406338,9.82999992370605
1182.3562588,34.4000015258789
1182.3718838,62.9300003051758
1182.3875088,89.5599975585938
1182.4031338,108.300003051758
1182.4187588,115.720001220703
1182.4343838,111.98999786377
1182.4500088,100.279998779297
1182.4656338,85.120002746582
1182.4812588,70.5599975585938
1182.4968838,58.7599983215332
1182.5125088,49.6599998474121
1182.5281338,41.5800018310547
1182.5437588,32.4700012207031
1182.5593838,20.9099998474121
1182.5750088,6.84000015258789
1182.5906338,-8.31999969482422
1182.6062588,-22.1900005340576
1182.6218838,-32.5200004577637
1182.6375088,-38.4500007629395
1182.6531338,-40.8699989318848
1182.6687588,-41.7799987792969
1182.6843838,-43.0400009155273
1182.7000088,-45.3199996948242
1182.7156338,-48.2400016784668
1182.7312588,-51.1100006103516
1182.7468838,-53.4500007629395
1182.7625088,-54.9000015258789
1182.7781338,-55.0699996948242
1182.7937588,-53.5200004577637
1182.8093838,-50.1699981689453
1182.8250088,-45.5800018310547
1182.8406338,-40.7000007629395
1182.8562588,-36.439998626709
1182.8718838,-33.2000007629395
1182.8875088,-30.9699993133545
1182.9031338,-29.5400009155273
1182.9187588,-28.7000007629395
1182.9343838,-28.0599994659424
1182.9500088,-27.0799999237061
1182.9656338,-25.1499996185303
1182.9812588,-21.6499996185303
1182.9968838,-15.6199998855591
1183.0125088,-5.26999998092651
1183.0281338,11.539999961853
1183.0437588,35.6199989318848
1183.0593838,64.5599975585938
1183.0750088,92.879997253418
1183.0906338,114.410003662109
1183.1062588,125.230003356934
1183.1218838,125.029998779297
1183.1375088,116.48999786377
1183.1531338,103.650001525879
1183.1687588,90.0100021362305
1183.1843838,77.4000015258789
1183.2000088,65.8499984741211
1183.2156338,54.1800003051758
1183.2312588,40.9099998474121
1183.2468838,25.2600002288818
1183.2625088,7.90999984741211
1183.2781338,-9.17000007629395
1183.2937588,-23.6200008392334
1183.3093838,-33.810001373291
1183.3250088,-39.5099983215332
1183.3406338,-41.8899993896484
1183.3562588,-42.8899993896484
1183.3718838,-44.2700004577637
1183.3875088,-46.8300018310547
1183.4031338,-50.5400009155273
1183.4187588,-54.9900016784668
1183.4343838,-59.5299987792969
1183.4500088,-63.3499984741211
1183.4656338,-65.6699981689453
1183.4812588,-66.1500015258789
1183.4968838,-65.0800018310547
1183.5125088,-63.0200004577637
1183.5281338,-60.310001373291
1183.5437588,-56.8699989318848
1183.5593838,-52.3699989318848
1183.5750088,-46.6300010681152
1183.5906338,-39.8800010681152
1183.6062588,-32.8699989318848
1183.6218838,-26.6299991607666
1183.6375088,-22.0100002288818
1183.6531338,-19.3099994659424
1183.6687588,-17.9799995422363
1183.6843838,-16.5100002288818
1183.7000088,-12.8500003814697
1183.7156338,-4.69000005722046
1183.7312588,10.289999961853
1183.7468838,33.5800018310547
1183.7625088,64.2300033569336
1183.7781338,97.7699966430664
1183.7937588,127.169998168945
1183.8093838,145.639999389648
1183.8250088,149.550003051758
1183.8406338,139.800003051758
1183.8562588,120.919998168945
1183.8718838,98.9100036621094
1183.8875088,78.9800033569336
1183.9031338,63.8899993896484
1183.9187588,53.3800010681152
1183.9343838,44.7999992370605
1183.9500088,34.810001373291
1183.9656338,21.1700000762939
1183.9812588,3.82999992370605
1183.9968838,-15.3400001525879
1184.0125088,-33.6300010681152
1184.0281338,-48.6500015258789
1184.0437588,-59.0200004577637
1184.0593838,-64.6399993896484
1184.0750088,-66.4899978637695
1184.0906338,-66.1600036621094
1184.1062588,-65.2600021362305
1184.1218838,-64.9199981689453
1184.1375088,-65.5800018310547
1184.1531338,-67.0800018310547
1184.1687588,-69.0299987792969
1184.1843838,-70.870002746582
1184.2000088,-71.9800033569336
1184.2156338,-71.7699966430664
1184.2312588,-69.6800003051758
1184.2468838,-65.370002746582
1184.2625088,-58.939998626709
1184.2781338,-51.1199989318848
1184.2937588,-43.1300010681152
1184.3093838,-36.2000007629395
1184.3250088,-31.1800003051758
1184.3406338,-28.3199996948242
1184.3562588,-27.3899993896484
1184.3718838,-27.7600002288818
1184.3875088,-28.5300006866455
1184.4031338,-28.7999992370605
1184.4187588,-27.7600002288818
1184.4343838,-24.6499996185303
1184.4500088,-18.1299991607666
1184.4656338,-5.84999990463257
1184.4812588,14.5799999237061
1184.4968838,43.2900009155273
1184.5125088,76.5999984741211
1184.5281338,108.0
1184.5437588,130.800003051758
1184.5593838,140.830001831055
1184.5750088,137.800003051758
1184.5906338,124.949996948242
1184.6062588,107.459999084473
1184.6218838,90.1900024414063
1184.6375088,76.0599975585938
1184.6531338,65.3199996948242
1184.6687588,56.060001373291
1184.6843838,45.4500007629395
1184.7000088,31.3700008392334
1184.7156338,13.7299995422363
1184.7312588,-5.34999990463257
1184.7468838,-22.6399993896484
1184.7625088,-35.4000015258789
1184.7781338,-42.7099990844727
1184.7937588,-45.5900001525879
1184.8093838,-46.0800018310547
1184.8250088,-46.1399993896484
1184.8406338,-46.7799987792969
1184.8562588,-48.0800018310547
1184.8718838,-49.7799987792969
1184.8875088,-51.7000007629395
1184.9031338,-53.5800018310547
1184.9187588,-54.8699989318848
1184.9343838,-54.9099998474121
1184.9500088,-53.4199981689453
1184.9656338,-50.560001373291
1184.9812588,-46.6500015258789
1184.9968838,-42.0099983215332
1185.0125088,-36.9599990844727
1185.0281338,-31.7900009155273
1185.0437588,-26.7900009155273
1185.0593838,-22.3899993896484
1185.0750088,-19.0
1185.0906338,-16.6200008392334
1185.1062588,-14.789999961853
1185.1218838,-13.0
1185.1375088,-10.960000038147
1185.1531338,-8.5
1185.1687588,-5.28000020980835
1185.1843838,-0.550000011920929
1185.2000088,7.05999994277954
1185.2156338,19.5599994659424
1185.2312588,38.6199989318848
1185.2468838,63.9199981689453
1185.2625088,91.8300018310547
1185.2781338,116.089996337891
1185.2937588,130.529998779297
1185.3093838,132.050003051758
1185.3250088,121.720001220703
1185.3406338,103.870002746582
1185.3562588,83.8300018310547
1185.3718838,65.870002746582
1185.3875088,51.8699989318848
1185.4031338,41.2799987792969
1185.4187588,32.0299987792969
1185.4343838,22.1200008392334
1185.4500088,10.8599996566772
1185.4656338,-0.889999985694885
1185.4812588,-11.4799995422363
1185.4968838,-19.6900005340576
1185.5125088,-25.3400001525879
1185.5281338,-28.9500007629395
1185.5437588,-31.2900009155273
1185.5593838,-33.3400001525879
1185.5750088,-36.1300010681152
1185.5906338,-40.0900001525879
1185.6062588,-44.6800003051758
1185.6218838,-48.7299995422363
1185.6375088,-51.3499984741211
1185.6531338,-52.3499984741211
1185.6687588,-51.810001373291
1185.6843838,-49.8400001525879
1185.7000088,-46.6300010681152
1185.7156338,-42.5299987792969
1185.7312588,-37.9799995422363
1185.7468838,-33.3899993896484
1185.7625088,-29.1599998474121
1185.7781338,-25.6900005340576
1185.7937588,-23.2399997711182
1185.8093838,-21.6399993896484
1185.8250088,-20.3999996185303
1185.8406338,-19.1299991607666
1185.8562588,-17.6499996185303
1185.8718838,-15.8000001907349
1185.8875088,-13.4099998474121
1185.9031338,-10.4300003051758
1185.9187588,-6.82999992370605
1185.9343838,-2.25
1185.9500088,4.40000009536743
1185.9656338,15.039999961853
1185.9812588,31.3600006103516
1185.9968838,52.9500007629395
1186.0125088,76.3300018310547
1186.0281338,95.9300003051758
1186.0437588,106.529998779297
1186.0593838,105.589996337891
1186.0750088,94.3199996948242
1186.0906338,76.9800033569336
1186.1062588,58.9099998474121
1186.1218838,44.2099990844727
1186.1375088,34.1399993896484
1186.1531338,27.2700004577637
1186.1687588,21.0400009155273
1186.1843838,13.5799999237061
1186.2000088,4.6399998664856
1186.2156338,-4.53000020980835
1186.2312588,-12.25
1186.2468838,-17.3799991607666
1186.2625088,-19.9599990844727
1186.2781338,-21.1299991607666
1186.2937588,-22.4099998474121
1186.3093838,-24.7700004577637
1186.3250088,-28.1800003051758
1186.3406338,-31.9799995422363
1186.3562588,-35.4700012207031
1186.3718838,-38.1500015258789
1186.3875088,-39.6699981689453
1186.4031338,-39.7799987792969
1186.4187588,-38.4700012207031
1186.4343838,-35.9900016784668
1186.4500088,-32.6800003051758
1186.4656338,-28.8099994659424
1186.4812588,-24.6000003814697
1186.4968838,-20.3600006103516
1186.5125088,-16.6000003814697
1186.5281338,-13.8299999237061
1186.5437588,-12.3599996566772
1186.5593838,-12.1599998474121
1186.5750088,-12.9899997711182
1186.5906338,-14.4200000762939
1186.6062588,-15.8299999237061
1186.6218838,-16.3700008392334
1186.6375088,-15.1999998092651
1186.6531338,-11.8999996185303
1186.6687588,-6.26999998092651
1186.6843838,2.20000004768372
1186.7000088,14.4899997711182
1186.7156338,30.8299999237061
1186.7312588,49.4199981689453
1186.7468838,66.4100036621094
1186.7625088,77.4400024414063
1186.7781338,79.620002746582
1186.7937588,72.879997253418
1186.8093838,59.7400016784668
1186.8250088,43.8800010681152
1186.8406338,28.3999996185303
1186.8562588,14.8400001525879
1186.8718838,3.55999994277954
1186.8875088,-5.51000022888184
1186.9031338,-12.4700002670288
1186.9187588,-17.2199993133545
1186.9343838,-19.5499992370605
1186.9500088,-19.4799995422363
1186.9656338,-17.6599998474121
1186.9812588,-15.4700002670288
1186.9968838,-14.5900001525879
1187.0125088,-16.1599998474121
1187.0281338,-20.2199993133545
1187.0437588,-25.8799991607666
1187.0593838,-31.9500007629395
1187.0750088,-37.4500007629395
1187.0906338,-41.6300010681152
1187.1062588,-43.75
1187.1218838,-43.2799987792969
1187.1375088,-40.2799987792969
1187.1531338,-35.6800003051758
1187.1687588,-30.9300003051758
1187.1843838,-27.3899993896484
1187.2000088,-25.7199993133545
1187.2156338,-25.6399993896484
1187.2312588,-26.2299995422363
1187.2468838,-26.25
1187.2625088,-24.8799991607666
1187.2781338,-22.1900005340576
1187.2937588,-19.1100006103516
1187.3093838,-16.6700000762939
1187.3250088,-15.25
1187.3406338,-14.2700004577637
1187.3562588,-12.4700002670288
1187.3718838,-8.10000038146973
1187.3875088,0.839999973773956
1187.4031338,15.8400001525879
1187.4187588,36.3699989318848
1187.4343838,59.0999984741211
1187.4500088,78.75
1187.4656338,90.2099990844727
1187.4812588,90.7099990844727
1187.4968838,80.8199996948242
1187.5125088,63.8400001525879
1187.5281338,44.2700004577637
1187.5437588,26.1800003051758
1187.5593838,12.0299997329712
1187.5750088,2.3199999332428
1187.5906338,-4.11999988555908
1187.6062588,-9.1899995803833
1187.6218838,-14.4200000762939
1187.6375088,-20.2099990844727
1187.6531338,-25.6800003051758
1187.6687588,-29.5100002288818
1187.6843838,-30.9699993133545
1187.7000088,-30.5799999237061
1187.7156338,-29.6599998474121
1187.7312588,-29.4200000762939
1187.7468838,-30.3600006103516
1187.7625088,-32.3899993896484
1187.7781338,-35.1100006103516
1187.7937588,-37.8400001525879
1187.8093838,-39.560001373291
1187.8250088,-39.5
1187.8406338,-37.8600006103516
1187.8562588,-35.6599998474121
1187.8718838,-33.7400016784668
1187.8875088,-32.2999992370605
1187.9031338,-31.1299991607666
1187.9187588,-29.9799995422363
1187.9343838,-28.5200004577637
1187.9500088,-26.3799991607666
1187.9656338,-23.5100002288818
1187.9812588,-20.4200000762939
1187.9968838,-17.9500007629395
1188.0125088,-16.7000007629395
1188.0281338,-16.6299991607666
1188.0437588,-16.9799995422363
1188.0593838,-16.5100002288818
1188.0750088,-13.6899995803833
1188.0906338,-6.71000003814697
1188.1062588,6.25
1188.1218838,26.0
1188.1375088,50.7099990844727
1188.1531338,75.6600036621094
1188.1687588,94.7600021362305
1188.1843838,103.26000213623
1188.2000088,99.8199996948242
1188.2156338,86.8499984741211
1188.2312588,69.120002746582
1188.2468838,51.5
1188.2625088,37.2700004577637
1188.2781338,27.3600006103516
1188.2937588,20.6499996185303
1188.3093838,14.8900003433228
1188.3250088,7.96999979019165
1188.3406338,-0.839999973773956
1188.3562588,-10.6499996185303
1188.3718838,-19.4899997711182
1188.3875088,-25.5699996948242
1188.4031338,-28.3299999237061
1188.4187588,-28.7600002288818
1188.4343838,-28.6700000762939
1188.4500088,-29.5900001525879
1188.4656338,-32.0400009155273
1188.4812588,-35.4500007629395
1188.4968838,-38.7700004577637
1188.5125088,-41.1599998474121
1188.5281338,-42.25
1188.5437588,-42.0099983215332
1188.5593838,-40.6500015258789
1188.5750088,-38.5900001525879
1188.5906338,-36.189998626709
1188.6062588,-33.6599998474121
1188.6218838,-30.9500007629395
1188.6375088,-28.1299991607666
1188.6531338,-25.6200008392334
1188.6687588,-24.0300006866455
1188.6843838,-23.4599990844727
1188.7000088,-23.2600002288818
1188.7156338,-22.4799995422363
1188.7312588,-20.4899997711182
1188.7468838,-17.2199993133545
1188.7625088,-12.960000038147
1188.7781338,-7.73000001907349
1188.7937588,-0.340000003576279
1188.8093838,11.5600004196167
1188.8250088,29.7700004577637
1188.8406338,53.2599983215332
1188.8562588,77.629997253418
1188.8718838,96.870002746582
1188.8875088,105.959999084473
1188.9031338,102.930000305176
1188.9187588,89.6600036621094
1188.9343838,70.9100036621094
1188.9500088,52.1599998474121
1188.9656338,37.310001373291
1188.9812588,27.5499992370605
1188.9968838,21.6599998474121
1189.0125088,17.2700004577637
1189.0281338,12.0699996948242
1189.0437588,4.71999979019165
1189.0593838,-4.67000007629395
1189.0750088,-14.7600002288818
1189.0906338,-23.8500003814697
1189.1062588,-30.8099994659424
1189.1218838,-35.5
1189.1375088,-38.5299987792969
1189.1531338,-40.6300010681152
1189.1687588,-42.1199989318848
1189.1843838,-42.9199981689453
1189.2000088,-42.9000015258789
1189.2156338,-42.2299995422363
1189.2312588,-41.4000015258789
1189.2468838,-40.8300018310547
1189.2625088,-40.5299987792969
1189.2781338,-40.1100006103516
1189.2937588,-39.0900001525879
1189.3093838,-37.2700004577637
