Time(s),Value(%)
1179.0125088,161.970001220703
1179.0281338,164.610000610352
1179.0437588,167.639999389648
1179.0593838,171.669998168945
1179.0750088,177.289993286133
1179.0906338,184.389999389648
1179.1062588,191.669998168945
1179.1218838,197.039993286133
1179.1375088,199.270004272461
1179.1531338,199.270004272461
1179.1687588,199.080001831055
1179.1843838,199.860000610352
1179.2000088,201.220001220703
1179.2156338,202.029998779297
1179.2312588,201.419998168945
1179.2468838,199.289993286133
1179.2625088,196.410003662109
1179.2781338,194.100006103516
1179.2937588,193.460006713867
1179.3093838,194.869995117188
1179.3250088,198.300003051758
1179.3406338,203.949996948242
1179.3562588,212.029998779297
1179.3718838,221.990005493164
1179.3875088,231.669998168945
1179.4031338,237.699996948242
1179.4187588,237.679992675781
1179.4343838,232.070007324219
1179.4500088,223.339996337891
1179.4656338,213.539993286133
1179.4812588,203.199996948242
1179.4968838,191.990005493164
1179.5125088,177.050003051758
1179.5281338,161.740005493164
1179.5437588,146.729995727539
1179.5593838,132.850006103516
1179.5750088,120.680000305176
1179.5906338,110.300003051758
1179.6062588,101.51000213623
1179.6218838,94.1600036621094
1179.6375088,88.1800003051758
1179.6531338,83.2099990844727
1179.6687588,78.0999984741211
1179.6843838,70.9800033569336
1179.7000088,60.2400016784668
1179.7156338,45.5800018310547
1179.7312588,28.0300006866455
1179.7468838,9.07999992370605
1179.7625088,-9.97000026702881
1179.7781338,-28.3299999237061
1179.7937588,-45.5400009155273
1179.8093838,-61.4799995422363
1179.8250088,-76.2200012207031
1179.8406338,-89.870002746582
1179.8562588,-102.300003051758
1179.8718838,-113.069999694824
1179.8875088,-121.819999694824
1179.9031338,-128.570007324219
1179.9187588,-133.830001831055
1179.9343838,-138.289993286133
1179.9500088,-142.490005493164
1179.9656338,-146.710006713867
1179.9812588,-151.149993896484
1179.9968838,-156.059997558594
1180.0125088,-161.630004882813
1180.0281338,-167.889999389648
1180.0437588,-174.759994506836
1180.0593838,-182.350006103516
1180.0750088,-190.770004272461
1180.0906338,-199.899993896484
1180.1062588,-209.320007324219
1180.1218838,-218.619995117188
1180.1375088,-227.850006103516
1180.1531338,-237.649993896484
1180.1687588,-248.520004272461
1180.1843838,-260.0
1180.2000088,-270.910003662109
1180.2156338,-280.089996337891
1180.2312588,-287.049987792969
1180.2468838,-292.130004882813
1180.2625088,-296.339996337891
1180.2781338,-301.049987792969
1180.2937588,-307.329986572266
1180.3093838,-315.440002441406
1180.3250088,-325.220001220703
1180.3406338,-327.679992675781
1180.3562588,-327.679992675781
1180.3718838,-327.679992675781
1180.3875088,-327.679992675781
1180.4031338,-327.679992675781
1180.4187588,-327.679992675781
1180.4343838,-327.679992675781
1180.4500088,-327.679992675781
1180.4656338,-327.679992675781
1180.4812588,-327.679992675781
1180.4968838,-327.679992675781
1180.5125088,-327.679992675781
1180.5281338,-327.679992675781
1180.5437588,-315.010009765625
1180.5593838,-296.839996337891
1180.5750088,-277.25
1180.5906338,-256.119995117188
1180.6062588,-234.080001831055
1180.6218838,-212.240005493164
1180.6375088,-191.570007324219
1180.6531338,-172.570007324219
1180.6687588,-155.270004272461
1180.6843838,-139.520004272461
1180.7000088,-125.290000915527
1180.7156338,-112.75
1180.7312588,-101.959999084473
1180.7468838,-92.5699996948242
1180.7625088,-83.9400024414063
1180.7781338,-75.4400024414063
1180.7937588,-66.7200012207031
1180.8093838,-57.7700004577637
1180.8250088,-48.9199981689453
1180.8406338,-40.6100006103516
1180.8562588,-33.2000007629395
1180.8718838,-26.7900009155273
1180.8875088,-21.2299995422363
1180.9031338,-16.4099998474121
1180.9187588,-12.2299995422363
1180.9343838,-8.5
1180.9500088,-4.65999984741211
1180.9656338,0.170000001788139
1180.9812588,6.73999977111816
1180.9968838,15.1199998855591
1181.0125088,24.7600002288818
1181.0281338,34.9900016784668
1181.0437588,45.3300018310547
1181.0593838,55.5099983215332
1181.0750088,65.3899993896484
1181.0906338,74.9599990844727
1181.1062588,84.4599990844727
1181.1218838,94.4300003051758
1181.1375088,105.339996337891
1181.1531338,117.379997253418
1181.1687588,130.570007324219
1181.1843838,145.199996948242
1181.2000088,161.600006103516
1181.2156338,179.490005493164
1181.2312588,197.820007324219
1181.2468838,215.110000610352
1181.2625088,230.520004272461
1181.2781338,244.399993896484
1181.2937588,257.489990234375
1181.3093838,269.75
1181.3250088,280.339996337891
1181.3406338,288.440002441406
1181.3562588,293.970001220703
1181.3718838,297.549987792969
1181.3875088,300.109985351563
1181.4031338,302.459991455078
1181.4187588,305.049987792969
1181.4343838,307.899993896484
1181.4500088,310.929992675781
1181.4656338,314.25
1181.4812588,318.040008544922
1181.4968838,322.179992675781
1181.5125088,327.670013427734
1181.5281338,327.670013427734
1181.5437588,327.670013427734
1181.5593838,327.670013427734
1181.5750088,327.670013427734
1181.5906338,327.670013427734
1181.6062588,327.670013427734
1181.6218838,327.670013427734
1181.6375088,326.829986572266
1181.6531338,319.059997558594
1181.6687588,310.850006103516
1181.6843838,302.420013427734
1181.7000088,293.950012207031
1181.7156338,285.529998779297
1181.7312588,277.299987792969
1181.7468838,269.529998779297
1181.7625088,262.489990234375
1181.7781338,256.170013427734
1181.7937588,250.110000610352
1181.8093838,243.539993286133
1181.8250088,236.139999389648
1181.8406338,228.479995727539
1181.8562588,221.520004272461
1181.8718838,215.639999389648
1181.8875088,210.389999389648
1181.9031338,204.970001220703
1181.9187588,198.820007324219
1181.9343838,191.800003051758
1181.9500088,184.190002441406
1181.9656338,176.419998168945
1181.9812588,168.830001831055
1181.9968838,161.610000610352
1182.0125088,154.839996337891
1182.0281338,148.690002441406
1182.0437588,143.339996337891
1182.0593838,138.649993896484
1182.0750088,133.860000610352
1182.0906338,127.650001525879
1182.1062588,118.940002441406
1182.1218838,107.690002441406
1182.1375088,94.7600021362305
1182.1531338,81.1399993896484
1182.1687588,67.4499969482422
1182.1843838,53.9500007629395
1182.2000088,40.7200012207031
1182.2156338,27.7700004577637
1182.2312588,15.1199998855591
1182.2468838,2.74000000953674
1182.2625088,-9.38000011444092
1182.2781338,-21.2700004577637
1182.2937588,-33.0499992370605
1182.3093838,-44.9799995422363
1182.3250088,-57.3199996948242
1182.3406338,-70.0699996948242
1182.3562588,-83.0500030517578
1182.3718838,-96.0999984741211
1182.3875088,-109.449996948242
1182.4031338,-123.75
1182.4187588,-139.460006713867
1182.4343838,-156.259994506836
1182.4500088,-173.360000610352
1182.4656338,-190.169998168945
1182.4812588,-206.630004882813
1182.4968838,-222.710006713867
1182.5125088,-241.619995117188
1182.5281338,-258.709991455078
1182.5437588,-272.910003662109
1182.5593838,-284.010009765625
1182.5750088,-292.600006103516
1182.5906338,-299.25
1182.6062588,-304.179992675781
1182.6218838,-307.5
1182.6375088,-309.429992675781
1182.6531338,-310.470001220703
1182.6687588,-311.489990234375
1182.6843838,-313.769989013672
1182.7000088,-318.359985351563
1182.7156338,-325.470001220703
1182.7312588,-327.679992675781
1182.7468838,-327.679992675781
1182.7625088,-327.679992675781
1182.7781338,-327.679992675781
1182.7937588,-327.679992675781
1182.8093838,-327.679992675781
1182.8250088,-327.679992675781
1182.8406338,-327.679992675781
1182.8562588,-327.679992675781
1182.8718838,-327.679992675781
1182.8875088,-327.679992675781
1182.9031338,-327.679992675781
1182.9187588,-327.679992675781
1182.9343838,-327.679992675781
1182.9500088,-327.679992675781
1182.9656338,-327.679992675781
1182.9812588,-327.679992675781
1182.9968838,-327.679992675781
1183.0125088,-327.679992675781
1183.0281338,-325.390014648438
1183.0437588,-318.980010986328
1183.0593838,-313.200012207031
1183.0750088,-307.160003662109
1183.0906338,-299.359985351563
1183.1062588,-288.519989013672
1183.1218838,-274.619995117188
1183.1375088,-258.649993896484
1183.1531338,-241.779998779297
1183.1687588,-224.75
1183.1843838,-207.860000610352
1183.2000088,-191.210006713867
1183.2156338,-174.740005493164
1183.2312588,-158.149993896484
1183.2468838,-140.770004272461
1183.2625088,-121.980003356934
1183.2781338,-101.720001220703
1183.2937588,-80.5199966430664
1183.3093838,-59.1399993896484
1183.3250088,-38.1800003051758
1183.3406338,-18.0799999237061
1183.3562588,0.779999971389771
1183.3718838,17.9300003051758
1183.3875088,32.939998626709
1183.4031338,45.6800003051758
1183.4187588,56.3600006103516
1183.4343838,65.379997253418
1183.4500088,73.1900024414063
1183.4656338,80.2099990844727
1183.4812588,86.75
1183.4968838,93.0899963378906
1183.5125088,101.699996948242
1183.5281338,111.419998168945
1183.5437588,122.900001525879
1183.5593838,136.339996337891
1183.5750088,151.570007324219
1183.5906338,168.589996337891
1183.6062588,187.449996948242
1183.6218838,207.770004272461
1183.6375088,228.389999389648
1183.6531338,247.679992675781
1183.6687588,264.640014648438
1183.6843838,279.600006103516
1183.7000088,293.489990234375
1183.7156338,306.529998779297
1183.7312588,317.940002441406
1183.7468838,326.890014648438
1183.7625088,327.670013427734
1183.7781338,327.670013427734
1183.7937588,327.670013427734
1183.8093838,327.670013427734
1183.8250088,327.670013427734
1183.8406338,327.670013427734
1183.8562588,327.670013427734
1183.8718838,327.670013427734
1183.8875088,327.670013427734
1183.9031338,327.670013427734
1183.9187588,327.670013427734
1183.9343838,327.670013427734
1183.9500088,327.670013427734
1183.9656338,327.670013427734
1183.9812588,327.670013427734
1183.9968838,327.670013427734
1184.0125088,327.670013427734
1184.0281338,327.670013427734
1184.0437588,327.670013427734
1184.0593838,327.670013427734
1184.0750088,327.670013427734
1184.0906338,327.670013427734
1184.1062588,327.670013427734
1184.1218838,327.670013427734
1184.1375088,327.670013427734
1184.1531338,327.670013427734
1184.1687588,327.670013427734
1184.1843838,327.670013427734
1184.2000088,327.429992675781
1184.2156338,316.529998779297
1184.2312588,301.410003662109
1184.2468838,281.549987792969
1184.2625088,257.940002441406
1184.2781338,232.240005493164
1184.2937588,206.029998779297
1184.3093838,180.399993896484
1184.3250088,155.869995117188
1184.3406338,132.460006713867
1184.3562588,109.690002441406
1184.3718838,86.7200012207031
1184.3875088,62.7900009155273
1184.4031338,37.7200012207031
1184.4187588,11.6700000762939
1184.4343838,-15.3299999237061
1184.4500088,-43.3600006103516
1184.4656338,-72.0199966430664
1184.4812588,-100.160003662109
1184.4968838,-126.169998168945
1184.5125088,-149.190002441406
1184.5281338,-169.940002441406
1184.5437588,-189.830001831055
1184.5593838,-209.369995117188
1184.5750088,-227.889999389648
1184.5906338,-244.339996337891
1184.6062588,-258.209991455078
1184.6218838,-269.519989013672
1184.6375088,-277.880004882813
1184.6531338,-281.899993896484
1184.6687588,-280.089996337891
1184.6843838,-272.260009765625
1184.7000088,-259.570007324219
1184.7156338,-243.550003051758
1184.7312588,-225.479995727539
1184.7468838,-206.509994506836
1184.7625088,-188.0
1184.7781338,-171.509994506836
1184.7937588,-158.110000610352
1184.8093838,-147.75
1184.8250088,-139.800003051758
1184.8406338,-133.940002441406
1184.8562588,-130.240005493164
1184.8718838,-128.690002441406
1184.8875088,-128.789993286133
1184.9031338,-129.570007324219
1184.9187588,-129.550003051758
1184.9343838,-126.900001525879
1184.9500088,-120.23999786377
1184.9656338,-109.519996643066
1184.9812588,-95.7200012207031
1184.9968838,-79.9899978637695
1185.0125088,-63.1699981689453
1185.0281338,-46.1100006103516
1185.0437588,-30.2999992370605
1185.0593838,-17.9599990844727
1185.0750088,-10.6599998474121
1185.0906338,-8.05000019073486
1185.1062588,-8.34000015258789
1185.1218838,-9.89000034332275
1185.1375088,-12.0
1185.1531338,-14.6599998474121
1185.1687588,-17.9500007629395
1185.1843838,-21.7199993133545
1185.2000088,-25.5400009155273
1185.2156338,-28.8099994659424
1185.2312588,-31.0400009155273
1185.2468838,-32.0900001525879
1185.2625088,-32.0
1185.2781338,-30.7099990844727
1185.2937588,-28.1299991607666
1185.3093838,-24.5200004577637
1185.3250088,-20.8799991607666
1185.3406338,-18.7800006866455
1185.3562588,-19.2999992370605
1185.3718838,-22.1399993896484
1185.3875088,-26.0599994659424
1185.4031338,-29.8899993896484
1185.4187588,-32.6599998474121
1185.4343838,-33.1599998474121
1185.4500088,-30.3299999237061
1185.4656338,-24.0900001525879
1185.4812588,-15.8500003814697
1185.4968838,-7.82999992370605
1185.5125088,-1.66999995708466
1185.5281338,2.24000000953674
1185.5437588,4.48000001907349
1185.5593838,4.96999979019165
1185.5750088,3.0699999332428
1185.5906338,-1.5
1185.6062588,-8.1899995803833
1185.6218838,-15.8900003433228
1185.6375088,-23.6200008392334
1185.6531338,-31.0200004577637
1185.6687588,-38.2299995422363
1185.6843838,-45.4300003051758
1185.7000088,-52.4700012207031
1185.7156338,-58.7999992370605
1185.7312588,-63.8300018310547
1185.7468838,-67.4000015258789
1185.7625088,-69.8899993896484
1185.7781338,-72.0800018310547
1185.7937588,-74.4599990844727
1185.8093838,-76.8600006103516
1185.8250088,-78.8199996948242
1185.8406338,-80.1999969482422
1185.8562588,-81.3000030517578
1185.8718838,-82.5500030517578
1185.8875088,-84.1600036621094
1185.9031338,-86.0899963378906
1185.9187588,-88.1900024414063
1185.9343838,-90.4199981689453
1185.9500088,-92.8099975585938
1185.9656338,-95.370002746582
1185.9812588,-98.0400009155273
1185.9968838,-100.720001220703
1186.0125088,-103.309997558594
1186.0281338,-105.779998779297
1186.0437588,-108.190002441406
1186.0593838,-110.73999786377
1186.0750088,-113.650001525879
1186.0906338,-116.879997253418
1186.1062588,-120.110000610352
1186.1218838,-122.919998168945
1186.1375088,-125.029998779297
1186.1531338,-126.349998474121
1186.1687588,-127.01000213623
1186.1843838,-127.169998168945
1186.2000088,-126.660003662109
1186.2156338,-124.900001525879
1186.2312588,-121.279998779297
1186.2468838,-115.669998168945
1186.2625088,-108.480003356934
1186.2781338,-100.290000915527
1186.2937588,-91.620002746582
1186.3093838,-82.9199981689453
1186.3250088,-74.8199996948242
1186.3406338,-68.1999969482422
1186.3562588,-63.7099990844727
1186.3718838,-61.2599983215332
1186.3875088,-60.1800003051758
1186.4031338,-59.7299995422363
1186.4187588,-59.4799995422363
1186.4343838,-59.25
1186.4500088,-59.0200004577637
1186.4656338,-58.7599983215332
1186.4812588,-58.5400009155273
1186.4968838,-58.5499992370605
1186.5125088,-57.9700012207031
1186.5281338,-57.810001373291
1186.5437588,-57.9000015258789
1186.5593838,-57.9799995422363
1186.5750088,-57.8499984741211
1186.5906338,-57.4199981689453
1186.6062588,-56.6800003051758
1186.6218838,-55.6500015258789
1186.6375088,-54.3400001525879
1186.6531338,-52.689998626709
1186.6687588,-50.6800003051758
1186.6843838,-48.3499984741211
1186.7000088,-45.7999992370605
1186.7156338,-43.1699981689453
1186.7312588,-40.5499992370605
1186.7468838,-37.9700012207031
1186.7625088,-35.2999992370605
1186.7781338,-32.2900009155273
1186.7937588,-28.7000007629395
1186.8093838,-24.4500007629395
1186.8250088,-19.5200004577637
1186.8406338,-13.789999961853
1186.8562588,-7.1100001335144
1186.8718838,0.370000004768372
1186.8875088,8.10999965667725
1186.9031338,15.3299999237061
1186.9187588,21.5499992370605
1186.9343838,26.9300003051758
1186.9500088,31.8700008392334
1186.9656338,36.5099983215332
1186.9812588,40.5699996948242
1186.9968838,43.7599983215332
1187.0125088,46.0499992370605
1187.0281338,47.6699981689453
1187.0437588,48.9099998474121
1187.0593838,49.9700012207031
1187.0750088,50.8800010681152
1187.0906338,51.6100006103516
1187.1062588,52.189998626709
1187.1218838,52.6599998474121
1187.1375088,53.0999984741211
1187.1531338,53.5400009155273
1187.1687588,53.8400001525879
1187.1843838,53.6800003051758
1187.2000088,52.689998626709
1187.2156338,50.689998626709
1187.2312588,47.7900009155273
1187.2468838,44.3400001525879
1187.2625088,40.7799987792969
1187.2781338,37.4199981689453
1187.2937588,34.439998626709
1187.3093838,31.8400001525879
1187.3250088,29.5
1187.3406338,27.2999992370605
1187.3562588,25.1399993896484
1187.3718838,22.9799995422363
1187.3875088,20.8400001525879
1187.4031338,18.7000007629395
1187.4187588,16.5400009155273
1187.4343838,14.3999996185303
1187.4500088,12.4099998474121
1187.4656338,10.8199996948242
1187.4812588,9.8100004196167
1187.4968838,9.35999965667725
1187.5125088,9.18000030517578
1187.5281338,9.22999954223633
1187.5437588,9.42000007629395
1187.5593838,9.72999954223633
1187.5750088,10.1400003433228
1187.5906338,10.6700000762939
1187.6062588,11.3999996185303
1187.6218838,12.5799999237061
1187.6375088,14.3900003433228
1187.6531338,16.8400001525879
1187.6687588,19.6399993896484
1187.6843838,22.3600006103516
1187.7000088,24.6399993896484
1187.7156338,26.3299999237061
1187.7312588,27.4099998474121
1187.7468838,27.8899993896484
1187.7625088,27.5599994659424
1187.7781338,26.0599994659424
1187.7937588,23.2099990844727
1187.8093838,19.2800006866455
1187.8250088,14.8999996185303
1187.8406338,10.7600002288818
1187.8562588,7.25
1187.8718838,4.44000005722046
1187.8875088,2.09999990463257
1187.9031338,-0.100000001490116
1187.9187588,-2.45000004768372
1187.9343838,-5.03000020980835
1187.9500088,-7.78000020980835
1187.9656338,-10.6199998855591
1187.9812588,-13.5
1187.9968838,-16.2999992370605
1188.0125088,-18.6399993896484
1188.0281338,-19.8600006103516
1188.0437588,-19.3799991607666
1188.0593838,-17.0900001525879
1188.0750088,-13.4099998474121
1188.0906338,-8.97000026702881
1188.1062588,-4.32000017166138
1188.1218838,0.189999997615814
1188.1375088,4.42999982833862
1188.1531338,8.38000011444092
1188.1687588,12.0699996948242
1188.1843838,15.5100002288818
1188.2000088,18.6599998474121
1188.2156338,21.5499992370605
1188.2312588,24.3299999237061
1188.2468838,27.2600002288818
1188.2625088,30.6200008392334
1188.2781338,34.4500007629395
1188.2937588,38.5999984741211
1188.3093838,42.8400001525879
1188.3250088,47.0900001525879
1188.3406338,51.4900016784668
1188.3562588,56.1500015258789
1188.3718838,60.9199981689453
1188.3875088,65.4599990844727
1188.4031338,69.5999984741211
1188.4187588,73.3600006103516
1188.4343838,76.8499984741211
1188.4500088,80.0400009155273
1188.4656338,82.6699981689453
1188.4812588,84.5100021362305
1188.4968838,85.620002746582
1188.5125088,88.0999984741211
1188.5281338,90.2399978637695
1188.5437588,92.0999984741211
1188.5593838,93.5800018310547
1188.5750088,94.6600036621094
1188.5906338,95.3600006103516
1188.6062588,95.9100036621094
1188.6218838,96.6399993896484
1188.6375088,97.870002746582
1188.6531338,99.6699981689453
1188.6687588,101.940002441406
1188.6843838,104.540000915527
1188.7000088,107.360000610352
1188.7156338,110.220001220703
1188.7312588,112.709999084473
1188.7468838,114.209999084473
1188.7625088,114.339996337891
1188.7781338,113.419998168945
1188.7937588,112.220001220703
1188.8093838,111.25
1188.8250088,110.550003051758
1188.8406338,109.800003051758
1188.8562588,108.690002441406
1188.8718838,107.080001831055
1188.8875088,104.980003356934
1188.9031338,102.459999084473
1188.9187588,99.5699996948242
1188.9343838,96.4599990844727
1188.9500088,93.4599990844727
1188.9656338,91.1699981689453
1188.9812588,90.1500015258789
1188.9968838,90.4199981689453
1189.0125088,91.370002746582
1189.0281338,91.9800033569336
1189.0437588,91.6399993896484
1189.0593838,90.5899963378906
1189.0750088,89.5
1189.0906338,88.5699996948242
1189.1062588,87.4199981689453
1189.1218838,85.5
1189.1375088,82.6100006103516
1189.1531338,78.9000015258789
1189.1687588,74.8099975585938
1189.1843838,70.7900009155273
1189.2000088,67.120002746582
1189.2156338,63.8699989318848
1189.2312588,61.0699996948242
1189.2468838,58.8699989318848
1189.2625088,57.439998626709
1189.2781338,56.7000007629395
1189.2937588,55.9900016784668
1189.3093838,54.2400016784668
1189.3250088,50.6500015258789
1189.3406338,45.3199996948242
1189.3562588,39.0699996948242
1189.3718838,32.6100006103516
