Time(s),Value(%)
162.0092948,263.850006103516
162.0249198,269.549987792969
162.0405448,240.580001831055
162.0561698,192.479995727539
162.0717948,142.419998168945
162.0874198,101.580001831055
162.1030448,72.4700012207031
162.1186698,51.0200004577637
162.1342948,30.9899997711182
162.1499198,7.94000005722046
162.1655448,-19.0
162.1811698,-47.5200004577637
162.1967948,-73.5599975585938
162.2124198,-93.1900024414063
162.2280448,-104.23999786377
162.2436698,-107.029998779297
162.2592948,-103.919998168945
162.2749198,-98.0199966430664
162.2905448,-92.1500015258789
162.3061698,-88.129997253418
162.3217948,-86.6100006103516
162.3374198,-87.2099990844727
162.3530448,-88.8399963378906
162.3686698,-90.1399993896484
162.3842948,-90.1800003051758
162.3999198,-88.7099990844727
162.4155448,-86.0999984741211
162.4311698,-83.0800018310547
162.4467948,-80.4199981689453
162.4624198,-78.5699996948242
162.4780448,-76.3000030517578
162.4936698,-68.3499984741211
162.5092948,-44.9300003051758
162.5249198,2.47000002861023
162.5405448,71.7699966430664
162.5561698,146.899993896484
162.5717948,205.270004272461
162.5874198,230.149993896484
162.6030448,218.610000610352
162.6186698,180.839996337891
162.6342948,133.059997558594
162.6499198,89.25
162.6655448,56.3400001525879
162.6811698,33.7700004577637
162.6967948,16.2900009155273
162.7124198,-2.01999998092651
162.7280448,-24.3099994659424
162.7436698,-49.310001373291
162.7592948,-72.4700012207031
162.7749198,-89.0699996948242
162.7905448,-96.8199996948242
162.8061698,-96.5500030517578
162.8217948,-91.3199996948242
162.8374198,-84.7399978637695
162.8530448,-79.3399963378906
162.8686698,-75.9899978637695
162.8842948,-74.0100021362305
162.8999198,-71.870002746582
162.9155448,-68.3399963378906
162.9311698,-63.4500007629395
162.9467948,-58.189998626709
162.9624198,-53.7400016784668
162.9780448,-51.0200004577637
162.9936698,-50.5400009155273
163.0092948,-52.2200012207031
163.0249198,-55.2799987792969
163.0405448,-57.8800010681152
163.0561698,-55.3800010681152
163.0717948,-39.1699981689453
163.0874198,-0.730000019073486
163.1030448,59.5499992370605
163.1186698,128.020004272461
163.1342948,183.740005493164
163.1499198,210.089996337891
163.1655448,202.839996337891
163.1811698,170.149993896484
163.1967948,126.410003662109
163.2124198,84.4899978637695
163.2280448,51.189998626709
163.2436698,26.9200000762939
163.2592948,8.06999969482422
163.2749198,-10.0100002288818
163.2905448,-30.3400001525879
163.3061698,-52.5499992370605
163.3217948,-73.2900009155273
163.3374198,-88.4400024414063
163.3530448,-95.4599990844727
163.3686698,-94.4599990844727
163.3842948,-87.6699981689453
163.3999198,-78.25
163.4155448,-69.0999984741211
163.4311698,-62.1300010681152
163.4467948,-57.9700012207031
163.4624198,-56.2799987792969
163.4780448,-56.1800003051758
163.4936698,-56.4900016784668
163.5092948,-55.8899993896484
163.5249198,-53.5699996948242
163.5405448,-50.060001373291
163.5561698,-46.9799995422363
163.5717948,-46.1699981689453
163.5874198,-48.4000015258789
163.6030448,-51.810001373291
163.6186698,-50.0200004577637
163.6342948,-32.5
163.6499198,9.27000045776367
163.6655448,72.9800033569336
163.6811698,142.929992675781
163.6967948,197.619995117188
163.7124198,221.339996337891
163.7280448,211.229995727539
163.7436698,176.240005493164
163.7592948,130.740005493164
163.7749198,87.3300018310547
163.7905448,52.560001373291
163.8061698,26.7900009155273
163.8217948,6.69999980926514
163.8374198,-11.4399995803833
163.8530448,-29.5400009155273
163.8686698,-46.9799995422363
163.8842948,-61.6300010681152
163.8999198,-71.3600006103516
163.9155448,-75.2300033569336
163.9311698,-74.0100021362305
163.9467948,-69.7200012207031
163.9624198,-64.8600006103516
163.9780448,-61.4300003051758
163.9936698,-60.1399993896484
164.0092948,-60.3899993896484
164.0249198,-60.8400001525879
164.0405448,-60.2200012207031
164.0561698,-57.9300003051758
164.0717948,-54.2099990844727
164.0874198,-49.7799987792969
164.1030448,-45.1500015258789
164.1186698,-40.5400009155273
164.1342948,-36.1199989318848
164.1499198,-31.8199996948242
164.1655448,-25.2900009155273
164.1811698,-9.73999977111816
164.1967948,23.3600006103516
164.2124198,76.0100021362305
164.2280448,137.850006103516
164.2436698,190.270004272461
164.2592948,217.330001831055
164.2749198,214.100006103516
164.2905448,187.210006713867
164.3061698,149.110000610352
164.3217948,111.319999694824
164.3374198,80.2399978637695
164.3530448,56.4500007629395
164.3686698,36.5200004577637
164.3842948,16.0699996948242
164.3999198,-7.3600001335144
164.4155448,-32.6399993896484
164.4311698,-55.9000015258789
164.4467948,-73.1699981689453
164.4624198,-82.6100006103516
164.4780448,-84.8899993896484
164.4936698,-82.2900009155273
164.5092948,-77.4599990844727
164.5249198,-72.5599975585938
164.5405448,-68.9899978637695
164.5561698,-67.2699966430664
164.5717948,-67.0
164.5874198,-66.9499969482422
164.6030448,-65.9300003051758
164.6186698,-63.6500015258789
164.6342948,-60.7900009155273
164.6499198,-58.2400016784668
164.6655448,-56.3199996948242
164.6811698,-54.9500007629395
164.6967948,-53.8699989318848
164.7124198,-51.8499984741211
164.7280448,-44.5400009155273
164.7436698,-24.1000003814697
164.7592948,15.9300003051758
164.7749198,72.9000015258789
164.7905448,132.779998779297
164.8061698,177.089996337891
164.8217948,193.389999389648
164.8374198,181.029998779297
164.8530448,149.419998168945
164.8686698,111.610000610352
164.8842948,77.9000015258789
164.8999198,52.6599998474121
164.9155448,34.5900001525879
164.9311698,19.25
164.9467948,1.88999998569489
164.9624198,-20.0400009155273
164.9780448,-45.1399993896484
164.9936698,-68.2900009155273
165.0092948,-83.5500030517578
165.0249198,-87.5899963378906
165.0405448,-81.4400024414063
165.0561698,-69.5100021362305
165.0717948,-57.2400016784668
165.0874198,-48.5999984741211
165.1030448,-45.0099983215332
165.1186698,-45.6699981689453
165.1342948,-48.6100006103516
165.1499198,-51.6599998474121
165.1655448,-53.2299995422363
165.1811698,-52.6800003051758
165.1967948,-50.3699989318848
165.2124198,-47.310001373291
165.2280448,-44.4799995422363
165.2436698,-42.2099990844727
165.2592948,-40.2400016784668
165.2749198,-37.1800003051758
165.2905448,-28.8299999237061
165.3061698,-7.61999988555908
165.3217948,32.4900016784668
165.3374198,88.5500030517578
165.3530448,146.720001220703
165.3686698,189.199996948242
165.3842948,204.169998168945
165.3999198,190.949996948242
165.4155448,158.380004882813
165.4311698,119.110000610352
165.4467948,83.6100006103516
165.4624198,56.6599998474121
165.4780448,37.1100006103516
165.4936698,20.5
165.5092948,2.82999992370605
165.5249198,-16.8999996185303
165.5405448,-36.6500015258789
165.5561698,-53.25
165.5717948,-64.5699996948242
165.5874198,-70.379997253418
165.6030448,-71.7900009155273
165.6186698,-70.4100036621094
165.6342948,-67.8600006103516
165.6499198,-65.4499969482422
165.6655448,-63.9000015258789
165.6811698,-63.2999992370605
165.6967948,-63.2700004577637
165.7124198,-63.1399993896484
165.7280448,-62.1199989318848
165.7436698,-59.7099990844727
165.7592948,-55.9099998474121
165.7749198,-51.5499992370605
165.7905448,-48.189998626709
165.8061698,-47.2799987792969
165.8217948,-48.9300003051758
165.8374198,-51.3400001525879
165.8530448,-50.1599998474121
165.8686698,-37.9799995422363
165.8842948,-7.01999998092651
165.8999198,43.939998626709
165.9155448,104.559997558594
165.9311698,156.740005493164
165.9467948,184.649993896484
165.9624198,182.949996948242
165.9780448,157.889999389648
165.9936698,121.900001525879
166.0092948,86.5800018310547
166.0249198,58.4900016784668
166.0405448,38.5200004577637
166.0561698,23.5799999237061
166.0717948,9.3100004196167
166.0874198,-7.25
166.1030448,-26.3099994659424
166.1186698,-45.3300018310547
166.1342948,-60.4199981689453
166.1499198,-68.6100006103516
166.1655448,-69.6699981689453
166.1811698,-65.870002746582
166.1967948,-60.1500015258789
166.2124198,-54.3499984741211
166.2280448,-48.9799995422363
166.2436698,-43.9700012207031
166.2592948,-39.4099998474121
166.2749198,-35.6800003051758
166.2905448,-33.2900009155273
166.3061698,-32.4099998474121
166.3217948,-32.4500007629395
166.3374198,-32.3899993896484
166.3530448,-31.7299995422363
166.3686698,-30.7900009155273
166.3842948,-30.2900009155273
166.3999198,-30.5699996948242
166.4155448,-30.3299999237061
166.4311698,-24.8099994659424
166.4467948,-5.84999990463257
166.4624198,32.5299987792969
166.4780448,86.5500030517578
166.4936698,141.479995727539
166.5092948,179.339996337891
166.5249198,188.880004882813
166.5405448,170.830001831055
166.5561698,135.649993896484
166.5717948,96.870002746582
166.5874198,64.4499969482422
166.6030448,41.7900009155273
166.6186698,26.7600002288818
166.6342948,14.6499996185303
166.6499198,1.0900000333786
166.6655448,-15.9499998092651
166.6811698,-35.4199981689453
166.6967948,-53.8300018310547
166.7124198,-67.4400024414063
166.7280448,-74.379997253418
166.7436698,-75.2399978637695
166.7592948,-72.3199996948242
166.7749198,-68.1600036621094
166.7905448,-64.5999984741211
166.8061698,-62.4900016784668
166.8217948,-61.9199981689453
166.8374198,-62.4300003051758
166.8530448,-63.0499992370605
166.8686698,-62.4300003051758
166.8842948,-59.5699996948242
166.8999198,-54.8300018310547
166.9155448,-49.939998626709
166.9311698,-46.75
166.9467948,-45.9000015258789
166.9624198,-46.5800018310547
166.9780448,-47.1199989318848
166.9936698,-44.7900009155273
167.0092948,-34.1399993896484
167.0249198,-7.48000001907349
167.0405448,39.0800018310547
167.0561698,98.8899993896484
167.0717948,155.199996948242
167.0874198,190.050003051758
167.1030448,194.190002441406
167.1186698,170.940002441406
167.1342948,132.729995727539
167.1499198,93.4300003051758
167.1655448,62.0499992370605
167.1811698,40.6500015258789
167.1967948,26.1299991607666
167.2124198,13.4499998092651
167.2280448,-1.44000005722046
167.2436698,-19.8899993896484
167.2592948,-40.2599983215332
167.2749198,-58.8199996948242
167.2905448,-71.7799987792969
167.3061698,-77.3000030517578
167.3217948,-76.1999969482422
167.3374198,-70.9400024414063
167.3530448,-64.2600021362305
167.3686698,-58.2799987792969
167.3842948,-54.2099990844727
167.3999198,-52.3400001525879
167.4155448,-52.4300003051758
167.4311698,-54.1399993896484
167.4467948,-57.0400009155273
167.4624198,-60.3499984741211
167.4780448,-63.0800018310547
167.4936698,-64.3899993896484
167.5092948,-64.0100021362305
167.5249198,-62.3699989318848
167.5405448,-60.2299995422363
167.5561698,-57.8300018310547
167.5717948,-53.2999992370605
167.5874198,-40.939998626709
167.6030448,-12.6400003433228
167.6186698,35.3899993896484
167.6342948,95.879997253418
167.6499198,151.759994506836
167.6655448,185.350006103516
167.6811698,187.919998168945
167.6967948,163.160003662109
167.7124198,123.470001220703
167.7280448,82.629997253418
167.7436698,49.6100006103516
167.7592948,26.7700004577637
167.7749198,11.5100002288818
167.7905448,-0.629999995231628
167.8061698,-13.5500001907349
167.8217948,-28.8700008392334
167.8374198,-45.5299987792969
167.8530448,-60.7400016784668
167.8686698,-71.6699981689453
167.8842948,-76.6800003051758
167.8999198,-76.1100006103516
167.9155448,-72.1900024414063
167.9311698,-67.9700012207031
167.9467948,-65.6999969482422
167.9624198,-65.7200012207031
167.9780448,-66.6999969482422
167.9936698,-66.9599990844727
168.0092948,-65.7699966430664
168.0249198,-63.6199989318848
168.0405448,-61.5299987792969
168.0561698,-60.1800003051758
168.0717948,-59.4799995422363
168.0874198,-58.7599983215332
168.1030448,-57.0999984741211
168.1186698,-53.9799995422363
168.1342948,-49.5400009155273
168.1499198,-42.8899993896484
168.1655448,-28.9400005340576
168.1811698,0.930000007152557
168.1967948,51.2000007629395
168.2124198,114.190002441406
168.2280448,171.75
168.2436698,205.660003662109
168.2592948,207.690002441406
168.2749198,182.289993286133
168.2905448,142.100006103516
168.3061698,100.610000610352
168.3217948,66.7099990844727
168.3374198,42.8800010681152
168.3530448,26.6000003814697
168.3686698,13.1400003433228
168.3842948,-1.79999995231628
168.3999198,-19.9899997711182
168.4155448,-39.7599983215332
168.4311698,-57.060001373291
168.4467948,-68.0999984741211
168.4624198,-71.5199966430664
168.4780448,-68.629997253418
168.4936698,-62.1199989318848
168.5092948,-54.8199996948242
168.5249198,-48.7999992370605
168.5405448,-44.9799995422363
168.5561698,-43.0099983215332
168.5717948,-41.8800010681152
168.5874198,-40.7200012207031
168.6030448,-39.2900009155273
168.6186698,-37.8300018310547
168.6342948,-36.75
168.6499198,-36.3899993896484
168.6655448,-36.9599990844727
168.6811698,-38.3400001525879
168.6967948,-39.9500007629395
168.7124198,-40.4700012207031
168.7280448,-36.3600006103516
168.7436698,-20.2399997711182
168.7592948,15.539999961853
168.7749198,70.6699981689453
168.7905448,132.419998168945
168.8061698,181.279998779297
168.8217948,202.050003051758
168.8374198,191.309997558594
168.8530448,157.279998779297
168.8686698,113.680000305176
168.8842948,72.9700012207031
168.8999198,42.060001373291
168.9155448,21.6299991607666
168.9311698,7.69000005722046
168.9467948,-5.48999977111816
168.9624198,-22.2099990844727
168.9780448,-42.9900016784668
168.9936698,-64.5699996948242
169.0092948,-82.0800018310547
169.0249198,-91.8600006103516
169.0405448,-93.2900009155273
169.0561698,-88.6800003051758
169.0717948,-81.6600036621094
169.0874198,-75.2799987792969
169.1030448,-70.9800033569336
169.1186698,-68.4599990844727
169.1342948,-66.4400024414063
169.1499198,-63.6100006103516
169.1655448,-59.6800003051758
169.1811698,-55.5499992370605
169.1967948,-52.560001373291
169.2124198,-51.3300018310547
169.2280448,-51.439998626709
169.2436698,-51.7099990844727
169.2592948,-50.810001373291
169.2749198,-47.8499984741211
169.2905448,-42.1300010681152
169.3061698,-31.0599994659424
169.3217948,-8.28999996185303
169.3374198,32.6800003051758
169.3530448,90.379997253418
169.3686698,151.520004272461
169.3842948,197.100006103516
169.3999198,213.229995727539
169.4155448,198.25
169.4311698,161.929992675781
169.4467948,118.73999786377
169.4624198,80.4700012207031
169.4780448,52.2599983215332
169.4936698,33.0499992370605
169.5092948,18.5200004577637
169.5249198,4.32000017166138
169.5405448,-12.0699996948242
169.5561698,-30.6900005340576
169.5717948,-49.3899993896484
169.5874198,-64.9599990844727
169.6030448,-74.6999969482422
169.6186698,-77.6699981689453
169.6342948,-75.120002746582
169.6499198,-69.8600006103516
169.6655448,-65.0299987792969
169.6811698,-62.7799987792969
169.6967948,-63.5900001525879
169.7124198,-66.379997253418
169.7280448,-69.3499984741211
169.7436698,-71.0500030517578
169.7592948,-70.879997253418
169.7749198,-69.1800003051758
169.7905448,-66.7399978637695
169.8061698,-64.2099990844727
169.8217948,-61.5999984741211
169.8374198,-58.3600006103516
169.8530448,-54.2000007629395
169.8686698,-48.4900016784668
169.8842948,-37.2099990844727
169.8999198,-11.75
169.9155448,34.6599998474121
169.9311698,97.6100006103516
169.9467948,160.220001220703
169.9624198,202.330001831055
169.9780448,212.059997558594
169.9936698,191.110000610352
170.0092948,151.639999389648
170.0249198,108.449996948242
170.0405448,71.9800033569336
170.0561698,45.6300010681152
170.0717948,27.25
170.0874198,12.3500003814697
170.1030448,-3.01999998092651
170.1186698,-20.5900001525879
170.1342948,-39.3699989318848
170.1499198,-56.6100006103516
170.1655448,-69.5
170.1811698,-76.6100006103516
170.1967948,-78.3300018310547
170.2124198,-76.1100006103516
170.2280448,-71.3199996948242
170.2436698,-65.0299987792969
170.2592948,-58.2700004577637
170.2749198,-51.9500007629395
170.2905448,-46.6300010681152
170.3061698,-42.4599990844727
170.3217948,-39.2200012207031
170.3374198,-36.9199981689453
170.3530448,-36.0
170.3686698,-36.8400001525879
170.3842948,-39.2299995422363
170.3999198,-42.3699989318848
170.4155448,-45.1199989318848
170.4311698,-45.310001373291
170.4467948,-38.1800003051758
170.4624198,-15.9899997711182
170.4780448,27.5200004577637
170.4936698,89.3600006103516
170.5092948,154.399993896484
170.5249198,202.25
170.5405448,218.460006713867
170.5561698,201.449996948242
170.5717948,161.179992675781
170.5874198,112.680000305176
170.6030448,69.0699996948242
170.6186698,37.0800018310547
170.6342948,16.5100002288818
170.6499198,2.65000009536743
170.6655448,-10.0600004196167
170.6811698,-25.0900001525879
170.6967948,-42.4000015258789
170.7124198,-59.0499992370605
170.7280448,-71.4199981689453
170.7436698,-77.6900024414063
170.7592948,-78.5299987792969
170.7749198,-76.2300033569336
170.7905448,-73.1399993896484
170.8061698,-70.6900024414063
170.8217948,-69.2399978637695
170.8374198,-68.6699981689453
170.8530448,-68.8300018310547
170.8686698,-69.4700012207031
170.8842948,-70.0100021362305
170.8999198,-69.6500015258789
170.9155448,-67.629997253418
170.9311698,-63.5999984741211
170.9467948,-57.8199996948242
170.9624198,-51.3800010681152
170.9780448,-45.7700004577637
170.9936698,-41.2200012207031
171.0092948,-33.9000015258789
171.0249198,-14.9499998092651
171.0405448,24.0499992370605
171.0561698,81.9800033569336
171.0717948,144.690002441406
171.0874198,192.100006103516
171.1030448,209.580001831055
171.1186698,195.130004882813
171.1342948,158.610000610352
171.1499198,115.110000610352
171.1655448,77.2099990844727
171.1811698,50.3899993896484
171.1967948,33.0299987792969
171.2124198,19.7099990844727
171.2280448,4.96999979019165
171.2436698,-13.8500003814697
171.2592948,-35.5499992370605
171.2749198,-56.1100006103516
171.2905448,-71.2600021362305
171.3061698,-78.7399978637695
171.3217948,-78.870002746582
171.3374198,-73.9000015258789
171.3530448,-66.7600021362305
171.3686698,-59.9700012207031
171.3842948,-54.8800010681152
171.3999198,-51.9199981689453
171.4155448,-51.0299987792969
171.4311698,-51.8800010681152
171.4467948,-53.8800010681152
171.4624198,-56.2000007629395
171.4780448,-58.1500015258789
171.4936698,-59.25
171.5092948,-58.9700012207031
171.5249198,-56.8400001525879
171.5405448,-52.9700012207031
171.5561698,-47.1500015258789
171.5717948,-35.9300003051758
171.5874198,-11.6199998855591
171.6030448,31.9200000762939
171.6186698,90.8899993896484
171.6342948,150.039993286133
171.6499198,190.820007324219
171.6655448,201.850006103516
171.6811698,183.75
171.6967948,146.830001831055
171.7124198,104.75
171.7280448,68.3899993896484
171.7436698,42.560001373291
171.7592948,25.9899997711182
171.7749198,13.5299997329712
171.7905448,-0.469999998807907
171.8061698,-18.8999996185303
171.8217948,-40.1599998474121
171.8374198,-59.4000015258789
171.8530448,-71.8000030517578
171.8686698,-75.4400024414063
171.8842948,-72.129997253418
171.8999198,-65.9599990844727
171.9155448,-60.9300003051758
171.9311698,-59.0299987792969
171.9467948,-59.6199989318848
171.9624198,-60.6300010681152
171.9780448,-60.3499984741211
171.9936698,-58.6500015258789
172.0092948,-56.6599998474121
172.0249198,-55.5800018310547
172.0405448,-55.7900009155273
172.0561698,-56.7400016784668
172.0717948,-57.5099983215332
172.0874198,-57.6399993896484
172.1030448,-57.3400001525879
172.1186698,-55.5900001525879
172.1342948,-46.9900016784668
172.1499198,-22.0200004577637
172.1655448,25.4400005340576
172.1811698,89.6600036621094
172.1967948,153.059997558594
172.2124198,195.990005493164
172.2280448,207.490005493164
172.2436698,189.649993896484
172.2592948,154.070007324219
172.2749198,114.48999786377
172.2905448,80.6800003051758
172.3061698,55.8899993896484
172.3217948,37.6500015258789
172.3374198,20.6900005340576
172.3530448,0.779999971389771
172.3686698,-22.7099990844727
172.3842948,-46.9500007629395
172.3999198,-67.8000030517578
172.4155448,-81.8600006103516
172.4311698,-87.7300033569336
172.4467948,-86.3099975585938
172.4624198,-80.2900009155273
172.4780448,-73.0199966430664
172.4936698,-67.3300018310547
172.5092948,-64.629997253418
172.5249198,-64.379997253418
172.5405448,-64.8300018310547
172.5561698,-64.4300003051758
172.5717948,-62.7099990844727
172.5874198,-60.189998626709
172.6030448,-57.689998626709
172.6186698,-55.810001373291
172.6342948,-54.8800010681152
172.6499198,-54.9700012207031
172.6655448,-55.0
