Time(s),Value(%)
1333.0066116,-23.0100002288818
1333.0222366,-10.8299999237061
1333.0378616,3.91000008583069
1333.0534866,19.6700000762939
1333.0691116,34.689998626709
1333.0847366,47.4099998474121
1333.1003616,56.8300018310547
1333.1159866,62.6500015258789
1333.1316116,65.2099990844727
1333.1472366,65.25
1333.1628616,63.6300010681152
1333.1784866,60.9000015258789
1333.1941116,57.0900001525879
1333.2097366,51.9199981689453
1333.2253616,45.2400016784668
1333.2409866,37.3499984741211
1333.2566116,28.9599990844727
1333.2722366,20.7900009155273
1333.2878616,13.3599996566772
1333.3034866,6.92999982833862
1333.3191116,1.62000000476837
1333.3347366,-2.65000009536743
1333.3503616,-6.21999979019165
1333.3659866,-9.47999954223633
1333.3816116,-12.6999998092651
1333.3972366,-15.8999996185303
1333.4128616,-18.8700008392334
1333.4284866,-21.4899997711182
1333.4441116,-23.8500003814697
1333.4597366,-26.0599994659424
1333.4753616,-27.9400005340576
1333.4909866,-29.1599998474121
1333.5066116,-29.5400009155273
1333.5222366,-29.2299995422363
1333.5378616,-28.5400009155273
1333.5534866,-27.7199993133545
1333.5691116,-26.7600002288818
1333.5847366,-25.4699993133545
1333.6003616,-23.5699996948242
1333.6159866,-21.1000003814697
1333.6316116,-18.3600006103516
1333.6472366,-15.6700000762939
1333.6628616,-13.210000038147
1333.6784866,-11.0799999237061
1333.6941116,-9.32999992370605
1333.7097366,-7.84999990463257
1333.7253616,-6.32000017166138
1333.7409866,-4.32999992370605
1333.7566116,-1.4099999666214
1333.7722366,2.9300000667572
1333.7878616,9.39000034332275
1333.8034866,18.6900005340576
1333.8191116,31.0100002288818
1333.8347366,45.4500007629395
1333.8503616,60.25
1333.8659866,73.5699996948242
1333.8816116,84.0899963378906
1333.8972366,91.2699966430664
1333.9128616,95.2399978637695
1333.9284866,96.5899963378906
1333.9441116,96.0699996948242
1333.9597366,94.2600021362305
1333.9753616,91.2200012207031
1333.9909866,86.6800003051758
1334.0066116,80.379997253418
1334.0222366,72.3499984741211
1334.0378616,62.9199981689453
1334.0534866,52.6800003051758
1334.0691116,42.4199981689453
1334.0847366,32.9700012207031
1334.1003616,24.8899993896484
1334.1159866,18.2099990844727
1334.1316116,12.5200004577637
1334.1472366,7.21999979019165
1334.1628616,1.85000002384186
1334.1784866,-3.69000005722046
1334.1941116,-9.32999992370605
1334.2097366,-14.8800001144409
1334.2253616,-20.2000007629395
1334.2409866,-25.0900001525879
1334.2566116,-29.3199996948242
1334.2722366,-32.5999984741211
1334.2878616,-34.8499984741211
1334.3034866,-36.2700004577637
1334.3191116,-37.2799987792969
1334.3347366,-38.2799987792969
1334.3503616,-39.5200004577637
1334.3659866,-41.0200004577637
1334.3816116,-42.439998626709
1334.3972366,-43.3300018310547
1334.4128616,-43.4099998474121
1334.4284866,-42.689998626709
1334.4441116,-41.3400001525879
1334.4597366,-39.6199989318848
1334.4753616,-37.9199981689453
1334.4909866,-36.6199989318848
1334.5066116,-35.9199981689453
1334.5222366,-35.7099990844727
1334.5378616,-35.5
1334.5534866,-34.810001373291
1334.5691116,-33.4099998474121
1334.5847366,-31.1900005340576
1334.6003616,-27.8999996185303
1334.6159866,-23.2099990844727
1334.6316116,-16.9899997711182
1334.6472366,-9.23999977111816
1334.6628616,-0.0500000007450581
1334.6784866,10.3299999237061
1334.6941116,21.3099994659424
1334.7097366,31.7700004577637
1334.7253616,40.2200012207031
1334.7409866,45.5
1334.7566116,47.4099998474121
1334.7722366,46.7700004577637
1334.7878616,44.9799995422363
1334.8034866,43.2599983215332
1334.8191116,41.9500007629395
1334.8347366,40.439998626709
1334.8503616,37.6199989318848
1334.8659866,32.6100006103516
1334.8816116,25.3400001525879
1334.8972366,16.6700000762939
1334.9128616,8.09000015258789
1334.9284866,0.829999983310699
1334.9441116,-4.75
1334.9597366,-9.11999988555908
1334.9753616,-13.0799999237061
1334.9909866,-17.3199996948242
1335.0066116,-22.0400009155273
1335.0222366,-26.9599990844727
1335.0378616,-31.6200008392334
1335.0534866,-35.7999992370605
1335.0691116,-39.4300003051758
1335.0847366,-42.4500007629395
1335.1003616,-44.8199996948242
1335.1159866,-46.7900009155273
1335.1316116,-48.6199989318848
1335.1472366,-50.25
1335.1628616,-51.2099990844727
1335.1784866,-51.0900001525879
1335.1941116,-49.9900016784668
1335.2097366,-48.4300003051758
1335.2253616,-46.8199996948242
1335.2409866,-45.2299995422363
1335.2566116,-43.5699996948242
1335.2722366,-41.7599983215332
1335.2878616,-39.7599983215332
1335.3034866,-37.5499992370605
1335.3191116,-35.0200004577637
1335.3347366,-32.0699996948242
1335.3503616,-28.7800006866455
1335.3659866,-25.4899997711182
1335.3816116,-22.5900001525879
1335.3972366,-20.1299991607666
1335.4128616,-17.7399997711182
1335.4284866,-14.8699998855591
1335.4441116,-11.1000003814697
1335.4597366,-6.19999980926514
1335.4753616,0.209999993443489
1335.4909866,8.5
1335.5066116,18.4400005340576
1335.5222366,29.0
1335.5378616,38.8499984741211
1335.5534866,47.2099990844727
1335.5691116,54.0
1335.5847366,59.3899993896484
1335.6003616,63.4599990844727
1335.6159866,66.0899963378906
1335.6316116,67.120002746582
1335.6472366,66.5199966430664
1335.6628616,64.5500030517578
1335.6784866,61.75
1335.6941116,58.5800018310547
1335.7097366,55.2299995422363
1335.7253616,51.5900001525879
1335.7409866,47.439998626709
1335.7566116,42.7900009155273
1335.7722366,37.9000015258789
1335.7878616,33.1100006103516
1335.8034866,28.75
1335.8191116,24.8500003814697
1335.8347366,21.2099990844727
1335.8503616,17.6100006103516
1335.8659866,14.0100002288818
1335.8816116,10.5
1335.8972366,7.17999982833862
1335.9128616,4.15999984741211
1335.9284866,1.48000001907349
1335.9441116,-0.930000007152557
1335.9597366,-3.23000001907349
1335.9753616,-5.40000009536743
1335.9909866,-7.19999980926514
1336.0066116,-8.35000038146973
1336.0222366,-8.85999965667725
1336.0378616,-9.03999996185303
1336.0534866,-9.1899995803833
1336.0691116,-9.40999984741211
1336.0847366,-9.56999969482422
1336.1003616,-9.39000034332275
1336.1159866,-8.60000038146973
1336.1316116,-7.1100001335144
1336.1472366,-5.0
1336.1628616,-2.5699999332428
1336.1784866,-0.259999990463257
1336.1941116,1.5
1336.2097366,2.40000009536743
1336.2253616,2.34999990463257
1336.2409866,1.50999999046326
1336.2566116,0.280000001192093
1336.2722366,-1.03999996185303
1336.2878616,-2.41000008583069
1336.3034866,-3.83999991416931
1336.3191116,-4.96000003814697
1336.3347366,-4.98000001907349
1336.3503616,-3.14000010490417
1336.3659866,0.689999997615814
1336.3816116,5.86999988555908
1336.3972366,11.3000001907349
1336.4128616,15.960000038147
1336.4284866,19.2900009155273
1336.4441116,21.2999992370605
1336.4597366,22.3700008392334
1336.4753616,22.9799995422363
1336.4909866,23.3700008392334
1336.5066116,23.5300006866455
1336.5222366,23.1800003051758
1336.5378616,21.9699993133545
1336.5534866,19.6700000762939
1336.5691116,16.4899997711182
1336.5847366,12.9799995422363
1336.6003616,9.71000003814697
1336.6159866,6.80000019073486
1336.6316116,4.01999998092651
1336.6472366,1.00999999046326
1336.6628616,-2.42000007629395
1336.6784866,-6.19000005722046
1336.6941116,-10.0299997329712
1336.7097366,-13.5799999237061
1336.7253616,-16.6800003051758
1336.7409866,-19.5
1336.7566116,-22.3500003814697
1336.7722366,-25.4500007629395
1336.7878616,-28.7299995422363
1336.8034866,-31.8999996185303
1336.8191116,-34.6100006103516
1336.8347366,-36.6199989318848
1336.8503616,-37.9000015258789
1336.8659866,-38.6500015258789
1336.8816116,-39.0999984741211
1336.8972366,-39.439998626709
1336.9128616,-39.75
1336.9284866,-40.0400009155273
1336.9441116,-40.25
1336.9597366,-40.3899993896484
1336.9753616,-40.5200004577637
1336.9909866,-40.5900001525879
1337.0066116,-40.439998626709
1337.0222366,-39.9000015258789
1337.0378616,-38.8699989318848
1337.0534866,-37.3699989318848
1337.0691116,-35.5900001525879
1337.0847366,-34.0
1337.1003616,-32.939998626709
1337.1159866,-32.2400016784668
1337.1316116,-31.3700008392334
1337.1472366,-29.8099994659424
1337.1628616,-27.1900005340576
1337.1784866,-23.1900005340576
1337.1941116,-17.6299991607666
1337.2097366,-10.5100002288818
1337.2253616,-2.13000011444092
1337.2409866,6.82999992370605
1337.2566116,15.4499998092651
1337.2722366,22.8700008392334
1337.2878616,28.7299995422363
1337.3034866,33.060001373291
1337.3191116,36.1800003051758
1337.3347366,38.5499992370605
1337.3503616,40.4700012207031
1337.3659866,41.6699981689453
1337.3816116,41.5699996948242
1337.3972366,39.8400001525879
1337.4128616,36.6699981689453
1337.4284866,32.6800003051758
1337.4441116,28.7399997711182
1337.4597366,25.4500007629395
1337.4753616,22.9099998474121
1337.4909866,20.7199993133545
1337.5066116,18.3600006103516
1337.5222366,15.6300001144409
1337.5378616,12.5900001525879
1337.5534866,9.39999961853027
1337.5691116,6.07000017166138
1337.5847366,2.59999990463257
1337.6003616,-0.839999973773956
1337.6159866,-4.03999996185303
1337.6316116,-6.80999994277954
1337.6472366,-9.06999969482422
1337.6628616,-10.8299999237061
1337.6784866,-12.2299995422363
1337.6941116,-13.4300003051758
1337.7097366,-14.4899997711182
1337.7253616,-15.3100004196167
1337.7409866,-15.7600002288818
1337.7566116,-15.789999961853
1337.7722366,-15.5500001907349
1337.7878616,-15.1700000762939
1337.8034866,-14.6800003051758
1337.8191116,-14.0600004196167
1337.8347366,-13.4099998474121
1337.8503616,-12.8800001144409
1337.8659866,-12.4899997711182
1337.8816116,-12.1599998474121
1337.8972366,-11.7600002288818
1337.9128616,-11.2200002670288
1337.9284866,-10.5699996948242
1337.9441116,-9.84000015258789
1337.9597366,-9.0
1337.9753616,-8.0600004196167
1337.9909866,-6.92000007629395
1338.0066116,-5.1399998664856
1338.0222366,-2.03999996185303
1338.0378616,2.92000007629395
1338.0534866,9.69999980926514
1338.0691116,17.7600002288818
1338.0847366,26.3999996185303
1338.1003616,34.7799987792969
1338.1159866,41.9599990844727
1338.1316116,47.1399993896484
1338.1472366,50.0699996948242
1338.1628616,51.0999984741211
1338.1784866,50.8899993896484
1338.1941116,50.0099983215332
1338.2097366,48.6500015258789
1338.2253616,46.7299995422363
1338.2409866,44.060001373291
1338.2566116,40.4799995422363
1338.2722366,35.8800010681152
1338.2878616,30.3099994659424
1338.3034866,23.9899997711182
1338.3191116,17.3199996948242
1338.3347366,10.5900001525879
1338.3503616,3.94000005722046
1338.3659866,-2.71000003814697
1338.3816116,-9.36999988555908
1338.3972366,-15.6199998855591
1338.4128616,-20.9699993133545
1338.4284866,-25.7700004577637
1338.4441116,-31.3199996948242
1338.4597366,-38.6199989318848
1338.4753616,-47.0400009155273
1338.4909866,-54.5800018310547
1338.5066116,-59.5400009155273
1338.5222366,-61.7099990844727
1338.5378616,-62.0299987792969
1338.5534866,-61.6500015258789
1338.5691116,-61.75
1338.5847366,-63.2099990844727
1338.6003616,-65.4300003051758
1338.6159866,-65.8399963378906
1338.6316116,-62.0699996948242
1338.6472366,-54.6800003051758
1338.6628616,-47.0299987792969
1338.6784866,-43.189998626709
1338.6941116,-45.8600006103516
1338.7097366,-55.189998626709
1338.7253616,-69.3399963378906
1338.7409866,-85.8000030517578
1338.7566116,-102.290000915527
1338.7722366,-116.709999084473
1338.7878616,-126.76000213623
1338.8034866,-130.520004272461
1338.8191116,-127.830001831055
1338.8347366,-120.610000610352
1338.8503616,-111.199996948242
1338.8659866,-100.819999694824
1338.8816116,-89.4199981689453
1338.8972366,-76.2900009155273
1338.9128616,-60.6399993896484
1338.9284866,-42.0699996948242
1338.9441116,-20.9699993133545
1338.9597366,1.39999997615814
1338.9753616,23.2700004577637
1338.9909866,43.1699981689453
1339.0066116,60.4099998474121
1339.0222366,75.0899963378906
1339.0378616,87.7399978637695
1339.0534866,98.8000030517578
1339.0691116,108.129997253418
1339.0847366,114.959999084473
1339.1003616,118.349998474121
1339.1159866,118.190002441406
1339.1316116,115.959999084473
1339.1472366,113.980003356934
1339.1628616,114.180000305176
1339.1784866,117.25
1339.1941116,122.620002746582
1339.2097366,128.800003051758
1339.2253616,134.139999389648
1339.2409866,137.369995117188
1339.2566116,137.970001220703
1339.2722366,136.110000610352
1339.2878616,132.389999389648
1339.3034866,127.400001525879
1339.3191116,121.550003051758
1339.3347366,115.069999694824
1339.3503616,108.080001831055
1339.3659866,100.870002746582
1339.3816116,94.1999969482422
1339.3972366,89.0100021362305
1339.4128616,85.7300033569336
1339.4284866,83.9899978637695
1339.4441116,82.9899978637695
1339.4597366,81.9400024414063
1339.4753616,80.3399963378906
1339.4909866,77.8600006103516
1339.5066116,74.2399978637695
1339.5222366,69.4899978637695
1339.5378616,64.0699996948242
1339.5534866,58.560001373291
1339.5691116,53.2099990844727
1339.5847366,47.9700012207031
1339.6003616,42.689998626709
1339.6159866,37.2999992370605
1339.6316116,31.9099998474121
1339.6472366,26.8199996948242
1339.6628616,22.4799995422363
1339.6784866,19.4300003051758
1339.6941116,18.1599998474121
1339.7097366,18.8600006103516
1339.7253616,21.1299991607666
1339.7409866,24.0699996948242
1339.7566116,26.6700000762939
1339.7722366,28.0900001525879
1339.7878616,27.7700004577637
1339.8034866,25.4699993133545
1339.8191116,21.1700000762939
1339.8347366,15.0100002288818
1339.8503616,7.46000003814697
1339.8659866,-0.689999997615814
1339.8816116,-8.60999965667725
1339.8972366,-15.8500003814697
1339.9128616,-22.6700000762939
1339.9284866,-29.6800003051758
1339.9441116,-37.2799987792969
1339.9597366,-45.189998626709
1339.9753616,-52.6300010681152
1339.9909866,-58.7799987792969
1340.0066116,-63.25
1340.0222366,-66.4300003051758
1340.0378616,-69.3099975585938
1340.0534866,-72.9000015258789
1340.0691116,-77.5899963378906
1340.0847366,-82.9800033569336
1340.1003616,-88.3099975585938
1340.1159866,-93.0100021362305
1340.1316116,-96.9599990844727
1340.1472366,-100.370002746582
1340.1628616,-103.319999694824
1340.1784866,-105.629997253418
1340.1941116,-107.019996643066
1340.2097366,-107.400001525879
1340.2253616,-107.089996337891
1340.2409866,-106.76000213623
1340.2566116,-106.970001220703
1340.2722366,-107.790000915527
1340.2878616,-108.730003356934
1340.3034866,-109.099998474121
1340.3191116,-108.440002441406
1340.3347366,-106.680000305176
1340.3503616,-104.199996948242
1340.3659866,-101.660003662109
1340.3816116,-99.6100006103516
1340.3972366,-98.0299987792969
1340.4128616,-96.4000015258789
1340.4284866,-94.0500030517578
1340.4441116,-90.3099975585938
1340.4597366,-84.5599975585938
1340.4753616,-76.3899993896484
1340.4909866,-65.8300018310547
1340.5066116,-53.310001373291
1340.5222366,-39.810001373291
1340.5378616,-26.75
1340.5534866,-15.4700002670288
1340.5691116,-6.71000003814697
1340.5847366,-0.409999996423721
1340.6003616,4.07999992370605
1340.6159866,7.67000007629395
1340.6316116,10.9200000762939
1340.6472366,13.8299999237061
1340.6628616,15.9899997711182
1340.6784866,17.0400009155273
1340.6941116,16.9599990844727
1340.7097366,16.0100002288818
1340.7253616,14.5799999237061
1340.7409866,13.0299997329712
1340.7566116,11.6599998474121
1340.7722366,10.6700000762939
1340.7878616,9.93000030517578
1340.8034866,9.03999996185303
1340.8191116,7.59999990463257
1340.8347366,5.63000011444092
1340.8503616,3.51999998092651
1340.8659866,1.73000001907349
1340.8816116,0.370000004768372
1340.8972366,-0.819999992847443
1340.9128616,-2.25
1340.9284866,-4.0
1340.9441116,-5.82999992370605
1340.9597366,-7.30999994277954
1340.9753616,-8.09000015258789
1340.9909866,-8.09000015258789
1341.0066116,-7.36999988555908
1341.0222366,-6.13000011444092
1341.0378616,-4.57999992370605
1341.0534866,-2.98000001907349
1341.0691116,-1.50999999046326
1341.0847366,-0.25
1341.1003616,0.810000002384186
1341.1159866,1.73000001907349
1341.1316116,2.63000011444092
1341.1472366,3.75999999046326
1341.1628616,5.34000015258789
1341.1784866,7.36999988555908
1341.1941116,9.76000022888184
1341.2097366,12.6300001144409
1341.2253616,16.4200000762939
1341.2409866,21.8700008392334
1341.2566116,29.5499992370605
1341.2722366,39.2999992370605
1341.2878616,49.8600006103516
1341.3034866,59.4199981689453
1341.3191116,66.5999984741211
1341.3347366,70.9499969482422
1341.3503616,72.9499969482422
1341.3659866,73.6699981689453
1341.3816116,73.9599990844727
1341.3972366,73.9599990844727
1341.4128616,73.1399993896484
1341.4284866,70.9199981689453
1341.4441116,67.0999984741211
1341.4597366,62.0200004577637
1341.4753616,56.3199996948242
1341.4909866,50.7700004577637
1341.5066116,45.9000015258789
1341.5222366,41.7599983215332
1341.5378616,38.0699996948242
1341.5534866,34.4000015258789
1341.5691116,30.5200004577637
1341.5847366,26.4599990844727
1341.6003616,22.3899993896484
1341.6159866,18.4400005340576
1341.6316116,14.6199998855591
1341.6472366,10.8900003433228
1341.6628616,7.19999980926514
1341.6784866,3.54999995231628
1341.6941116,0.0099999997764825
1341.7097366,-3.28999996185303
1341.7253616,-6.23000001907349
1341.7409866,-8.69999980926514
1341.7566116,-10.6899995803833
1341.7722366,-12.289999961853
1341.7878616,-13.6300001144409
1341.8034866,-14.8500003814697
1341.8191116,-15.9799995422363
1341.8347366,-16.9099998474121
1341.8503616,-17.5400009155273
1341.8659866,-17.8500003814697
1341.8816116,-17.9599990844727
1341.8972366,-17.9699993133545
1341.9128616,-17.8600006103516
1341.9284866,-17.5599994659424
1341.9441116,-17.1100006103516
1341.9597366,-16.5599994659424
1341.9753616,-15.7299995422363
1341.9909866,-14.0100002288818
1342.0066116,-10.4499998092651
1342.0222366,-4.42999982833862
1342.0378616,3.70000004768372
1342.0534866,12.6899995803833
1342.0691116,20.9500007629395
1342.0847366,27.2399997711182
1342.1003616,31.2099990844727
1342.1159866,33.2900009155273
1342.1316116,34.2099990844727
1342.1472366,34.5299987792969
1342.1628616,34.5900001525879
1342.1784866,34.439998626709
1342.1941116,33.7799987792969
1342.2097366,32.0900001525879
1342.2253616,29.0
1342.2409866,24.6000003814697
1342.2566116,19.4899997711182
1342.2722366,14.5299997329712
1342.2878616,10.3900003433228
1342.3034866,7.34000015258789
1342.3191116,5.17999982833862
1342.3347366,3.44000005722046
1342.3503616,1.63999998569489
1342.3659866,-0.490000009536743
1342.3816116,-3.03999996185303
1342.3972366,-5.8600001335144
1342.4128616,-8.71000003814697
1342.4284866,-11.4200000762939
1342.4441116,-13.8599996566772
1342.4597366,-16.0200004577637
1342.4753616,-17.9400005340576
1342.4909866,-19.7399997711182
1342.5066116,-21.5400009155273
1342.5222366,-23.3099994659424
1342.5378616,-24.8799991607666
1342.5534866,-26.0200004577637
1342.5691116,-26.5499992370605
1342.5847366,-26.4200000762939
1342.6003616,-25.8099994659424
1342.6159866,-25.0699996948242
1342.6316116,-24.6700000762939
1342.6472366,-24.9699993133545
1342.6628616,-25.9099998474121
1342.6784866,-26.9699993133545
1342.6941116,-27.5699996948242
1342.7097366,-27.4799995422363
1342.7253616,-26.7900009155273
1342.7409866,-25.5699996948242
1342.7566116,-23.5599994659424
1342.7722366,-20.3799991607666
1342.7878616,-15.9300003051758
1342.8034866,-10.5100002288818
1342.8191116,-4.71999979019165
1342.8347366,0.769999980926514
1342.8503616,5.46000003814697
1342.8659866,9.01000022888184
1342.8816116,11.4200000762939
1342.8972366,12.8699998855591
1342.9128616,13.5299997329712
1342.9284866,13.5100002288818
1342.9441116,12.9399995803833
1342.9597366,11.8699998855591
1342.9753616,10.3100004196167
1342.9909866,8.26000022888184
1343.0066116,5.86999988555908
1343.0222366,3.41000008583069
1343.0378616,1.21000003814697
1343.0534866,-0.569999992847443
1343.0691116,-1.92999994754791
1343.0847366,-2.9300000667572
1343.1003616,-3.73000001907349
1343.1159866,-4.51000022888184
1343.1316116,-5.40999984741211
1343.1472366,-6.55999994277954
1343.1628616,-8.02000045776367
1343.1784866,-9.76000022888184
1343.1941116,-11.5500001907349
1343.2097366,-13.1499996185303
1343.2253616,-14.3900003433228
1343.2409866,-15.2399997711182
1343.2566116,-15.8500003814697
1343.2722366,-16.3999996185303
1343.2878616,-16.9599990844727
1343.3034866,-17.4699993133545
1343.3191116,-17.7700004577637
1343.3347366,-17.8099994659424
1343.3503616,-17.6100006103516
1343.3659866,-17.2199993133545
1343.3816116,-16.7000007629395
