Time(s),Value(%)
0.0073503,-28.2600002288818
0.0229753,-27.2199993133545
0.0386003,-26.1000003814697
0.0542253,-24.9099998474121
0.0698503,-23.6800003051758
0.0854753,-22.4099998474121
0.1011003,-21.1100006103516
0.1167253,-19.7600002288818
0.1323503,-18.3400001525879
0.1479753,-16.8700008392334
0.1636003,-15.3800001144409
0.1792253,-13.9200000762939
0.1948503,-12.5299997329712
0.2104753,-11.210000038147
0.2261003,-9.98999977111816
0.2417253,-8.86999988555908
0.2573503,-7.8600001335144
0.2729753,-6.96000003814697
0.2886003,-6.1399998664856
0.3042253,-5.3600001335144
0.3198503,-4.6100001335144
0.3354753,-3.86999988555908
0.3511003,-3.14000010490417
0.3667253,-2.45000004768372
0.3823503,-1.78999996185303
0.3979753,-1.14999997615814
0.4136003,-0.529999971389771
0.4292253,0.0799999982118607
0.4448503,0.699999988079071
0.4604753,1.33000004291534
0.4761003,1.96000003814697
0.4917253,2.5699999332428
0.5073503,3.14000010490417
0.5229753,3.65000009536743
0.5386003,4.1100001335144
0.5542253,4.53000020980835
0.5698503,4.90999984741211
0.5854753,5.25
0.6011003,5.57000017166138
0.6167253,5.8899998664856
0.6323503,6.38000011444092
0.6479753,6.94000005722046
0.6636003,7.6100001335144
0.6792253,8.42000007629395
0.6948503,9.35999965667725
0.7104753,10.4099998474121
0.7261003,11.5
0.7417253,12.5900001525879
0.7573503,13.6499996185303
0.7729753,14.6499996185303
0.7886003,15.6300001144409
0.8042253,16.6000003814697
0.8198503,17.5799999237061
0.8354753,18.5599994659424
0.8511003,19.5499992370605
0.8667253,20.5300006866455
0.8823503,21.4899997711182
0.8979753,22.3899993896484
0.9136003,23.1700000762939
0.9292253,23.7700004577637
0.9448503,24.2000007629395
0.9604753,24.4899997711182
0.9761003,24.7000007629395
0.9917253,24.8799991607666
1.0073503,25.0400009155273
1.0229753,25.1900005340576
1.0386003,25.3099994659424
1.0542253,25.3999996185303
1.0698503,25.4500007629395
1.0854753,25.4500007629395
1.1011003,25.3999996185303
1.1167253,25.2999992370605
1.1323503,25.1800003051758
1.1479753,25.0200004577637
1.1636003,24.8500003814697
1.1792253,24.6499996185303
1.1948503,24.4500007629395
1.2104753,24.25
1.2261003,24.0200004577637
1.2417253,23.7800006866455
1.2573503,23.5100002288818
1.2729753,23.25
1.2886003,22.9899997711182
1.3042253,22.75
1.3198503,22.5300006866455
1.3354753,22.3700008392334
1.3511003,22.3600006103516
1.3667253,22.5799999237061
1.3823503,23.0499992370605
1.3979753,23.7099990844727
1.4136003,24.5
1.4292253,25.3600006103516
1.4448503,26.2399997711182
1.4604753,27.0499992370605
1.4761003,27.6599998474121
1.4917253,28.0
1.5073503,28.0900001525879
1.5229753,28.0
1.5386003,27.7999992370605
1.5542253,27.5300006866455
1.5698503,27.1700000762939
1.5854753,26.7299995422363
1.6011003,26.2199993133545
1.6167253,25.6900005340576
1.6323503,25.9500007629395
1.6479753,26.1299991607666
1.6636003,26.2299995422363
1.6792253,26.2600002288818
1.6948503,26.25
1.7104753,26.2099990844727
1.7261003,26.1499996185303
1.7417253,26.0300006866455
1.7573503,25.7999992370605
1.7729753,25.3899993896484
1.7886003,24.7900009155273
1.8042253,24.0400009155273
1.8198503,23.1800003051758
1.8354753,22.2700004577637
1.8511003,21.3299999237061
1.8667253,20.3700008392334
1.8823503,19.3999996185303
1.8979753,18.4400005340576
1.9136003,17.5
1.9292253,16.6100006103516
1.9448503,15.75
1.9604753,14.9399995803833
1.9761003,14.1300001144409
1.9917253,13.3400001525879
2.0073503,12.539999961853
2.0229753,11.7799997329712
2.0386003,11.1400003433228
2.0542253,10.6800003051758
2.0698503,10.4399995803833
2.0854753,10.3999996185303
2.1011003,10.5600004196167
2.1167253,10.9700002670288
2.1323503,11.6499996185303
2.1479753,12.5200004577637
2.1636003,13.3999996185303
2.1792253,14.0699996948242
2.1948503,14.3999996185303
2.2104753,14.3999996185303
2.2261003,14.1700000762939
2.2417253,13.8100004196167
2.2573503,13.3299999237061
2.2729753,12.7200002670288
2.2886003,11.9499998092651
2.3042253,11.0600004196167
2.3198503,10.0799999237061
2.3354753,9.05000019073486
2.3511003,7.90000009536743
2.3667253,6.57999992370605
2.3823503,5.03000020980835
2.3979753,3.16000008583069
2.4136003,0.759999990463257
2.4292253,-2.34999990463257
2.4448503,-6.17999982833862
2.4604753,-10.4300003051758
2.4761003,-14.7600002288818
2.4917253,-18.8999996185303
2.5073503,-22.75
2.5229753,-26.2600002288818
2.5386003,-29.2099990844727
2.5542253,-31.3199996948242
2.5698503,-32.5099983215332
2.5854753,-32.9599990844727
2.6011003,-32.9599990844727
2.6167253,-32.7200012207031
2.6323503,-32.8400001525879
2.6479753,-32.4000015258789
2.6636003,-31.2999992370605
2.6792253,-29.6000003814697
2.6948503,-27.5200004577637
2.7104753,-25.2600002288818
2.7261003,-23.0200004577637
2.7417253,-20.9699993133545
2.7573503,-19.2900009155273
2.7729753,-18.0799999237061
2.7886003,-17.2700004577637
2.8042253,-16.6700000762939
2.8198503,-16.0900001525879
2.8354753,-15.4899997711182
2.8511003,-14.8900003433228
2.8667253,-14.3299999237061
2.8823503,-13.8299999237061
2.8979753,-13.3400001525879
2.9136003,-12.7399997711182
2.9292253,-11.9200000762939
2.9448503,-10.8599996566772
2.9604753,-9.63000011444092
2.9761003,-8.35999965667725
2.9917253,-7.15000009536743
3.0073503,-6.07999992370605
3.0229753,-5.19999980926514
3.0386003,-4.55999994277954
3.0542253,-4.21999979019165
3.0698503,-4.15000009536743
3.0854753,-4.26999998092651
3.1011003,-4.44000005722046
3.1167253,-4.57000017166138
3.1323503,-4.59999990463257
3.1479753,-4.59999990463257
3.1636003,-4.71000003814697
3.1792253,-5.03999996185303
3.1948503,-5.53999996185303
3.2104753,-6.07999992370605
3.2261003,-6.53000020980835
3.2417253,-6.82999992370605
3.2573503,-6.98000001907349
3.2729753,-6.98000001907349
3.2886003,-6.8899998664856
3.3042253,-6.80000019073486
3.3198503,-6.82999992370605
3.3354753,-7.01999998092651
3.3511003,-7.32000017166138
3.3667253,-7.61999988555908
3.3823503,-7.84999990463257
3.3979753,-8.02000045776367
3.4136003,-8.18000030517578
3.4292253,-8.38000011444092
3.4448503,-8.61999988555908
3.4604753,-8.90999984741211
3.4761003,-9.21000003814697
3.4917253,-9.51000022888184
3.5073503,-9.80000019073486
3.5229753,-10.0
3.5386003,-10.0100002288818
3.5542253,-9.69999980926514
3.5698503,-9.07999992370605
3.5854753,-8.27999973297119
3.6011003,-7.5
3.6167253,-6.90000009536743
3.6323503,-6.53999996185303
3.6479753,-6.34000015258789
3.6636003,-6.26999998092651
3.6792253,-6.40999984741211
3.6948503,-6.76000022888184
3.7104753,-7.30999994277954
3.7261003,-7.94000005722046
3.7417253,-8.53999996185303
3.7573503,-8.97999954223633
3.7729753,-9.1899995803833
3.7886003,-9.1899995803833
3.8042253,-9.03999996185303
3.8198503,-8.84000015258789
3.8354753,-8.67000007629395
3.8511003,-8.56999969482422
3.8667253,-8.60000038146973
3.8823503,-8.85000038146973
3.8979753,-9.4399995803833
3.9136003,-10.4300003051758
3.9292253,-11.7600002288818
3.9448503,-13.2799997329712
3.9604753,-14.8199996948242
3.9761003,-16.2399997711182
3.9917253,-17.4799995422363
4.0073503,-18.5300006866455
4.0229753,-19.3700008392334
4.0386003,-19.8799991607666
4.0542253,-19.9699993133545
4.0698503,-19.6200008392334
4.0854753,-18.8999996185303
4.1011003,-17.9200000762939
4.1167253,-16.7600002288818
4.1323503,-15.5
4.1479753,-14.2700004577637
4.1636003,-13.1899995803833
4.1792253,-12.3400001525879
4.1948503,-11.6300001144409
4.2104753,-10.9399995803833
4.2261003,-10.1999998092651
4.2417253,-9.39999961853027
4.2573503,-8.55000019073486
4.2729753,-7.6399998664856
4.2886003,-6.6399998664856
4.3042253,-5.6399998664856
4.3198503,-4.76999998092651
4.3354753,-4.1100001335144
4.3511003,-3.58999991416931
4.3667253,-3.04999995231628
4.3823503,-2.4300000667572
4.3979753,-1.76999998092651
4.4136003,-1.17999994754791
4.4292253,-0.730000019073486
4.4448503,-0.5
4.4604753,-0.860000014305115
4.4761003,-2.58999991416931
4.4917253,-6.40999984741211
4.5073503,-12.5600004196167
4.5229753,-21.1599998474121
4.5386003,-32.8199996948242
4.5542253,-48.1399993896484
4.5698503,-66.75
4.5854753,-86.8499984741211
4.6011003,-106.01000213623
4.6167253,-122.76000213623
4.6323503,-137.559997558594
4.6479753,-151.550003051758
4.6636003,-164.559997558594
4.6792253,-175.130004882813
4.6948503,-181.949996948242
4.7104753,-184.940002441406
4.7261003,-185.100006103516
4.7417253,-183.570007324219
4.7573503,-180.880004882813
4.7729753,-176.940002441406
4.7886003,-171.580001831055
4.8042253,-164.830001831055
4.8198503,-156.869995117188
4.8354753,-147.960006713867
4.8511003,-138.360000610352
4.8667253,-128.059997558594
4.8823503,-116.550003051758
4.8979753,-103.220001220703
4.9136003,-87.9400024414063
4.9292253,-71.379997253418
4.9448503,-54.810001373291
4.9604753,-39.4500007629395
4.9761003,-25.9400005340576
4.9917253,-14.1899995803833
5.0073503,-3.6800000667572
5.0229753,6.09000015258789
5.0386003,15.3100004196167
5.0542253,23.9200000762939
5.0698503,31.7700004577637
5.0854753,38.75
5.1011003,44.810001373291
5.1167253,49.939998626709
5.1323503,54.2799987792969
5.1479753,58.0800018310547
5.1636003,61.6399993896484
5.1792253,65.1699981689453
5.1948503,68.75
5.2104753,72.4000015258789
5.2261003,76.1800003051758
5.2417253,80.2099990844727
5.2573503,84.4700012207031
5.2729753,88.8300018310547
5.2886003,93.0800018310547
5.3042253,97.0400009155273
5.3198503,100.589996337891
5.3354753,103.730003356934
5.3511003,106.5
5.3667253,108.949996948242
5.3823503,111.099998474121
5.3979753,112.959999084473
5.4136003,114.529998779297
5.4292253,115.860000610352
5.4448503,117.019996643066
5.4604753,118.089996337891
5.4761003,119.099998474121
5.4917253,120.059997558594
5.5073503,120.940002441406
5.5229753,121.730003356934
5.5386003,122.410003662109
5.5542253,122.949996948242
5.5698503,123.339996337891
5.5854753,123.580001831055
5.6011003,123.699996948242
5.6167253,123.769996643066
5.6323503,123.449996948242
5.6479753,123.139999389648
5.6636003,122.879997253418
5.6792253,122.699996948242
5.6948503,122.569999694824
5.7104753,122.400001525879
5.7261003,122.050003051758
5.7417253,121.440002441406
5.7573503,120.620002746582
5.7729753,119.669998168945
5.7886003,118.610000610352
5.8042253,117.349998474121
5.8198503,115.819999694824
5.8354753,114.019996643066
5.8511003,111.949996948242
5.8667253,109.5
5.8823503,106.339996337891
5.8979753,102.129997253418
5.9136003,96.8499984741211
5.9292253,90.8499984741211
5.9448503,84.6500015258789
5.9604753,78.7099990844727
5.9761003,73.3000030517578
5.9917253,68.5500030517578
6.0073503,64.5699996948242
6.0229753,61.2200012207031
6.0386003,57.9199981689453
6.0542253,53.9000015258789
6.0698503,48.7400016784668
6.0854753,42.5299987792969
6.1011003,35.7999992370605
6.1167253,29.1200008392334
6.1323503,22.9300003051758
6.1479753,17.5200004577637
6.1636003,13.1000003814697
6.1792253,9.77000045776367
6.1948503,7.44000005722046
6.2104753,5.78000020980835
6.2261003,4.44999980926514
6.2417253,3.16000008583069
6.2573503,1.80999994277954
6.2729753,0.490000009536743
6.2886003,-0.540000021457672
6.3042253,-1.14999997615814
6.3198503,-1.37999999523163
6.3354753,-1.53999996185303
6.3511003,-1.91999995708466
6.3667253,-2.65000009536743
6.3823503,-3.61999988555908
6.3979753,-4.59999990463257
6.4136003,-5.42000007629395
6.4292253,-5.96999979019165
6.4448503,-6.15999984741211
6.4604753,-5.92999982833862
6.4761003,-5.25
6.4917253,-4.17999982833862
6.5073503,-2.94000005722046
6.5229753,-1.77999997138977
6.5386003,-0.920000016689301
6.5542253,-0.389999985694885
6.5698503,-0.159999996423721
6.5854753,-0.140000000596046
6.6011003,-0.319999992847443
6.6167253,-0.730000019073486
6.6323503,-1.37000000476837
6.6479753,-2.21000003814697
6.6636003,-3.1800000667572
6.6792253,-4.23999977111816
6.6948503,-5.34000015258789
6.7104753,-6.48000001907349
6.7261003,-7.67000007629395
6.7417253,-8.9399995803833
6.7573503,-10.3100004196167
6.7729753,-11.7200002670288
6.7886003,-13.1300001144409
6.8042253,-14.460000038147
6.8198503,-15.6800003051758
6.8354753,-16.8099994659424
6.8511003,-17.8600006103516
6.8667253,-18.8199996948242
6.8823503,-19.5699996948242
6.8979753,-20.0200004577637
6.9136003,-20.1299991607666
6.9292253,-19.9699993133545
6.9448503,-19.6100006103516
6.9604753,-19.1200008392334
6.9761003,-18.5699996948242
6.9917253,-18.0799999237061
7.0073503,-17.8400001525879
7.0229753,-17.9300003051758
7.0386003,-18.3199996948242
7.0542253,-18.8799991607666
7.0698503,-19.5
7.0854753,-20.1700000762939
7.1011003,-20.8999996185303
7.1167253,-21.7199993133545
7.1323503,-22.5900001525879
7.1479753,-23.4699993133545
7.1636003,-24.2999992370605
7.1792253,-25.0300006866455
7.1948503,-25.6499996185303
7.2104753,-26.1399993896484
7.2261003,-26.4400005340576
7.2417253,-26.5
7.2573503,-26.3400001525879
7.2729753,-26.0799999237061
7.2886003,-25.9200000762939
7.3042253,-26.0300006866455
7.3198503,-26.4400005340576
7.3354753,-27.0699996948242
7.3511003,-27.8700008392334
7.3667253,-28.8199996948242
7.3823503,-29.9099998474121
7.3979753,-31.0900001525879
7.4136003,-32.2900009155273
7.4292253,-33.3800010681152
7.4448503,-34.2400016784668
7.4604753,-34.7799987792969
7.4761003,-35.0
7.4917253,-34.9199981689453
7.5073503,-34.560001373291
7.5229753,-33.8899993896484
7.5386003,-32.9799995422363
7.5542253,-31.9799995422363
7.5698503,-31.1399993896484
7.5854753,-30.6200008392334
7.6011003,-30.3999996185303
7.6167253,-30.3099994659424
7.6323503,-30.2099990844727
7.6479753,-30.2099990844727
7.6636003,-30.3799991607666
7.6792253,-30.7099990844727
7.6948503,-31.1599998474121
7.7104753,-31.6000003814697
7.7261003,-31.9099998474121
7.7417253,-32.0200004577637
7.7573503,-31.9099998474121
7.7729753,-31.6100006103516
7.7886003,-31.1200008392334
7.8042253,-30.4400005340576
7.8198503,-29.5900001525879
7.8354753,-28.7399997711182
7.8511003,-28.1100006103516
7.8667253,-27.9099998474121
7.8823503,-28.1299991607666
7.8979753,-28.6299991607666
7.9136003,-29.2800006866455
7.9292253,-29.9899997711182
7.9448503,-30.7399997711182
7.9604753,-31.5200004577637
7.9761003,-32.2700004577637
7.9917253,-32.9700012207031
8.0073503,-33.5800018310547
8.0229753,-34.0800018310547
8.0386003,-34.4599990844727
8.0542253,-34.7000007629395
8.0698503,-34.75
8.0854753,-34.5499992370605
8.1011003,-34.1100006103516
8.1167253,-33.5299987792969
8.1323503,-32.9599990844727
8.1479753,-32.4599990844727
8.1636003,-31.9300003051758
8.1792253,-31.2399997711182
8.1948503,-30.3299999237061
8.2104753,-29.3199996948242
8.2261003,-28.3600006103516
8.2417253,-27.5400009155273
8.2573503,-26.8700008392334
8.2729753,-26.2099990844727
8.2886003,-25.3400001525879
8.3042253,-24.1000003814697
8.3198503,-22.4400005340576
8.3354753,-20.4300003051758
8.3511003,-18.1399993896484
8.3667253,-15.6199998855591
8.3823503,-12.9700002670288
8.3979753,-10.4499998092651
8.4136003,-8.46000003814697
8.4292253,-7.28999996185303
8.4448503,-6.92999982833862
8.4604753,-7.09000015258789
8.4761003,-7.46000003814697
8.4917253,-7.90000009536743
8.5073503,-8.31999969482422
8.5229753,-8.68000030517578
8.5386003,-8.96000003814697
8.5542253,-9.22999954223633
8.5698503,-9.60000038146973
8.5854753,-10.2299995422363
8.6011003,-11.1700000762939
8.6167253,-12.3699998855591
8.6323503,-13.8000001907349
8.6479753,-15.3199996948242
8.6636003,-16.8199996948242
8.6792253,-18.25
8.6948503,-19.5499992370605
8.7104753,-20.75
8.7261003,-21.8999996185303
8.7417253,-23.0599994659424
8.7573503,-24.2600002288818
8.7729753,-25.5699996948242
8.7886003,-27.0799999237061
8.8042253,-28.8999996185303
8.8198503,-31.0100002288818
8.8354753,-33.2200012207031
8.8511003,-35.2599983215332
8.8667253,-36.9199981689453
8.8823503,-38.1300010681152
8.8979753,-38.9000015258789
8.9136003,-39.2200012207031
8.9292253,-39.0299987792969
8.9448503,-38.3600006103516
8.9604753,-37.3199996948242
8.9761003,-36.0699996948242
8.9917253,-34.7200012207031
9.0073503,-33.2400016784668
9.0229753,-31.5799999237061
9.0386003,-29.6900005340576
9.0542253,-27.6700000762939
9.0698503,-25.7399997711182
9.0854753,-24.1000003814697
9.1011003,-22.8099994659424
9.1167253,-21.8500003814697
9.1323503,-21.1399993896484
9.1479753,-20.7000007629395
9.1636003,-20.6700000762939
9.1792253,-21.1700000762939
9.1948503,-22.0599994659424
9.2104753,-23.0300006866455
9.2261003,-23.7600002288818
9.2417253,-24.1000003814697
9.2573503,-24.0400009155273
9.2729753,-23.5499992370605
9.2886003,-22.4699993133545
9.3042253,-20.6000003814697
9.3198503,-17.9400005340576
9.3354753,-14.6599998474121
9.3511003,-11.0100002288818
9.3667253,-7.19000005722046
9.3823503,-3.38000011444092
9.3979753,0.280000001192093
9.4136003,3.70000004768372
9.4292253,6.76000022888184
9.4448503,9.46000003814697
9.4604753,11.8000001907349
9.4761003,13.7600002288818
9.4917253,15.3500003814697
9.5073503,16.6200008392334
9.5229753,17.6599998474121
9.5386003,18.6000003814697
9.5542253,19.6100006103516
9.5698503,20.8700008392334
9.5854753,22.5100002288818
9.6011003,24.5400009155273
9.6167253,26.8999996185303
9.6323503,29.7900009155273
9.6479753,33.0699996948242
9.6636003,36.6699981689453
9.6792253,40.3600006103516
9.6948503,43.8199996948242
9.7104753,46.8600006103516
9.7261003,49.5800018310547
9.7417253,52.2200012207031
9.7573503,54.810001373291
9.7729753,57.1699981689453
9.7886003,59.0999984741211
9.8042253,60.5099983215332
9.8198503,61.4900016784668
9.8354753,62.2599983215332
9.8511003,63.0099983215332
9.8667253,63.8899993896484
9.8823503,64.9199981689453
9.8979753,66.120002746582
9.9136003,67.5599975585938
9.9292253,69.3399963378906
9.9448503,71.4000015258789
9.9604753,73.4400024414063
9.9761003,74.9499969482422
9.9917253,75.5599975585938
10.0073503,75.2699966430664
10.0229753,74.3899993896484
10.0386003,73.1800003051758
10.0542253,71.7200012207031
10.0698503,70.0100021362305
10.0854753,68.0699996948242
10.1011003,65.9599990844727
10.1167253,63.810001373291
10.1323503,61.7299995422363
10.1479753,59.7799987792969
10.1636003,57.9799995422363
10.1792253,56.3300018310547
10.1948503,54.8800010681152
10.2104753,53.6699981689453
10.2261003,52.6699981689453
10.2417253,51.7099990844727
10.2573503,50.5
10.2729753,48.8300018310547
10.2886003,46.6800003051758
10.3042253,44.2599983215332
10.3198503,41.7299995422363
10.3354753,39.1800003051758
10.3511003,36.5900001525879
10.3667253,33.9900016784668
10.3823503,31.3999996185303
10.3979753,28.9699993133545
10.4136003,26.8999996185303
10.4292253,25.3999996185303
10.4448503,24.4899997711182
10.4604753,24.1100006103516
10.4761003,24.1900005340576
10.4917253,24.7000007629395
10.5073503,25.5300006866455
10.5229753,26.3600006103516
10.5386003,26.7800006866455
10.5542253,26.4699993133545
10.5698503,25.5100002288818
10.5854753,24.1800003051758
10.6011003,22.7299995422363
10.6167253,21.2299995422363
10.6323503,19.8199996948242
10.6479753,18.5400009155273
10.6636003,17.4500007629395
10.6792253,16.4500007629395
10.6948503,15.3000001907349
10.7104753,13.789999961853
10.7261003,11.9300003051758
10.7417253,9.86999988555908
10.7573503,7.73000001907349
10.7729753,5.51000022888184
10.7886003,3.1800000667572
10.8042253,0.740000009536743
10.8198503,-1.73000001907349
10.8354753,-4.17000007629395
10.8511003,-6.51000022888184
10.8667253,-8.72000026702881
10.8823503,-10.8100004196167
10.8979753,-12.7799997329712
10.9136003,-14.6099996566772
10.9292253,-16.2800006866455
10.9448503,-17.7800006866455
10.9604753,-19.2000007629395
10.9761003,-20.6800003051758
10.9917253,-22.2999992370605
11.0073503,-23.9799995422363
11.0229753,-25.5699996948242
11.0386003,-26.9400005340576
11.0542253,-28.0799999237061
11.0698503,-29.0699996948242
11.0854753,-30.0
11.1011003,-30.8999996185303
11.1167253,-31.7399997711182
11.1323503,-32.4199981689453
11.1479753,-32.8300018310547
11.1636003,-32.9300003051758
11.1792253,-32.6800003051758
11.1948503,-31.9799995422363
11.2104753,-30.7299995422363
11.2261003,-29.0
11.2417253,-27.0599994659424
11.2573503,-25.3099994659424
11.2729753,-24.0699996948242
11.2886003,-23.3099994659424
11.3042253,-22.8299999237061
11.3198503,-22.5400009155273
11.3354753,-22.4899997711182
11.3511003,-22.7600002288818
11.3667253,-23.3199996948242
11.3823503,-24.0799999237061
11.3979753,-25.0599994659424
11.4136003,-26.4500007629395
11.4292253,-28.5
11.4448503,-31.2700004577637
11.4604753,-34.7900009155273
