Time(s),Value(μS)
590.0030367,1.2059999704361
590.0186617,1.21000003814697
590.0342867,1.2150000333786
590.0499117,1.21899998188019
590.0655367,1.22300004959106
590.0811617,1.22699999809265
590.0967867,1.23099994659424
590.1124117,1.23399996757507
590.1280367,1.23699998855591
590.1436617,1.23800003528595
590.1592867,1.24000000953674
590.1749117,1.24100005626678
590.1905367,1.24199998378754
590.2061617,1.24300003051758
590.2217867,1.24399995803833
590.2374117,1.24399995803833
590.2530367,1.24500000476837
590.2686617,1.24500000476837
590.2842867,1.24500000476837
590.2999117,1.24600005149841
590.3155367,1.24600005149841
590.3311617,1.24600005149841
590.3467867,1.24600005149841
590.3624117,1.24600005149841
590.3780367,1.24500000476837
590.3936617,1.24500000476837
590.4092867,1.24500000476837
590.4249117,1.24500000476837
590.4405367,1.24500000476837
590.4561617,1.24500000476837
590.4717867,1.24500000476837
590.4874117,1.24500000476837
590.5030367,1.24500000476837
590.5186617,1.24500000476837
590.5342867,1.24399995803833
590.5499117,1.24399995803833
590.5655367,1.24300003051758
590.5811617,1.24300003051758
590.5967867,1.24300003051758
590.6124117,1.24199998378754
590.6280367,1.24199998378754
590.6436617,1.24199998378754
590.6592867,1.24199998378754
590.6749117,1.24100005626678
590.6905367,1.24100005626678
590.7061617,1.24100005626678
590.7217867,1.24100005626678
590.7374117,1.24100005626678
590.7530367,1.24199998378754
590.7686617,1.24199998378754
590.7842867,1.24199998378754
590.7999117,1.24199998378754
590.8155367,1.24199998378754
590.8311617,1.24199998378754
590.8467867,1.24199998378754
590.8624117,1.24199998378754
590.8780367,1.24300003051758
590.8936617,1.24300003051758
590.9092867,1.24300003051758
590.9249117,1.24300003051758
590.9405367,1.24399995803833
590.9561617,1.24399995803833
590.9717867,1.24399995803833
590.9874117,1.24399995803833
591.0030367,1.24399995803833
591.0186617,1.24399995803833
591.0342867,1.24300003051758
591.0499117,1.24300003051758
591.0655367,1.24300003051758
591.0811617,1.24300003051758
591.0967867,1.24300003051758
591.1124117,1.24199998378754
591.1280367,1.24199998378754
591.1436617,1.24100005626678
591.1592867,1.24000000953674
591.1749117,1.24000000953674
591.1905367,1.24000000953674
591.2061617,1.24000000953674
591.2217867,1.24000000953674
591.2374117,1.2389999628067
591.2530367,1.2389999628067
591.2686617,1.2389999628067
591.2842867,1.2389999628067
591.2999117,1.2389999628067
591.3155367,1.23800003528595
591.3311617,1.23800003528595
591.3467867,1.23800003528595
591.3624117,1.2389999628067
591.3780367,1.2389999628067
591.3936617,1.2389999628067
591.4092867,1.2389999628067
591.4249117,1.24000000953674
591.4405367,1.24000000953674
591.4561617,1.24000000953674
591.4717867,1.24000000953674
591.4874117,1.24000000953674
591.5030367,1.24100005626678
591.5186617,1.24100005626678
591.5342867,1.24100005626678
591.5499117,1.24100005626678
591.5655367,1.24199998378754
591.5811617,1.24199998378754
591.5967867,1.24300003051758
591.6124117,1.24300003051758
591.6280367,1.24399995803833
591.6436617,1.24500000476837
591.6592867,1.24600005149841
591.6749117,1.24600005149841
591.6905367,1.24699997901917
591.7061617,1.24699997901917
591.7217867,1.24800002574921
591.7374117,1.24800002574921
591.7530367,1.24800002574921
591.7686617,1.24899995326996
591.7842867,1.24899995326996
591.7999117,1.25
591.8155367,1.25
591.8311617,1.25
591.8467867,1.25100004673004
591.8624117,1.25100004673004
591.8780367,1.25100004673004
591.8936617,1.25100004673004
591.9092867,1.25100004673004
591.9249117,1.25199997425079
591.9405367,1.25199997425079
591.9561617,1.25199997425079
591.9717867,1.25199997425079
591.9874117,1.25199997425079
592.0030367,1.25199997425079
592.0186617,1.25300002098083
592.0342867,1.25300002098083
592.0499117,1.25300002098083
592.0655367,1.25300002098083
592.0811617,1.25300002098083
592.0967867,1.25300002098083
592.1124117,1.25399994850159
592.1280367,1.25399994850159
592.1436617,1.25499999523163
592.1592867,1.25499999523163
592.1749117,1.25600004196167
592.1905367,1.25699996948242
592.2061617,1.25699996948242
592.2217867,1.25699996948242
592.2374117,1.25800001621246
592.2530367,1.25800001621246
592.2686617,1.25800001621246
592.2842867,1.25800001621246
592.2999117,1.25800001621246
592.3155367,1.25699996948242
592.3311617,1.25699996948242
592.3467867,1.25699996948242
592.3624117,1.25600004196167
592.3780367,1.25499999523163
592.3936617,1.25399994850159
592.4092867,1.25399994850159
592.4249117,1.25199997425079
592.4405367,1.25100004673004
592.4561617,1.25
592.4717867,1.24899995326996
592.4874117,1.24800002574921
592.5030367,1.24699997901917
592.5186617,1.24699997901917
592.5342867,1.24699997901917
592.5499117,1.24800002574921
592.5655367,1.24800002574921
592.5811617,1.24899995326996
592.5967867,1.24899995326996
592.6124117,1.25
592.6280367,1.25
592.6436617,1.25100004673004
592.6592867,1.25100004673004
592.6749117,1.25199997425079
592.6905367,1.25300002098083
592.7061617,1.25399994850159
592.7217867,1.25399994850159
592.7374117,1.25499999523163
592.7530367,1.25499999523163
592.7686617,1.25499999523163
592.7842867,1.25499999523163
592.7999117,1.25499999523163
592.8155367,1.25499999523163
592.8311617,1.25499999523163
592.8467867,1.25499999523163
592.8624117,1.25499999523163
592.8780367,1.25499999523163
592.8936617,1.25499999523163
592.9092867,1.25499999523163
592.9249117,1.25499999523163
592.9405367,1.25499999523163
592.9561617,1.25399994850159
592.9717867,1.25399994850159
592.9874117,1.25399994850159
593.0030367,1.25399994850159
593.0186617,1.25300002098083
593.0342867,1.25300002098083
593.0499117,1.25199997425079
593.0655367,1.25199997425079
593.0811617,1.25199997425079
593.0967867,1.25199997425079
593.1124117,1.25300002098083
593.1280367,1.25300002098083
593.1436617,1.25399994850159
593.1592867,1.25399994850159
593.1749117,1.25499999523163
593.1905367,1.25499999523163
593.2061617,1.25600004196167
593.2217867,1.25600004196167
593.2374117,1.25600004196167
593.2530367,1.25600004196167
593.2686617,1.25600004196167
593.2842867,1.25699996948242
593.2999117,1.25699996948242
593.3155367,1.25699996948242
593.3311617,1.25800001621246
593.3467867,1.25899994373322
593.3624117,1.2610000371933
593.3780367,1.26199996471405
593.3936617,1.26400005817413
593.4092867,1.26600003242493
593.4249117,1.26800000667572
593.4405367,1.26999998092651
593.4561617,1.27199995517731
593.4717867,1.27499997615814
593.4874117,1.27699995040894
593.5030367,1.27999997138977
593.5186617,1.28199994564056
593.5342867,1.28400003910065
593.5499117,1.28600001335144
593.5655367,1.28699994087219
593.5811617,1.28799998760223
593.5967867,1.28799998760223
593.6124117,1.28799998760223
593.6280367,1.28799998760223
593.6436617,1.28699994087219
593.6592867,1.2849999666214
593.6749117,1.28199994564056
593.6905367,1.27799999713898
593.7061617,1.27400004863739
593.7217867,1.26999998092651
593.7374117,1.26699995994568
593.7530367,1.26400005817413
593.7686617,1.26199996471405
593.7842867,1.2610000371933
593.7999117,1.25999999046326
593.8155367,1.25999999046326
593.8311617,1.2610000371933
593.8467867,1.2610000371933
593.8624117,1.26199996471405
593.8780367,1.26300001144409
593.8936617,1.26400005817413
593.9092867,1.26600003242493
593.9249117,1.26699995994568
593.9405367,1.26900005340576
593.9561617,1.26999998092651
593.9717867,1.27199995517731
593.9874117,1.27300000190735
594.0030367,1.27400004863739
594.0186617,1.27499997615814
594.0342867,1.27600002288818
594.0499117,1.27600002288818
594.0655367,1.27699995040894
594.0811617,1.27799999713898
594.0967867,1.27900004386902
594.1124117,1.27999997138977
594.1280367,1.28100001811981
594.1436617,1.28100001811981
594.1592867,1.28199994564056
594.1749117,1.28199994564056
594.1905367,1.28299999237061
594.2061617,1.28299999237061
594.2217867,1.28400003910065
594.2374117,1.28600001335144
594.2530367,1.28699994087219
594.2686617,1.28799998760223
594.2842867,1.28900003433228
594.2999117,1.28999996185303
594.3155367,1.28999996185303
594.3311617,1.29100000858307
594.3467867,1.29200005531311
594.3624117,1.29200005531311
594.3780367,1.29299998283386
594.3936617,1.29299998283386
594.4092867,1.29299998283386
594.4249117,1.2940000295639
594.4405367,1.2940000295639
594.4561617,1.2940000295639
594.4717867,1.2940000295639
594.4874117,1.2940000295639
594.5030367,1.2940000295639
594.5186617,1.2940000295639
594.5342867,1.2940000295639
594.5499117,1.2940000295639
594.5655367,1.2940000295639
594.5811617,1.2940000295639
594.5967867,1.2940000295639
594.6124117,1.29299998283386
594.6280367,1.29299998283386
594.6436617,1.29299998283386
594.6592867,1.29200005531311
594.6749117,1.29200005531311
594.6905367,1.29100000858307
594.7061617,1.29100000858307
594.7217867,1.28999996185303
594.7374117,1.28999996185303
594.7530367,1.28900003433228
594.7686617,1.28900003433228
594.7842867,1.28799998760223
594.7999117,1.28799998760223
594.8155367,1.28699994087219
594.8311617,1.28699994087219
594.8467867,1.28699994087219
594.8624117,1.28600001335144
594.8780367,1.28600001335144
594.8936617,1.28600001335144
594.9092867,1.28600001335144
594.9249117,1.28600001335144
594.9405367,1.28600001335144
594.9561617,1.2849999666214
594.9717867,1.2849999666214
594.9874117,1.2849999666214
595.0030367,1.2849999666214
595.0186617,1.2849999666214
595.0342867,1.2849999666214
595.0499117,1.2849999666214
595.0655367,1.2849999666214
595.0811617,1.28400003910065
595.0967867,1.28400003910065
595.1124117,1.28400003910065
595.1280367,1.28400003910065
595.1436617,1.28400003910065
595.1592867,1.28400003910065
595.1749117,1.28400003910065
595.1905367,1.28400003910065
595.2061617,1.28400003910065
595.2217867,1.28299999237061
595.2374117,1.28299999237061
595.2530367,1.28199994564056
595.2686617,1.28199994564056
595.2842867,1.28100001811981
595.2999117,1.28100001811981
595.3155367,1.28100001811981
595.3311617,1.27999997138977
595.3467867,1.27999997138977
595.3624117,1.27999997138977
595.3780367,1.27999997138977
595.3936617,1.27999997138977
595.4092867,1.27999997138977
595.4249117,1.27999997138977
595.4405367,1.27999997138977
595.4561617,1.27999997138977
595.4717867,1.27900004386902
595.4874117,1.27900004386902
595.5030367,1.27900004386902
595.5186617,1.27900004386902
595.5342867,1.27900004386902
595.5499117,1.27799999713898
595.5655367,1.27799999713898
595.5811617,1.27799999713898
595.5967867,1.27799999713898
595.6124117,1.27799999713898
595.6280367,1.27799999713898
595.6436617,1.27799999713898
595.6592867,1.27799999713898
595.6749117,1.27799999713898
595.6905367,1.27799999713898
595.7061617,1.27799999713898
595.7217867,1.27799999713898
595.7374117,1.27699995040894
595.7530367,1.27699995040894
595.7686617,1.27699995040894
595.7842867,1.27600002288818
595.7999117,1.27600002288818
595.8155367,1.27600002288818
595.8311617,1.27600002288818
595.8467867,1.27600002288818
595.8624117,1.27600002288818
595.8780367,1.27600002288818
595.8936617,1.27499997615814
595.9092867,1.27499997615814
595.9249117,1.27499997615814
595.9405367,1.27499997615814
595.9561617,1.27400004863739
595.9717867,1.27400004863739
595.9874117,1.27400004863739
596.0030367,1.27400004863739
596.0186617,1.27400004863739
596.0342867,1.27400004863739
596.0499117,1.27400004863739
596.0655367,1.27300000190735
596.0811617,1.27300000190735
596.0967867,1.27300000190735
596.1124117,1.27300000190735
596.1280367,1.27300000190735
596.1436617,1.27300000190735
596.1592867,1.27300000190735
596.1749117,1.27300000190735
596.1905367,1.27300000190735
596.2061617,1.27300000190735
596.2217867,1.27300000190735
596.2374117,1.27300000190735
596.2530367,1.27300000190735
596.2686617,1.27300000190735
596.2842867,1.27300000190735
596.2999117,1.27300000190735
596.3155367,1.27400004863739
596.3311617,1.27400004863739
596.3467867,1.27400004863739
596.3624117,1.27400004863739
596.3780367,1.27400004863739
596.3936617,1.27400004863739
596.4092867,1.27400004863739
596.4249117,1.27400004863739
596.4405367,1.27400004863739
596.4561617,1.27400004863739
596.4717867,1.27400004863739
596.4874117,1.27400004863739
596.5030367,1.27400004863739
596.5186617,1.27499997615814
596.5342867,1.27499997615814
596.5499117,1.27499997615814
596.5655367,1.27499997615814
596.5811617,1.27600002288818
596.5967867,1.27600002288818
596.6124117,1.27600002288818
596.6280367,1.27600002288818
596.6436617,1.27699995040894
596.6592867,1.27699995040894
596.6749117,1.27699995040894
596.6905367,1.27699995040894
596.7061617,1.27799999713898
596.7217867,1.27799999713898
596.7374117,1.27799999713898
596.7530367,1.27799999713898
596.7686617,1.27799999713898
596.7842867,1.27799999713898
596.7999117,1.27799999713898
596.8155367,1.27799999713898
596.8311617,1.27799999713898
596.8467867,1.27900004386902
596.8624117,1.27900004386902
596.8780367,1.27900004386902
596.8936617,1.27900004386902
596.9092867,1.27900004386902
596.9249117,1.27900004386902
596.9405367,1.27900004386902
596.9561617,1.27900004386902
596.9717867,1.27900004386902
596.9874117,1.27900004386902
597.0030367,1.27900004386902
597.0186617,1.27900004386902
597.0342867,1.27900004386902
597.0499117,1.27999997138977
597.0655367,1.27999997138977
597.0811617,1.27999997138977
597.0967867,1.27999997138977
597.1124117,1.27999997138977
597.1280367,1.27999997138977
597.1436617,1.27999997138977
597.1592867,1.27999997138977
597.1749117,1.27999997138977
597.1905367,1.27999997138977
597.2061617,1.27999997138977
597.2217867,1.27999997138977
597.2374117,1.27999997138977
597.2530367,1.27999997138977
597.2686617,1.27900004386902
597.2842867,1.27999997138977
597.2999117,1.27999997138977
597.3155367,1.27999997138977
597.3311617,1.27999997138977
597.3467867,1.27999997138977
597.3624117,1.27999997138977
597.3780367,1.27999997138977
597.3936617,1.27999997138977
597.4092867,1.27999997138977
597.4249117,1.27999997138977
597.4405367,1.27999997138977
597.4561617,1.28100001811981
597.4717867,1.28100001811981
597.4874117,1.28100001811981
597.5030367,1.28100001811981
597.5186617,1.28100001811981
597.5342867,1.28100001811981
597.5499117,1.28100001811981
597.5655367,1.28100001811981
597.5811617,1.28100001811981
597.5967867,1.28100001811981
597.6124117,1.28100001811981
597.6280367,1.28100001811981
597.6436617,1.28100001811981
597.6592867,1.28100001811981
597.6749117,1.28100001811981
597.6905367,1.28100001811981
597.7061617,1.28100001811981
597.7217867,1.28100001811981
597.7374117,1.28100001811981
597.7530367,1.28100001811981
597.7686617,1.28100001811981
597.7842867,1.28100001811981
597.7999117,1.28199994564056
597.8155367,1.28199994564056
597.8311617,1.28199994564056
597.8467867,1.28199994564056
597.8624117,1.28100001811981
597.8780367,1.28100001811981
597.8936617,1.28100001811981
597.9092867,1.28100001811981
597.9249117,1.28100001811981
597.9405367,1.28100001811981
597.9561617,1.28100001811981
597.9717867,1.27999997138977
597.9874117,1.27999997138977
598.0030367,1.27999997138977
598.0186617,1.27999997138977
598.0342867,1.27999997138977
598.0499117,1.27999997138977
598.0655367,1.27999997138977
598.0811617,1.28100001811981
598.0967867,1.28100001811981
598.1124117,1.28100001811981
598.1280367,1.28199994564056
598.1436617,1.28199994564056
598.1592867,1.28199994564056
598.1749117,1.28199994564056
598.1905367,1.28299999237061
598.2061617,1.28299999237061
598.2217867,1.28299999237061
598.2374117,1.28299999237061
598.2530367,1.28299999237061
598.2686617,1.28299999237061
598.2842867,1.28299999237061
598.2999117,1.28299999237061
598.3155367,1.28299999237061
598.3311617,1.28400003910065
598.3467867,1.28299999237061
598.3624117,1.28299999237061
598.3780367,1.28299999237061
598.3936617,1.28299999237061
598.4092867,1.28400003910065
598.4249117,1.28400003910065
598.4405367,1.28400003910065
598.4561617,1.28400003910065
598.4717867,1.28400003910065
598.4874117,1.28400003910065
598.5030367,1.28400003910065
598.5186617,1.2849999666214
598.5342867,1.2849999666214
598.5499117,1.2849999666214
598.5655367,1.2849999666214
598.5811617,1.28400003910065
598.5967867,1.28400003910065
598.6124117,1.28400003910065
598.6280367,1.28400003910065
598.6436617,1.28400003910065
598.6592867,1.28400003910065
598.6749117,1.28400003910065
598.6905367,1.28400003910065
598.7061617,1.28400003910065
598.7217867,1.28400003910065
598.7374117,1.28400003910065
598.7530367,1.28299999237061
598.7686617,1.28299999237061
598.7842867,1.28299999237061
598.7999117,1.28299999237061
598.8155367,1.28299999237061
598.8311617,1.28299999237061
598.8467867,1.28299999237061
598.8624117,1.28299999237061
598.8780367,1.28299999237061
598.8936617,1.28299999237061
598.9092867,1.28199994564056
598.9249117,1.28199994564056
598.9405367,1.28100001811981
598.9561617,1.27999997138977
598.9717867,1.27900004386902
598.9874117,1.27799999713898
599.0030367,1.27799999713898
599.0186617,1.27799999713898
599.0342867,1.27900004386902
599.0499117,1.27999997138977
599.0655367,1.28100001811981
599.0811617,1.28299999237061
599.0967867,1.28299999237061
599.1124117,1.28400003910065
599.1280367,1.2849999666214
599.1436617,1.2849999666214
599.1592867,1.2849999666214
599.1749117,1.2849999666214
599.1905367,1.2849999666214
599.2061617,1.28400003910065
599.2217867,1.28400003910065
599.2374117,1.28400003910065
599.2530367,1.28299999237061
599.2686617,1.28299999237061
599.2842867,1.28400003910065
599.2999117,1.28400003910065
599.3155367,1.28400003910065
599.3311617,1.2849999666214
599.3467867,1.2849999666214
599.3624117,1.28600001335144
599.3780367,1.28699994087219
599.3936617,1.28699994087219
599.4092867,1.28799998760223
599.4249117,1.28900003433228
599.4405367,1.28900003433228
599.4561617,1.28900003433228
599.4717867,1.28900003433228
599.4874117,1.28900003433228
599.5030367,1.28900003433228
599.5186617,1.28900003433228
599.5342867,1.28900003433228
599.5499117,1.28900003433228
599.5655367,1.28900003433228
599.5811617,1.28900003433228
599.5967867,1.28999996185303
599.6124117,1.28999996185303
599.6280367,1.28999996185303
599.6436617,1.28999996185303
599.6592867,1.28999996185303
599.6749117,1.28999996185303
599.6905367,1.28999996185303
599.7061617,1.29100000858307
599.7217867,1.29100000858307
599.7374117,1.29100000858307
599.7530367,1.29100000858307
599.7686617,1.29100000858307
599.7842867,1.29100000858307
599.7999117,1.29100000858307
599.8155367,1.29100000858307
599.8311617,1.29100000858307
599.8467867,1.29100000858307
599.8624117,1.29100000858307
599.8780367,1.29200005531311
599.8936617,1.29200005531311
599.9092867,1.29200005531311
599.9249117,1.29200005531311
599.9405367,1.29200005531311
599.9561617,1.29200005531311
599.9717867,1.29200005531311
599.9874117,1.29200005531311
600.0030367,1.29200005531311
600.0186617,1.29200005531311
600.0342867,1.29200005531311
600.0499117,1.29200005531311
600.0655367,1.29200005531311
600.0811617,1.29200005531311
600.0967867,1.29299998283386
600.1124117,1.29299998283386
600.1280367,1.29299998283386
600.1436617,1.29299998283386
600.1592867,1.29200005531311
600.1749117,1.29200005531311
600.1905367,1.29200005531311
600.2061617,1.29200005531311
600.2217867,1.29200005531311
600.2374117,1.29200005531311
600.2530367,1.29200005531311
600.2686617,1.29200005531311
600.2842867,1.29200005531311
600.2999117,1.29200005531311
600.3155367,1.29200005531311
600.3311617,1.29200005531311
600.3467867,1.29100000858307
600.3624117,1.29100000858307
600.3780367,1.29100000858307
600.3936617,1.29100000858307
600.4092867,1.29100000858307
600.4249117,1.28999996185303
600.4405367,1.28999996185303
600.4561617,1.28999996185303
600.4717867,1.28999996185303
600.4874117,1.28900003433228
600.5030367,1.28900003433228
600.5186617,1.28900003433228
600.5342867,1.28900003433228
600.5499117,1.28900003433228
600.5655367,1.28900003433228
600.5811617,1.28799998760223
600.5967867,1.28799998760223
600.6124117,1.28799998760223
600.6280367,1.28699994087219
600.6436617,1.28699994087219
600.6592867,1.28699994087219
600.6749117,1.28699994087219
600.6905367,1.28699994087219
600.7061617,1.28699994087219
600.7217867,1.28600001335144
600.7374117,1.28600001335144
600.7530367,1.28600001335144
600.7686617,1.28600001335144
600.7842867,1.28600001335144
600.7999117,1.2849999666214
600.8155367,1.2849999666214
