Time(s),Value(%)
51.0047644,-0.0099999997764825
51.0203894,-0.180000007152557
51.0360144,-0.430000007152557
51.0516394,-0.839999973773956
51.0672644,-1.32000005245209
51.0828894,-1.72000002861023
51.0985144,-2.02999997138977
51.1141394,-2.33999991416931
51.1297644,-2.78999996185303
51.1453894,-3.38000011444092
51.1610144,-4.03000020980835
51.1766394,-4.6100001335144
51.1922644,-5.07000017166138
51.2078894,-5.44000005722046
51.2235144,-5.80000019073486
51.2391394,-6.15999984741211
51.2547644,-6.42999982833862
51.2703894,-6.53999996185303
51.2860144,-6.42999982833862
51.3016394,-6.01999998092651
51.3172644,-5.19999980926514
51.3328894,-3.97000002861023
51.3485144,-2.53999996185303
51.3641394,-1.12999999523163
51.3797644,0.119999997317791
51.3953894,1.25999999046326
51.4110144,2.3199999332428
51.4266394,3.30999994277954
51.4422644,4.23999977111816
51.4578894,5.09999990463257
51.4735144,5.84999990463257
51.4891394,6.44000005722046
51.5047644,6.78999996185303
51.5203894,6.80999994277954
51.5360144,6.51000022888184
51.5516394,6.0
51.5672644,5.42999982833862
51.5828894,4.94000005722046
51.5985144,4.59000015258789
51.6141394,4.34999990463257
51.6297644,4.1100001335144
51.6453894,3.73000001907349
51.6610144,3.17000007629395
51.6766394,2.4300000667572
51.6922644,1.52999997138977
51.7078894,0.610000014305115
51.7235144,-0.170000001788139
51.7391394,-0.829999983310699
51.7547644,-1.52999997138977
51.7703894,-2.35999989509583
51.7860144,-3.27999997138977
51.8016394,-4.09999990463257
51.8172644,-4.6100001335144
51.8328894,-4.76000022888184
51.8485144,-4.67999982833862
51.8641394,-4.55000019073486
51.8797644,-4.44999980926514
51.8953894,-4.34000015258789
51.9110144,-4.1100001335144
51.9266394,-3.60999989509583
51.9422644,-2.72000002861023
51.9578894,-1.45000004768372
51.9735144,0.0799999982118607
51.9891394,1.76999998092651
52.0047644,3.54999995231628
52.0203894,5.30999994277954
52.0360144,6.90000009536743
52.0516394,8.06999969482422
52.0672644,8.61999988555908
52.0828894,8.51000022888184
52.0985144,7.90999984741211
52.1141394,7.1100001335144
52.1297644,6.30000019073486
52.1453894,5.55000019073486
52.1610144,4.8899998664856
52.1766394,4.32000017166138
52.1922644,3.88000011444092
52.2078894,3.49000000953674
52.2235144,3.05999994277954
52.2391394,2.4300000667572
52.2547644,1.48000001907349
52.2703894,0.259999990463257
52.2860144,-1.07000005245209
52.3016394,-2.3199999332428
52.3172644,-3.35999989509583
52.3328894,-4.1399998664856
52.3485144,-4.73000001907349
52.3641394,-5.23999977111816
52.3797644,-5.86999988555908
52.3953894,-6.67000007629395
52.4110144,-7.57999992370605
52.4266394,-8.39999961853027
52.4422644,-8.94999980926514
52.4578894,-9.11999988555908
52.4735144,-8.78999996185303
52.4891394,-7.90000009536743
52.5047644,-6.44999980926514
52.5203894,-4.51999998092651
52.5360144,-2.22000002861023
52.5516394,0.25
52.5672644,2.6800000667572
52.5828894,4.90999984741211
52.5985144,6.92999982833862
52.6141394,8.72999954223633
52.6297644,10.2799997329712
52.6453894,11.4700002670288
52.6610144,12.1800003051758
52.6766394,12.2700004577637
52.6922644,11.7299995422363
52.7078894,10.6199998855591
52.7235144,9.14000034332275
52.7391394,7.48000001907349
52.7547644,5.80999994277954
52.7703894,4.21999979019165
52.7860144,2.77999997138977
52.8016394,1.5
52.8172644,0.270000010728836
52.8328894,-1.05999994277954
52.8485144,-2.66000008583069
52.8641394,-4.42000007629395
52.8797644,-6.13000011444092
52.8953894,-7.59000015258789
52.9110144,-8.77999973297119
52.9266394,-9.77999973297119
52.9422644,-10.6499996185303
52.9578894,-11.3400001525879
52.9735144,-11.8900003433228
52.9891394,-12.4200000762939
53.0047644,-12.9799995422363
53.0203894,-13.4799995422363
53.0360144,-13.7399997711182
53.0516394,-13.460000038147
53.0672644,-12.3400001525879
53.0828894,-10.210000038147
53.0985144,-7.03999996185303
53.1141394,-2.86999988555908
53.1297644,2.16000008583069
53.1453894,7.65000009536743
53.1610144,12.8000001907349
53.1766394,16.7700004577637
53.1922644,19.1499996185303
53.2078894,20.0499992370605
53.2235144,19.7800006866455
53.2391394,18.6599998474121
53.2547644,16.9599990844727
53.2703894,14.9200000762939
53.2860144,12.6899995803833
53.3016394,10.4099998474121
53.3172644,8.15999984741211
53.3328894,5.98999977111816
53.3485144,3.88000011444092
53.3641394,1.79999995231628
53.3797644,-0.25
53.3953894,-2.32999992370605
53.4110144,-4.42000007629395
53.4266394,-6.5
53.4422644,-8.52000045776367
53.4578894,-10.4499998092651
53.4735144,-12.2700004577637
53.4891394,-14.0200004577637
53.5047644,-15.710000038147
53.5203894,-17.3199996948242
53.5360144,-18.8600006103516
53.5516394,-20.3500003814697
53.5672644,-21.7700004577637
53.5828894,-23.0100002288818
53.5985144,-23.7299995422363
53.6141394,-23.4899997711182
53.6297644,-21.8600006103516
53.6453894,-18.6800003051758
53.6610144,-14.0600004196167
53.6766394,-8.27000045776367
53.6922644,-1.72000002861023
53.7078894,5.03000020980835
53.7235144,11.3400001525879
53.7391394,16.5799999237061
53.7547644,20.3700008392334
53.7703894,22.6000003814697
53.7860144,23.4400005340576
53.8016394,23.1100006103516
53.8172644,21.8199996948242
53.8328894,19.7700004577637
53.8485144,17.1900005340576
53.8641394,14.2799997329712
53.8797644,11.2700004577637
53.8953894,8.35000038146973
53.9110144,5.67999982833862
53.9266394,3.25999999046326
53.9422644,1.08000004291534
53.9578894,-0.839999973773956
53.9735144,-2.55999994277954
53.9891394,-4.23999977111816
54.0047644,-6.1100001335144
54.0203894,-8.38000011444092
54.0360144,-11.0900001525879
54.0516394,-14.0200004577637
54.0672644,-16.75
54.0828894,-18.9500007629395
54.0985144,-20.5200004577637
54.1141394,-21.6399993896484
54.1297644,-22.6299991607666
54.1453894,-23.7099990844727
54.1610144,-24.7800006866455
54.1766394,-25.4899997711182
54.1922644,-25.3500003814697
54.2078894,-23.8099994659424
54.2235144,-20.3400001525879
54.2391394,-14.5299997329712
54.2547644,-6.34999990463257
54.2703894,3.51999998092651
54.2860144,13.8900003433228
54.3016394,23.3899993896484
54.3172644,30.9300003051758
54.3328894,35.9599990844727
54.3485144,38.5400009155273
54.3641394,39.1199989318848
54.3797644,38.3199996948242
54.3953894,36.5699996948242
54.4110144,34.0200004577637
54.4266394,30.6499996185303
54.4422644,26.5799999237061
54.4578894,22.1399993896484
54.4735144,17.7199993133545
54.4891394,13.6400003433228
54.5047644,9.97000026702881
54.5203894,6.65999984741211
54.5360144,3.57999992370605
54.5516394,0.660000026226044
54.5672644,-2.1800000667572
54.5828894,-5.07000017166138
54.5985144,-8.03999996185303
54.6141394,-11.0
54.6297644,-13.8500003814697
54.6453894,-16.6399993896484
54.6610144,-19.4300003051758
54.6766394,-22.2199993133545
54.6922644,-24.8400001525879
54.7078894,-27.0100002288818
54.7235144,-28.5300006866455
54.7391394,-29.4899997711182
54.7547644,-30.0599994659424
54.7703894,-30.1599998474121
54.7860144,-29.4500007629395
54.8016394,-27.4400005340576
54.8172644,-23.6599998474121
54.8328894,-17.7600002288818
54.8485144,-9.68000030517578
54.8641394,0.129999995231628
54.8797644,10.5699996948242
54.8953894,20.0699996948242
54.9110144,27.4699993133545
54.9266394,32.439998626709
54.9422644,35.3400001525879
54.9578894,36.7599983215332
54.9735144,37.1300010681152
54.9891394,36.560001373291
55.0047644,34.9900016784668
55.0203894,32.2999992370605
55.0360144,28.5200004577637
55.0516394,23.8899993896484
55.0672644,18.8199996948242
55.0828894,13.789999961853
55.0985144,9.14999961853027
55.1141394,5.07999992370605
55.1297644,1.63999998569489
55.1453894,-1.1599999666214
55.1610144,-3.42000007629395
55.1766394,-5.38000011444092
55.1922644,-7.40999984741211
55.2078894,-9.69999980926514
55.2235144,-12.1599998474121
55.2391394,-14.6099996566772
55.2547644,-16.9899997711182
55.2703894,-19.3400001525879
55.2860144,-21.7199993133545
55.3016394,-23.9799995422363
55.3172644,-25.9500007629395
55.3328894,-27.6000003814697
55.3485144,-28.9799995422363
55.3641394,-30.1200008392334
55.3797644,-30.9699993133545
55.3953894,-31.4300003051758
55.4110144,-31.4300003051758
55.4266394,-30.7199993133545
55.4422644,-28.7199993133545
55.4578894,-24.6200008392334
55.4735144,-17.8400001525879
55.4891394,-8.39000034332275
55.5047644,2.95000004768372
55.5203894,14.8900003433228
55.5360144,25.8500003814697
55.5516394,34.3199996948242
55.5672644,39.3899993896484
55.5828894,41.1100006103516
55.5985144,40.310001373291
55.6141394,38.0200004577637
55.6297644,34.9300003051758
55.6453894,31.3600006103516
55.6610144,27.3799991607666
55.6766394,23.0699996948242
55.6922644,18.6299991607666
55.7078894,14.3000001907349
55.7235144,10.289999961853
55.7391394,6.73999977111816
55.7547644,3.64000010490417
55.7703894,0.879999995231628
55.7860144,-1.70000004768372
55.8016394,-4.26999998092651
55.8172644,-6.8899998664856
55.8328894,-9.48999977111816
55.8485144,-11.9300003051758
55.8641394,-14.1099996566772
55.8797644,-16.0100002288818
55.8953894,-17.6700000762939
55.9110144,-19.1900005340576
55.9266394,-20.6900005340576
55.9422644,-22.25
55.9578894,-23.7900009155273
55.9735144,-25.1399993896484
55.9891394,-26.1100006103516
56.0047644,-26.6100006103516
56.0203894,-26.5599994659424
56.0360144,-25.5900001525879
56.0516394,-22.9799995422363
56.0672644,-17.9400005340576
56.0828894,-10.0200004577637
56.0985144,0.469999998807907
56.1141394,12.289999961853
56.1297644,23.5300006866455
56.1453894,32.7000007629395
56.1610144,39.5200004577637
56.1766394,44.6399993896484
56.1922644,48.9599990844727
56.2078894,53.6300010681152
56.2235144,61.0200004577637
56.2391394,74.5400009155273
56.2547644,95.5899963378906
56.2703894,120.040000915527
56.2860144,138.539993286133
56.3016394,141.699996948242
56.3172644,126.01000213623
56.3328894,95.6999969482422
56.3485144,59.5200004577637
56.3641394,25.6399993896484
56.3797644,-1.76999998092651
56.3953894,-22.6599998474121
56.4110144,-39.1800003051758
56.4266394,-53.5800018310547
56.4422644,-66.9300003051758
56.4578894,-79.1600036621094
56.4735144,-89.6699981689453
56.4891394,-98.0299987792969
56.5047644,-104.309997558594
56.5203894,-109.040000915527
56.5360144,-112.680000305176
56.5516394,-115.180000305176
56.5672644,-116.160003662109
56.5828894,-115.370002746582
56.5985144,-112.830001831055
56.6141394,-108.76000213623
56.6297644,-103.300003051758
56.6453894,-96.0699996948242
56.6610144,-86.0599975585938
56.6766394,-72.3499984741211
56.6922644,-55.0200004577637
56.7078894,-35.4199981689453
56.7235144,-15.5699996948242
56.7391394,2.58999991416931
56.7547644,17.8299999237061
56.7703894,29.7099990844727
56.7860144,38.4000015258789
56.8016394,44.3300018310547
56.8172644,47.8899993896484
56.8328894,49.3400001525879
56.8485144,48.7799987792969
56.8641394,46.3899993896484
56.8797644,42.5400009155273
56.8953894,37.7999992370605
56.9110144,32.75
56.9266394,27.9500007629395
56.9422644,23.8500003814697
56.9578894,20.6299991607666
56.9735144,18.2000007629395
56.9891394,16.2800006866455
57.0047644,14.4700002670288
57.0203894,12.4099998474121
57.0360144,9.90999984741211
57.0516394,7.01999998092651
57.0672644,3.86999988555908
57.0828894,0.720000028610229
57.0985144,-2.17000007629395
57.1141394,-4.6100001335144
57.1297644,-6.51999998092651
57.1453894,-7.98999977111816
57.1610144,-9.22999954223633
57.1766394,-10.3699998855591
57.1922644,-11.3400001525879
57.2078894,-11.7600002288818
57.2235144,-10.9499998092651
57.2391394,-8.06999969482422
57.2547644,-2.27999997138977
57.2703894,7.01999998092651
57.2860144,19.5799999237061
57.3016394,33.8600006103516
57.3172644,47.689998626709
57.3328894,59.1699981689453
57.3485144,67.1999969482422
57.3641394,71.5599975585938
57.3797644,72.6500015258789
57.3953894,71.129997253418
57.4110144,67.6500015258789
57.4266394,62.6500015258789
57.4422644,56.2900009155273
57.4578894,48.5499992370605
57.4735144,39.5499992370605
57.4891394,29.7199993133545
57.5047644,19.6900005340576
57.5203894,10.1300001144409
57.5360144,1.54999995231628
57.5516394,-5.69999980926514
57.5672644,-11.6000003814697
57.5828894,-16.2900009155273
57.5985144,-20.25
57.6141394,-24.0599994659424
57.6297644,-28.0599994659424
57.6453894,-32.2400016784668
57.6610144,-36.4099998474121
57.6766394,-40.3600006103516
57.6922644,-43.7999992370605
57.7078894,-46.4099998474121
57.7235144,-48.0900001525879
57.7391394,-48.9599990844727
57.7547644,-49.25
57.7703894,-49.1800003051758
57.7860144,-48.810001373291
57.8016394,-47.9900016784668
57.8172644,-46.2999992370605
57.8328894,-43.1100006103516
57.8485144,-37.5999984741211
57.8641394,-29.1399993896484
57.8797644,-17.5900001525879
57.8953894,-3.40000009536743
57.9110144,12.3500003814697
57.9266394,27.9500007629395
57.9422644,41.2000007629395
57.9578894,50.3800010681152
57.9735144,54.9799995422363
57.9891394,55.6300010681152
58.0047644,53.5699996948242
58.0203894,49.939998626709
58.0360144,45.2400016784668
58.0516394,39.4799995422363
58.0672644,32.5699996948242
58.0828894,24.7299995422363
58.0985144,16.5400009155273
58.1141394,8.69999980926514
58.1297644,1.82000005245209
58.1453894,-3.79999995231628
58.1610144,-8.19999980926514
58.1766394,-11.5100002288818
58.1922644,-13.9099998474121
58.2078894,-15.6300001144409
58.2235144,-17.0300006866455
58.2391394,-18.5100002288818
58.2547644,-20.3700008392334
58.2703894,-22.6700000762939
58.2860144,-25.3700008392334
58.3016394,-28.2999992370605
58.3172644,-31.2399997711182
58.3328894,-34.0099983215332
58.3485144,-36.4199981689453
58.3641394,-38.2999992370605
58.3797644,-39.5400009155273
58.3953894,-40.0900001525879
58.4110144,-39.75
58.4266394,-38.2099990844727
58.4422644,-35.4700012207031
58.4578894,-31.7600002288818
58.4735144,-27.0
58.4891394,-20.5799999237061
58.5047644,-11.5799999237061
58.5203894,0.5
58.5360144,15.210000038147
58.5516394,31.0200004577637
58.5672644,45.8499984741211
58.5828894,57.7099990844727
58.5985144,65.4100036621094
58.6141394,68.8199996948242
58.6297644,68.5999984741211
58.6453894,65.75
58.6610144,61.1800003051758
58.6766394,55.3899993896484
58.6922644,48.4199981689453
58.7078894,40.2299995422363
58.7235144,31.1800003051758
58.7391394,22.1299991607666
58.7547644,14.210000038147
58.7703894,8.48999977111816
58.7860144,5.65000009536743
58.8016394,5.94000005722046
58.8172644,9.25
58.8328894,14.9700002670288
58.8485144,21.6599998474121
58.8641394,27.1700000762939
58.8797644,29.5699996948242
58.8953894,28.25
58.9110144,23.9699993133545
58.9266394,17.6900005340576
58.9422644,9.80000019073486
58.9578894,0.699999988079071
58.9735144,-8.72999954223633
58.9891394,-17.4699993133545
59.0047644,-25.1100006103516
59.0203894,-31.8400001525879
59.0360144,-37.9900016784668
59.0516394,-43.7999992370605
59.0672644,-49.25
59.0828894,-54.0499992370605
59.0985144,-57.7799987792969
59.1141394,-60.310001373291
59.1297644,-61.9799995422363
59.1453894,-63.2299995422363
59.1610144,-64.3000030517578
59.1766394,-65.0800018310547
59.1922644,-65.3099975585938
59.2078894,-64.6699981689453
59.2235144,-62.939998626709
59.2391394,-60.0
59.2547644,-55.9000015258789
59.2703894,-50.810001373291
59.2860144,-45.1199989318848
59.3016394,-39.310001373291
59.3172644,-33.6699981689453
59.3328894,-28.1299991607666
59.3485144,-22.4599990844727
59.3641394,-16.5499992370605
59.3797644,-10.5600004196167
59.3953894,-4.80999994277954
59.4110144,0.46000000834465
59.4266394,5.19999980926514
59.4422644,9.39000034332275
59.4578894,13.0299997329712
59.4735144,16.1299991607666
59.4891394,18.7700004577637
59.5047644,21.0699996948242
59.5203894,23.1299991607666
59.5360144,24.8899993896484
59.5516394,26.1399993896484
59.5672644,26.7900009155273
59.5828894,26.9799995422363
59.5985144,26.9599990844727
59.6141394,26.9599990844727
59.6297644,27.2999992370605
59.6453894,28.4500007629395
59.6610144,30.9200000762939
59.6766394,35.1399993896484
59.6922644,41.3699989318848
59.7078894,49.5099983215332
59.7235144,58.8400001525879
59.7391394,68.1900024414063
59.7547644,76.4000015258789
59.7703894,82.6900024414063
59.7860144,86.8099975585938
59.8016394,88.9800033569336
59.8172644,89.4599990844727
59.8328894,88.0899963378906
59.8485144,84.379997253418
59.8641394,77.7799987792969
59.8797644,68.1600036621094
59.8953894,56.1500015258789
59.9110144,43.1500015258789
59.9266394,30.8400001525879
59.9422644,20.5599994659424
59.9578894,12.8699998855591
59.9735144,7.46000003814697
59.9891394,3.23000001907349
60.0047644,-1.26999998092651
60.0203894,-7.25
60.0360144,-14.9399995803833
60.0516394,-23.6000003814697
60.0672644,-31.9699993133545
60.0828894,-38.939998626709
60.0985144,-43.6800003051758
60.1141394,-45.5200004577637
60.1297644,-44.5200004577637
60.1453894,-42.0099983215332
60.1610144,-40.3199996948242
60.1766394,-41.3699989318848
60.1922644,-45.25
60.2078894,-49.9000015258789
60.2235144,-52.2099990844727
60.2391394,-49.9099998474121
60.2547644,-42.7400016784668
60.2703894,-32.0900001525879
60.2860144,-19.8500003814697
60.3016394,-7.76000022888184
60.3172644,2.66000008583069
60.3328894,10.1899995803833
60.3485144,14.3000001907349
60.3641394,15.460000038147
60.3797644,14.7799997329712
60.3953894,13.0900001525879
60.4110144,10.5600004196167
60.4266394,6.98000001907349
60.4422644,2.29999995231628
60.4578894,-3.15000009536743
60.4735144,-8.93000030517578
60.4891394,-14.6599998474121
60.5047644,-20.1100006103516
60.5203894,-25.1499996185303
60.5360144,-29.7399997711182
60.5516394,-33.8899993896484
60.5672644,-37.5800018310547
60.5828894,-40.5999984741211
60.5985144,-42.5900001525879
60.6141394,-43.1399993896484
60.6297644,-42.1100006103516
60.6453894,-39.8800010681152
60.6610144,-37.189998626709
60.6766394,-34.7299995422363
60.6922644,-32.8600006103516
60.7078894,-31.6000003814697
60.7235144,-30.7600002288818
60.7391394,-30.1700000762939
60.7547644,-29.7000007629395
60.7703894,-29.1000003814697
60.7860144,-27.8099994659424
60.8016394,-24.9500007629395
60.8172644,-19.7099990844727
60.8328894,-11.7799997329712
60.8485144,-1.48000001907349
60.8641394,10.2299995422363
60.8797644,22.0499992370605
60.8953894,32.5800018310547
60.9110144,40.7799987792969
60.9266394,46.2400016784668
60.9422644,49.1300010681152
60.9578894,49.8600006103516
60.9735144,48.8400001525879
60.9891394,46.4799995422363
61.0047644,43.2400016784668
61.0203894,39.4500007629395
61.0360144,35.0200004577637
61.0516394,29.6200008392334
61.0672644,23.2399997711182
61.0828894,16.3299999237061
61.0985144,9.5600004196167
61.1141394,3.42000007629395
61.1297644,-1.94000005722046
61.1453894,-6.71000003814697
61.1610144,-11.0900001525879
61.1766394,-15.0299997329712
61.1922644,-18.1100006103516
61.2078894,-19.7600002288818
61.2235144,-19.8199996948242
61.2391394,-18.8099994659424
61.2547644,-17.8299999237061
61.2703894,-17.7900009155273
61.2860144,-18.9200000762939
61.3016394,-20.8899993896484
61.3172644,-23.1000003814697
61.3328894,-24.9400005340576
61.3485144,-25.8999996185303
61.3641394,-25.3099994659424
61.3797644,-22.2299995422363
61.3953894,-15.4799995422363
61.4110144,-4.3600001335144
61.4266394,10.5500001907349
61.4422644,27.0400009155273
61.4578894,41.8800010681152
61.4735144,52.4599990844727
61.4891394,57.7999992370605
61.5047644,58.4599990844727
61.5203894,55.9000015258789
61.5360144,51.7700004577637
61.5516394,47.2299995422363
61.5672644,42.7000007629395
61.5828894,38.0900001525879
61.5985144,33.310001373291
61.6141394,28.3500003814697
61.6297644,23.25
61.6453894,18.1000003814697
61.6610144,13.1899995803833
61.6766394,8.9399995803833
61.6922644,5.6100001335144
61.7078894,3.05999994277954
61.7235144,0.889999985694885
61.7391394,-1.1599999666214
61.7547644,-2.96000003814697
61.7703894,-4.26000022888184
61.7860144,-5.09000015258789
61.8016394,-6.11999988555908
61.8172644,-8.4399995803833
61.8328894,-12.710000038147
61.8485144,-18.5300006866455
61.8641394,-24.6000003814697
61.8797644,-29.6499996185303
61.8953894,-33.0699996948242
61.9110144,-34.939998626709
61.9266394,-35.5400009155273
61.9422644,-35.0099983215332
61.9578894,-33.1599998474121
61.9735144,-29.4300003051758
61.9891394,-23.2099990844727
62.0047644,-14.289999961853
62.0203894,-3.3199999332428
62.0360144,8.28999996185303
62.0516394,18.7600002288818
62.0672644,26.3700008392334
62.0828894,30.1800003051758
