Time(s),Value(%)
0.0874582,-171.369995117188
0.1030832,-181.210006713867
0.1187082,-181.729995727539
0.1343332,-175.059997558594
0.1499582,-164.850006103516
0.1655832,-154.320007324219
0.1812082,-143.949996948242
0.1968332,-131.679992675781
0.2124582,-115.389999389648
0.2280832,-95.0599975585938
0.2437082,-72.8300018310547
0.2593332,-51.4599990844727
0.2749582,-32.8499984741211
0.2905832,-17.2299995422363
0.3062082,-3.48000001907349
0.3218332,9.93000030517578
0.3374582,23.6700000762939
0.3530832,37.2000007629395
0.3687082,49.6800003051758
0.3843332,61.4000015258789
0.3999582,74.2300033569336
0.4155832,90.8499984741211
0.4312082,113.580001831055
0.4468332,143.25
0.4624582,178.429992675781
0.4780832,215.389999389648
0.4937082,249.330001831055
0.5093332,276.100006103516
0.5249582,293.380004882813
0.5405832,300.700012207031
0.5562082,298.869995117188
0.5718332,289.390014648438
0.5874582,273.940002441406
0.6030832,253.809997558594
0.6187082,229.429992675781
0.6343332,200.520004272461
0.6499582,166.839996337891
0.6655832,129.169998168945
0.6812082,89.8000030517578
0.6968332,51.9900016784668
0.7124582,18.9099998474121
0.7280832,-7.51999998092651
0.7437082,-27.3099994659424
0.7593332,-41.7599983215332
0.7749582,-52.3899993896484
0.7905832,-60.439998626709
0.8062082,-67.0599975585938
0.8218332,-73.2900009155273
0.8374582,-79.7399978637695
0.8530832,-86.6100006103516
0.8687082,-93.8899993896484
0.8843332,-101.330001831055
0.8999582,-108.370002746582
0.9155832,-114.169998168945
0.9312082,-117.980003356934
0.9468332,-119.709999084473
0.9624582,-120.319999694824
0.9780832,-121.300003051758
0.9937082,-123.559997558594
1.0093332,-126.790000915527
1.0249582,-129.940002441406
1.0405832,-132.089996337891
1.0562082,-132.449996948242
1.0718332,-129.710006713867
1.0874582,-122.309997558594
1.1030832,-109.629997253418
1.1187082,-92.9499969482422
1.1343332,-75.120002746582
1.1499582,-59.4700012207031
1.1655832,-48.5499992370605
1.1812082,-43.2099990844727
1.1968332,-42.5900001525879
1.2124582,-44.9700012207031
1.2280832,-48.8300018310547
1.2437082,-53.439998626709
1.2593332,-58.6599998474121
1.2749582,-64.3000030517578
1.2905832,-70.0199966430664
1.3062082,-75.6999969482422
1.3218332,-81.370002746582
1.3374582,-86.9100036621094
1.3530832,-91.9499969482422
1.3687082,-95.9499969482422
1.3843332,-98.4700012207031
1.3999582,-99.3300018310547
1.4155832,-98.7799987792969
1.4312082,-97.129997253418
1.4468332,-94.4899978637695
1.4624582,-90.9400024414063
1.4780832,-86.7900009155273
1.4937082,-82.5999984741211
1.5093332,-78.8099975585938
1.5249582,-75.4599990844727
1.5405832,-72.1100006103516
1.5562082,-68.2699966430664
1.5718332,-63.8400001525879
1.5874582,-59.4300003051758
1.6030832,-55.8199996948242
1.6187082,-53.1300010681152
1.6343332,-50.5400009155273
1.6499582,-46.7000007629395
1.6655832,-40.5699996948242
1.6812082,-31.9599990844727
1.6968332,-21.1499996185303
1.7124582,-7.67000007629395
1.7280832,9.93000030517578
1.7437082,32.7099990844727
1.7593332,59.3600006103516
1.7749582,86.0299987792969
1.7905832,107.910003662109
1.8062082,121.470001220703
1.8218332,125.970001220703
1.8374582,123.389999389648
1.8530832,117.069999694824
1.8687082,110.110000610352
1.8843332,104.400001525879
1.8999582,100.25
1.9155832,96.3600006103516
1.9312082,90.3600006103516
1.9468332,79.8199996948242
1.9624582,63.8800010681152
1.9780832,44.0699996948242
1.9937082,23.5400009155273
2.0093332,5.42000007629395
2.0249582,-8.36999988555908
2.0405832,-17.4599990844727
2.0562082,-22.5300006866455
2.0718332,-24.7299995422363
2.0874582,-25.3899993896484
2.1030832,-25.6800003051758
2.1187082,-26.2199993133545
2.1343332,-27.1599998474121
2.1499582,-28.5400009155273
2.1655832,-30.3899993896484
2.1812082,-32.6100006103516
2.1968332,-34.7000007629395
2.2124582,-35.8899993896484
2.2280832,-35.3899993896484
2.2437082,-32.9199981689453
2.2593332,-28.7099990844727
2.2749582,-23.2399997711182
2.2905832,-16.9500007629395
2.3062082,-10.3500003814697
2.3218332,-4.17000007629395
2.3374582,1.25999999046326
2.3530832,7.09999990463257
2.3687082,16.0200004577637
2.3843332,30.6000003814697
2.3999582,51.4700012207031
2.4155832,76.5899963378906
2.4312082,101.809997558594
2.4468332,122.379997253418
2.4624582,134.929992675781
2.4780832,138.800003051758
2.4937082,135.839996337891
2.5093332,129.440002441406
2.5249582,123.459999084473
2.5405832,120.75
2.5562082,121.269996643066
2.5718332,121.75
2.5874582,117.690002441406
2.6030832,106.269996643066
2.6187082,88.0899963378906
2.6343332,66.8199996948242
2.6499582,46.9599990844727
2.6655832,31.2299995422363
2.6812082,19.5400009155273
2.6968332,9.64000034332275
2.7124582,-1.04999995231628
2.7280832,-13.6599998474121
2.7437082,-26.9599990844727
2.7593332,-38.3300018310547
2.7749582,-46.3400001525879
2.7905832,-52.0499992370605
2.8062082,-57.4099998474121
2.8218332,-62.7999992370605
2.8374582,-67.0599975585938
2.8530832,-69.0500030517578
2.8687082,-68.7699966430664
2.8843332,-67.2300033569336
2.8999582,-65.6100006103516
2.9155832,-64.4300003051758
2.9312082,-63.3499984741211
2.9468332,-61.5099983215332
2.9624582,-58.0200004577637
2.9780832,-52.5099983215332
2.9937082,-45.4700012207031
3.0093332,-37.7299995422363
3.0249582,-29.3799991607666
3.0405832,-19.1000003814697
3.0562082,-4.65000009536743
3.0718332,15.4700002670288
3.0874582,40.6599998474121
3.1030832,67.9899978637695
3.1187082,93.4400024414063
3.1343332,113.48999786377
3.1499582,126.330001831055
3.1655832,132.190002441406
3.1812082,132.699996948242
3.1968332,129.740005493164
3.2124582,124.580001831055
3.2280832,117.830001831055
3.2437082,110.01000213623
3.2593332,101.620002746582
3.2749582,92.7699966430664
3.2905832,82.9000015258789
3.3062082,71.129997253418
3.3218332,57.2000007629395
3.3374582,42.2700004577637
3.3530832,28.8799991607666
3.3687082,19.3600006103516
3.3843332,14.2399997711182
3.3999582,12.0699996948242
3.4155832,10.460000038147
3.4312082,7.48000001907349
3.4468332,2.67000007629395
3.4624582,-3.10999989509583
3.4780832,-8.61999988555908
3.4937082,-12.8900003433228
3.5093332,-15.6599998474121
3.5249582,-17.2999992370605
3.5405832,-18.2999992370605
3.5562082,-19.0799999237061
3.5718332,-20.2399997711182
3.5874582,-22.5900001525879
3.6030832,-26.4799995422363
3.6187082,-31.2600002288818
3.6343332,-35.4199981689453
3.6499582,-37.310001373291
3.6655832,-36.0099983215332
3.6812082,-31.6000003814697
3.6968332,-25.0499992370605
3.7124582,-17.6299991607666
3.7280832,-9.89000034332275
3.7437082,-1.13999998569489
3.7593332,9.8100004196167
3.7749582,23.4500007629395
3.7905832,38.7200012207031
3.8062082,53.3699989318848
3.8218332,65.3499984741211
3.8374582,74.1600036621094
3.8530832,80.6600036621094
3.8687082,85.7699966430664
3.8843332,89.4199981689453
3.8999582,90.5999984741211
3.9155832,87.9199981689453
3.9312082,80.1399993896484
3.9468332,66.6800003051758
3.9624582,48.3300018310547
3.9780832,27.4799995422363
3.9937082,7.48000001907349
4.0093332,-8.56999969482422
4.0249582,-19.0900001525879
4.0405832,-24.1599998474121
4.0562082,-24.8799991607666
4.0718332,-22.5200004577637
4.0874582,-17.8099994659424
4.1030832,-10.8900003433228
4.1187082,-1.87000000476837
4.1343332,8.51000022888184
4.1499582,19.1100006103516
4.1655832,28.6499996185303
4.1812082,35.9300003051758
4.1968332,39.5800018310547
4.2124582,38.4300003051758
4.2280832,32.3199996948242
4.2437082,22.3700008392334
4.2593332,10.2299995422363
4.2749582,-3.0699999332428
4.2905832,-17.4500007629395
4.3062082,-33.2700004577637
4.3218332,-50.75
4.3374582,-69.5299987792969
4.3530832,-88.6900024414063
4.3687082,-107.180000305176
4.3843332,-124.0
4.3999582,-137.75
4.4155832,-146.570007324219
4.4312082,-149.029998779297
4.4468332,-145.279998779297
4.4624582,-137.660003662109
4.4780832,-129.940002441406
4.4937082,-125.639999389648
4.5093332,-126.529998779297
4.5249582,-132.089996337891
4.5405832,-140.339996337891
4.5562082,-148.970001220703
4.5718332,-156.369995117188
4.5874582,-162.039993286133
4.6030832,-166.279998779297
4.6187082,-169.729995727539
4.6343332,-173.149993896484
4.6499582,-177.289993286133
4.6655832,-182.320007324219
4.6812082,-187.380004882813
4.6968332,-191.020004272461
4.7124582,-192.070007324219
4.7280832,-190.330001831055
4.7437082,-186.479995727539
4.7593332,-181.5
4.7749582,-176.300003051758
4.7905832,-171.279998779297
4.8062082,-165.75
4.8218332,-158.179992675781
4.8374582,-147.259994506836
4.8530832,-132.770004272461
4.8687082,-115.800003051758
4.8843332,-98.1900024414063
4.8999582,-81.7200012207031
4.9155832,-67.2600021362305
4.9312082,-54.5299987792969
4.9468332,-42.4700012207031
4.9624582,-30.0300006866455
4.9780832,-16.6100006103516
4.9937082,-2.34999990463257
5.0093332,11.9099998474121
5.0249582,25.0900001525879
5.0405832,36.6199989318848
5.0562082,47.2900009155273
5.0718332,59.4199981689453
5.0874582,75.6999969482422
5.1030832,97.0800018310547
5.1187082,121.529998779297
5.1343332,144.919998168945
5.1499582,163.460006713867
5.1655832,175.429992675781
5.1812082,180.860000610352
5.1968332,180.740005493164
5.2124582,176.660003662109
5.2280832,170.610000610352
5.2437082,164.270004272461
5.2593332,158.619995117188
5.2749582,153.610000610352
5.2905832,148.009994506836
5.3062082,139.979995727539
5.3218332,128.580001831055
5.3374582,114.830001831055
5.3530832,101.160003662109
5.3687082,89.6600036621094
5.3843332,81.0299987792969
5.3999582,74.6399993896484
5.4155832,69.5299987792969
5.4312082,65.129997253418
5.4468332,61.4099998474121
5.4624582,58.689998626709
5.4780832,57.3300018310547
5.4937082,57.689998626709
5.5093332,60.0400009155273
5.5249582,64.4899978637695
5.5405832,70.8199996948242
5.5562082,78.6500015258789
5.5718332,87.620002746582
5.5874582,97.25
5.6030832,106.75
5.6187082,115.089996337891
5.6343332,120.940002441406
5.6499582,122.779998779297
5.6655832,119.290000915527
5.6812082,109.910003662109
5.6968332,95.3399963378906
5.7124582,77.4899978637695
5.7280832,58.7700004577637
5.7437082,41.25
5.7593332,26.5300006866455
5.7749582,15.9399995803833
5.7905832,10.3599996566772
5.8062082,9.61999988555908
5.8218332,12.3400001525879
5.8374582,16.3799991607666
5.8530832,19.8799991607666
5.8687082,22.1900005340576
5.8843332,23.8899993896484
5.8999582,26.0400009155273
5.9155832,29.1200008392334
5.9312082,32.3800010681152
5.9468332,34.1500015258789
5.9624582,32.7799987792969
5.9780832,27.4099998474121
5.9937082,18.1100006103516
6.0093332,5.59000015258789
6.0249582,-8.88000011444092
6.0405832,-23.5799999237061
6.0562082,-36.7000007629395
6.0718332,-46.939998626709
6.0874582,-54.0900001525879
6.1030832,-59.0
6.1187082,-63.2200012207031
6.1343332,-68.5800018310547
6.1499582,-76.5299987792969
6.1655832,-87.3000030517578
6.1812082,-99.9100036621094
6.1968332,-112.699996948242
6.2124582,-123.870002746582
6.2280832,-131.869995117188
6.2437082,-136.020004272461
6.2593332,-136.809997558594
6.2749582,-135.449996948242
6.2905832,-132.919998168945
6.3062082,-129.600006103516
6.3218332,-125.23999786377
6.3374582,-119.389999389648
6.3530832,-112.029998779297
6.3687082,-104.0
6.3843332,-96.5100021362305
6.3999582,-90.0599975585938
6.4155832,-84.0400009155273
6.4312082,-76.8199996948242
6.4468332,-66.4499969482422
6.4624582,-51.4199981689453
6.4780832,-31.4099998474121
6.4937082,-7.63000011444092
6.5093332,17.25
6.5249582,39.8699989318848
6.5405832,57.6399993896484
6.5562082,70.0299987792969
6.5718332,78.2799987792969
6.5874582,83.7900009155273
6.6030832,86.6900024414063
6.6187082,86.3000030517578
6.6343332,82.5800018310547
6.6499582,76.7099990844727
6.6655832,70.0899963378906
6.6812082,63.0900001525879
6.6968332,55.0900001525879
6.7124582,45.310001373291
6.7280832,33.75
6.7437082,21.6100006103516
6.7593332,10.8100004196167
6.7749582,2.97000002861023
6.7905832,-1.46000003814697
6.8062082,-3.17000007629395
6.8218332,-3.40000009536743
6.8374582,-3.4300000667572
6.8530832,-3.97000002861023
6.8687082,-4.84999990463257
6.8843332,-5.17000007629395
6.8999582,-4.19999980926514
6.9155832,-1.89999997615814
6.9312082,1.10000002384186
6.9468332,3.96000003814697
6.9624582,6.0
6.9780832,7.09000015258789
6.9937082,7.69000005722046
7.0093332,8.47999954223633
7.0249582,9.93000030517578
7.0405832,12.1499996185303
7.0562082,14.8199996948242
7.0718332,17.1700000762939
7.0874582,18.3099994659424
7.1030832,17.7399997711182
7.1187082,16.1100006103516
7.1343332,15.2600002288818
7.1499582,17.7299995422363
7.1655832,25.7099990844727
7.1812082,39.6699981689453
7.1968332,57.6599998474121
7.2124582,75.7900009155273
7.2280832,89.9400024414063
7.2437082,97.8199996948242
7.2593332,99.7799987792969
7.2749582,97.8300018310547
7.2905832,93.9000015258789
7.3062082,88.7300033569336
7.3218332,81.7099990844727
7.3374582,71.7699966430664
7.3530832,58.5
7.3687082,42.5999984741211
7.3843332,25.7600002288818
7.3999582,9.93000030517578
7.4155832,-3.57999992370605
7.4312082,-14.6000003814697
7.4468332,-23.4300003051758
7.4624582,-30.1800003051758
7.4780832,-34.5400009155273
7.4937082,-36.3199996948242
7.5093332,-35.9099998474121
7.5249582,-34.2700004577637
7.5405832,-32.7400016784668
7.5562082,-32.4199981689453
7.5718332,-33.7299995422363
7.5874582,-36.4000015258789
7.6030832,-39.560001373291
7.6187082,-41.9300003051758
7.6343332,-42.3400001525879
7.6499582,-40.4300003051758
7.6655832,-36.8699989318848
7.6812082,-33.1300010681152
7.6968332,-30.7000007629395
7.7124582,-30.2199993133545
7.7280832,-31.3400001525879
7.7437082,-33.2599983215332
7.7593332,-35.1399993896484
7.7749582,-35.9700012207031
7.7905832,-34.2900009155273
7.8062082,-28.4899997711182
7.8218332,-17.6299991607666
7.8374582,-2.09999990463257
7.8530832,16.1399993896484
7.8687082,34.0400009155273
7.8843332,48.4199981689453
7.8999582,57.0800018310547
7.9155832,59.5099983215332
7.9312082,56.9900016784668
7.9468332,51.9500007629395
7.9624582,46.7900009155273
7.9780832,42.8699989318848
7.9937082,40.1500015258789
8.0093332,37.4199981689453
8.0249582,32.7700004577637
8.0405832,24.4899997711182
8.0562082,12.1999998092651
8.0718332,-2.46000003814697
8.0874582,-16.7099990844727
8.1030832,-28.1200008392334
8.1187082,-35.560001373291
8.1343332,-39.2099990844727
8.1499582,-40.0400009155273
8.1655832,-39.1699981689453
8.1812082,-37.4599990844727
8.1968332,-35.4900016784668
8.2124582,-33.6199989318848
8.2280832,-32.0800018310547
8.2437082,-31.0599994659424
8.2593332,-30.8500003814697
8.2749582,-31.5
8.2905832,-32.5999984741211
8.3062082,-33.5
8.3218332,-33.9300003051758
8.3374582,-34.3699989318848
8.3530832,-35.4900016784668
8.3687082,-37.3199996948242
8.3843332,-38.9099998474121
8.3999582,-39.0699996948242
8.4155832,-37.2999992370605
8.4312082,-33.9500007629395
8.4468332,-29.6299991607666
8.4624582,-24.4099998474121
8.4780832,-17.2000007629395
8.4937082,-6.48999977111816
8.5093332,7.94999980926514
8.5249582,24.3600006103516
8.5405832,39.9199981689453
8.5562082,52.4199981689453
8.5718332,60.9599990844727
8.5874582,65.75
8.6030832,67.4899978637695
8.6187082,67.0500030517578
8.6343332,64.879997253418
8.6499582,60.6500015258789
8.6655832,53.75
8.6812082,44.060001373291
8.6968332,32.0400009155273
8.7124582,18.2399997711182
8.7280832,3.13000011444092
8.7437082,-12.4899997711182
8.7593332,-27.3099994659424
8.7749582,-39.8800010681152
8.7905832,-49.25
8.8062082,-55.3300018310547
8.8218332,-58.6800003051758
8.8374582,-60.1500015258789
8.8530832,-60.5099983215332
8.8687082,-60.439998626709
8.8843332,-60.4799995422363
8.8999582,-60.810001373291
8.9155832,-61.0800018310547
8.9312082,-60.7200012207031
8.9468332,-59.3300018310547
8.9624582,-56.9500007629395
8.9780832,-53.8699989318848
8.9937082,-50.6300010681152
9.0093332,-47.7799987792969
9.0249582,-45.5
9.0405832,-43.3400001525879
9.0562082,-40.5400009155273
9.0718332,-36.6399993896484
9.0874582,-32.0499992370605
9.1030832,-27.5599994659424
9.1187082,-23.1299991607666
9.1343332,-17.0599994659424
9.1499582,-6.73999977111816
9.1655832,9.17000007629395
9.1812082,29.1100006103516
9.1968332,49.060001373291
9.2124582,64.9300003051758
9.2280832,74.620002746582
9.2437082,78.6600036621094
9.2593332,79.0599975585938
9.2749582,77.6800003051758
9.2905832,75.3000030517578
9.3062082,71.75
9.3218332,66.5299987792969
9.3374582,59.1800003051758
9.3530832,49.560001373291
9.3687082,37.9099998474121
9.3843332,24.8999996185303
9.3999582,11.3400001525879
9.4155832,-2.01999998092651
9.4312082,-14.4300003051758
9.4468332,-24.7999992370605
9.4624582,-32.0400009155273
9.4780832,-35.8699989318848
9.4937082,-37.0499992370605
9.5093332,-36.7900009155273
9.5249582,-36.1599998474121
9.5405832,-35.9099998474121
9.5562082,-36.5099983215332
9.5718332,-38.310001373291
9.5874582,-41.5200004577637
9.6030832,-45.8300018310547
9.6187082,-50.1199989318848
9.6343332,-52.8699989318848
9.6499582,-52.9099998474121
9.6655832,-50.1500015258789
9.6812082,-45.9099998474121
9.6968332,-42.3499984741211
9.7124582,-41.1300010681152
9.7280832,-42.3199996948242
9.7437082,-44.439998626709
9.7593332,-45.2900009155273
9.7749582,-42.6100006103516
9.7905832,-34.4099998474121
9.8062082,-19.4599990844727
9.8218332,1.82000005245209
9.8374582,27.0100002288818
9.8530832,52.4300003051758
9.8687082,74.5999984741211
9.8843332,91.2900009155273
9.8999582,101.660003662109
9.9155832,105.879997253418
9.9312082,104.660003662109
9.9468332,99.0
9.9624582,90.0100021362305
9.9780832,79.0100021362305
9.9937082,67.4100036621094
10.0093332,56.189998626709
10.0249582,45.4000015258789
10.0405832,34.2400016784668
10.0562082,22.0900001525879
10.0718332,9.59000015258789
10.0874582,-1.32000005245209
10.1030832,-8.60999965667725
10.1187082,-11.289999961853
10.1343332,-9.89999961853027
10.1499582,-6.19999980926514
10.1655832,-2.35999989509583
10.1812082,-0.100000001490116
10.1968332,-0.0700000002980232
10.2124582,-1.98000001907349
10.2280832,-5.34999990463257
10.2437082,-9.97000026702881
10.2593332,-15.6800003051758
10.2749582,-22.1100006103516
10.2905832,-28.5
10.3062082,-33.7700004577637
10.3218332,-36.8600006103516
10.3374582,-37.3600006103516
10.3530832,-35.8600006103516
10.3687082,-33.5800018310547
10.3843332,-31.6900005340576
10.3999582,-30.7000007629395
10.4155832,-30.0699996948242
10.4312082,-27.8999996185303
10.4468332,-21.4200000762939
10.4624582,-8.52000045776367
10.4780832,10.4499998092651
10.4937082,32.3400001525879
10.5093332,52.4300003051758
10.5249582,66.7900009155273
10.5405832,73.9000015258789
10.5562082,74.6500015258789
10.5718332,70.879997253418
10.5874582,64.1900024414063
10.6030832,55.689998626709
10.6187082,46.3199996948242
10.6343332,36.9000015258789
10.6499582,27.7600002288818
10.6655832,18.2099990844727
10.6812082,6.71999979019165
10.6968332,-7.71000003814697
10.7124582,-24.2099990844727
10.7280832,-39.9799995422363
10.7437082,-52.0
10.7593332,-58.8300018310547
10.7749582,-60.9799995422363
10.7905832,-60.0900001525879
10.8062082,-57.9199981689453
10.8218332,-55.8300018310547
10.8374582,-54.7000007629395
10.8530832,-55.0
10.8687082,-56.6500015258789
10.8843332,-58.6800003051758
10.8999582,-59.6599998474121
10.9155832,-58.5699996948242
10.9312082,-55.2299995422363
10.9468332,-50.189998626709
10.9624582,-44.3499984741211
10.9780832,-38.5099983215332
10.9937082,-33.2099990844727
11.0093332,-28.8999996185303
11.0249582,-26.0100002288818
11.0405832,-24.6599998474121
11.0562082,-24.1900005340576
11.0718332,-23.1100006103516
11.0874582,-19.2900009155273
11.1030832,-10.5200004577637
11.1187082,4.46000003814697
11.1343332,25.0
11.1499582,48.4500007629395
11.1655832,71.3899993896484
11.1812082,90.8099975585938
11.1968332,104.75
11.2124582,112.779998779297
11.2280832,116.01000213623
11.2437082,116.400001525879
11.2593332,115.330001831055
11.2749582,112.830001831055
11.2905832,107.769996643066
11.3062082,98.7200012207031
11.3218332,84.9899978637695
11.3374582,67.0100021362305
11.3530832,46.3600006103516
11.3687082,25.3400001525879
11.3843332,6.30999994277954
11.3999582,-8.88000011444092
11.4155832,-19.3600006103516
11.4312082,-25.3799991607666
11.4468332,-28.1700000762939
11.4624582,-29.3299999237061
11.4780832,-30.1399993896484
11.4937082,-31.1499996185303
11.5093332,-32.2900009155273
11.5249582,-33.2999992370605
11.5405832,-33.9099998474121
11.5562082,-33.7000007629395
