Time(s),Value(%)
686.0126097,-19.9899997711182
686.0282347,-18.3099994659424
686.0438597,-16.5300006866455
686.0594847,-14.710000038147
686.0751097,-12.8699998855591
686.0907347,-10.9700002670288
686.1063597,-9.02000045776367
686.1219847,-7.05000019073486
686.1376097,-5.09999990463257
686.1532347,-3.09999990463257
686.1688597,-0.790000021457672
686.1844847,2.66000008583069
686.2001097,8.81999969482422
686.2157347,19.3500003814697
686.2313597,34.5699996948242
686.2469847,52.2700004577637
686.2626097,68.0199966430664
686.2782347,77.1800003051758
686.2938597,77.3600006103516
686.3094847,69.4000015258789
686.3251097,56.4700012207031
686.3407347,42.2799987792969
686.3563597,29.6599998474121
686.3719847,19.7299995422363
686.3876097,11.9499998092651
686.4032347,5.1100001335144
686.4188597,-1.69000005722046
686.4344847,-8.60000038146973
686.4501097,-15.1800003051758
686.4657347,-20.7199993133545
686.4813597,-24.5400009155273
686.4969847,-26.3199996948242
686.5126097,-26.25
686.5282347,-24.8600006103516
686.5438597,-22.75
686.5594847,-20.5
686.5751097,-18.6399993896484
686.5907347,-17.4699993133545
686.6063597,-17.0799999237061
686.6219847,-17.4300003051758
686.6376097,-18.4099998474121
686.6532347,-19.7800006866455
686.6688597,-21.1599998474121
686.6844847,-22.1900005340576
686.7001097,-22.6700000762939
686.7157347,-22.5300006866455
686.7313597,-21.8099994659424
686.7469847,-20.6499996185303
686.7626097,-19.2099990844727
686.7782347,-17.7299995422363
686.7938597,-16.3199996948242
686.8094847,-14.8999996185303
686.8251097,-13.3599996566772
686.8407347,-11.6099996566772
686.8563597,-9.64999961853027
686.8719847,-7.55999994277954
686.8876097,-5.51000022888184
686.9032347,-3.60999989509583
686.9188597,-1.67999994754791
686.9344847,1.16999995708466
686.9501097,6.78000020980835
686.9657347,17.0
686.9813597,32.0900001525879
686.9969847,49.7400016784668
687.0126097,65.6100006103516
687.0282347,75.25
687.0438597,76.2600021362305
687.0594847,69.2699966430664
687.0751097,57.1699981689453
687.0907347,43.5699996948242
687.1063597,31.2199993133545
687.1219847,21.2999992370605
687.1376097,13.4499998092651
687.1532347,6.61999988555908
687.1688597,-0.0599999986588955
687.1844847,-6.82999992370605
687.2001097,-13.289999961853
687.2157347,-18.8500003814697
687.2313597,-23.1000003814697
687.2469847,-25.8500003814697
687.2626097,-27.0300006866455
687.2782347,-26.6800003051758
687.2938597,-25.1900005340576
687.3094847,-23.2000007629395
687.3251097,-21.4200000762939
687.3407347,-20.2999992370605
687.3563597,-19.9599990844727
687.3719847,-20.2999992370605
687.3876097,-21.1700000762939
687.4032347,-22.4099998474121
687.4188597,-23.6900005340576
687.4344847,-24.6100006103516
687.4501097,-24.9899997711182
687.4657347,-24.8999996185303
687.4813597,-24.5200004577637
687.4969847,-23.8299999237061
687.5126097,-22.7800006866455
687.5282347,-21.3400001525879
687.5438597,-19.5400009155273
687.5594847,-17.4500007629395
687.5751097,-15.2399997711182
687.5907347,-13.0799999237061
687.6063597,-11.0799999237061
687.6219847,-9.26000022888184
687.6376097,-7.51999998092651
687.6532347,-5.76000022888184
687.6688597,-3.80999994277954
687.6844847,-1.17999994754791
687.7001097,3.40000009536743
687.7157347,11.75
687.7313597,24.9899997711182
687.7469847,42.1500015258789
687.7626097,59.6599998474121
687.7782347,72.6900024414063
687.7938597,77.7900009155273
687.8094847,74.5100021362305
687.8251097,65.0400009155273
687.8407347,52.6800003051758
687.8563597,40.4000015258789
687.8719847,29.9099998474121
687.8876097,21.5499992370605
687.9032347,14.75
687.9188597,8.61999988555908
687.9344847,2.4300000667572
687.9501097,-4.13000011444092
687.9657347,-10.8599996566772
687.9813597,-17.1299991607666
687.9969847,-22.2399997711182
688.0126097,-25.6800003051758
688.0282347,-27.3600006103516
688.0438597,-27.5
688.0594847,-26.5400009155273
688.0751097,-24.9899997711182
688.0907347,-23.2999992370605
688.1063597,-21.8400001525879
688.1219847,-20.9899997711182
688.1376097,-21.0100002288818
688.1532347,-21.8199996948242
688.1688597,-23.0699996948242
688.1844847,-24.2299995422363
688.2001097,-24.8799991607666
688.2157347,-24.9500007629395
688.2313597,-24.6100006103516
688.2469847,-24.0100002288818
688.2626097,-23.2399997711182
688.2782347,-22.3700008392334
688.2938597,-21.5
688.3094847,-20.6900005340576
688.3251097,-19.9200000762939
688.3407347,-19.0900001525879
688.3563597,-18.0900001525879
688.3719847,-16.6800003051758
688.3876097,-14.6800003051758
688.4032347,-12.0500001907349
688.4188597,-8.9399995803833
688.4344847,-5.65000009536743
688.4501097,-2.47000002861023
688.4657347,0.430000007152557
688.4813597,3.29999995231628
688.4969847,7.03999996185303
688.5126097,12.9499998092651
688.5282347,21.9200000762939
688.5438597,34.3800010681152
688.5594847,50.8899993896484
688.5751097,70.7600021362305
688.5907347,90.2099990844727
688.6063597,103.75
688.6219847,107.51000213623
688.6376097,101.139999389648
688.6532347,87.5
688.6688597,70.7699966430664
688.6844847,54.5499992370605
688.7001097,40.9000015258789
688.7157347,30.1900005340576
688.7313597,21.5100002288818
688.7469847,13.5200004577637
688.7626097,5.21000003814697
688.7782347,-3.65000009536743
688.7938597,-12.5299997329712
688.8094847,-20.4599990844727
688.8251097,-26.6700000762939
688.8407347,-30.8899993896484
688.8563597,-33.4099998474121
688.8719847,-34.7999992370605
688.8876097,-35.6800003051758
688.9032347,-36.5400009155273
688.9188597,-37.6399993896484
688.9344847,-39.060001373291
688.9501097,-40.8400001525879
688.9657347,-43.0200004577637
688.9813597,-45.5200004577637
688.9969847,-48.0999984741211
689.0126097,-50.4700012207031
689.0282347,-52.3800010681152
689.0438597,-53.689998626709
689.0594847,-54.3499984741211
689.0751097,-54.310001373291
689.0907347,-53.4300003051758
689.1063597,-51.7200012207031
689.1219847,-49.4099998474121
689.1376097,-46.8499984741211
689.1532347,-44.2700004577637
689.1688597,-41.6500015258789
689.1844847,-38.8800010681152
689.2001097,-35.8199996948242
689.2157347,-32.3899993896484
689.2313597,-28.6399993896484
689.2469847,-24.6700000762939
689.2626097,-20.4200000762939
689.2782347,-15.8000001907349
689.2938597,-10.5900001525879
689.3094847,-4.05999994277954
689.3251097,5.15999984741211
689.3407347,18.2800006866455
689.3563597,34.9199981689453
689.3719847,52.5299987792969
689.3876097,67.2200012207031
689.4032347,75.5800018310547
689.4188597,76.2099990844727
689.4344847,70.1399993896484
689.4501097,60.0800018310547
689.4657347,49.0800018310547
689.4813597,39.2700004577637
689.4969847,31.4099998474121
689.5126097,25.25
689.5282347,20.0599994659424
689.5438597,15.1000003814697
689.5594847,9.92000007629395
689.5751097,4.61999988555908
689.5907347,-0.159999996423721
689.6063597,-3.57999992370605
689.6219847,-5.07000017166138
689.6376097,-4.6399998664856
689.6532347,-2.9300000667572
689.6688597,-0.810000002384186
689.6844847,0.959999978542328
689.7001097,2.09999990463257
689.7157347,2.69000005722046
689.7313597,2.99000000953674
689.7469847,3.10999989509583
689.7626097,3.00999999046326
689.7782347,2.63000011444092
689.7938597,1.92999994754791
689.8094847,0.920000016689301
689.8251097,-0.25
689.8407347,-1.27999997138977
689.8563597,-1.87000000476837
689.8719847,-1.87000000476837
689.8876097,-1.32000005245209
689.9032347,-0.370000004768372
689.9188597,0.680000007152557
689.9344847,1.57000005245209
689.9501097,2.22000002861023
689.9657347,2.69000005722046
689.9813597,3.02999997138977
689.9969847,3.26999998092651
690.0126097,3.46000003814697
690.0282347,3.69000005722046
690.0438597,4.38000011444092
690.0594847,6.69000005722046
690.0751097,12.3500003814697
690.0907347,22.6399993896484
690.1063597,36.9900016784668
690.1219847,52.5200004577637
690.1376097,65.0800018310547
690.1532347,71.2300033569336
690.1688597,69.75
690.1844847,61.8199996948242
690.2001097,50.060001373291
690.2157347,37.189998626709
690.2313597,25.1499996185303
690.2469847,14.7600002288818
690.2626097,5.88000011444092
690.2782347,-2.0699999332428
690.2938597,-9.64999961853027
690.3094847,-17.0300006866455
690.3251097,-23.9500007629395
690.3407347,-29.7800006866455
690.3563597,-33.8199996948242
690.3719847,-35.5900001525879
690.3876097,-35.0800018310547
690.4032347,-32.8800010681152
690.4188597,-29.9300003051758
690.4344847,-27.1399993896484
690.4501097,-25.1800003051758
690.4657347,-24.3799991607666
690.4813597,-24.6200008392334
690.4969847,-25.4099998474121
690.5126097,-26.3199996948242
690.5282347,-27.1000003814697
690.5438597,-27.7299995422363
690.5594847,-28.3400001525879
690.5751097,-29.0300006866455
690.5907347,-29.7199993133545
690.6063597,-30.2299995422363
690.6219847,-30.3899993896484
690.6376097,-30.1100006103516
690.6532347,-29.3199996948242
690.6688597,-27.9799995422363
690.6844847,-26.1599998474121
690.7001097,-24.0499992370605
690.7157347,-21.8600006103516
690.7313597,-19.6700000762939
690.7469847,-17.3199996948242
690.7626097,-14.2299995422363
690.7782347,-9.14000034332275
690.7938597,0.0500000007450581
690.8094847,15.3599996566772
690.8251097,36.1199989318848
690.8407347,57.7799987792969
690.8563597,74.0299987792969
690.8719847,80.5299987792969
690.8876097,76.9300003051758
690.9032347,66.1699981689453
690.9188597,52.5699996948242
690.9344847,39.75
690.9501097,29.5599994659424
690.9657347,21.9500007629395
690.9813597,15.710000038147
690.9969847,9.4399995803833
691.0126097,2.29999995231628
691.0282347,-5.80000019073486
691.0438597,-14.3000001907349
691.0594847,-22.1900005340576
691.0751097,-28.3400001525879
691.0907347,-32.0099983215332
691.1063597,-33.1100006103516
691.1219847,-32.189998626709
691.1376097,-30.1900005340576
691.1532347,-28.1399993896484
691.1688597,-26.8500003814697
691.1844847,-26.6900005340576
691.2001097,-27.5100002288818
691.2157347,-28.8899993896484
691.2313597,-30.3799991607666
691.2469847,-31.75
691.2626097,-32.8800010681152
691.2782347,-33.7099990844727
691.2938597,-34.2299995422363
691.3094847,-34.4199981689453
691.3251097,-34.2700004577637
691.3407347,-33.7200012207031
691.3563597,-32.7400016784668
691.3719847,-31.2999992370605
691.3876097,-29.3899993896484
691.4032347,-27.0699996948242
691.4188597,-24.4599990844727
691.4344847,-21.6700000762939
691.4501097,-18.6499996185303
691.4657347,-15.2299995422363
691.4813597,-10.710000038147
691.4969847,-3.53999996185303
691.5126097,8.40999984741211
691.5282347,26.3600006103516
691.5438597,48.4900016784668
691.5594847,69.7699966430664
691.5751097,84.4800033569336
691.5907347,89.4400024414063
691.6063597,85.2699966430664
691.6219847,75.3000030517578
691.6376097,63.439998626709
691.6532347,52.5200004577637
691.6688597,43.6199989318848
691.6844847,36.560001373291
691.7001097,30.5
691.7157347,24.4599990844727
691.7313597,17.7299995422363
691.7469847,10.039999961853
691.7626097,1.62999999523163
691.7782347,-6.92000007629395
691.7938597,-14.8900003433228
691.8094847,-21.6100006103516
691.8251097,-26.7999992370605
691.8407347,-30.4699993133545
691.8563597,-32.7999992370605
691.8719847,-33.8800010681152
691.8876097,-33.4799995422363
691.9032347,-31.3199996948242
691.9188597,-27.8500003814697
691.9344847,-24.4099998474121
691.9501097,-22.3299999237061
691.9657347,-21.9400005340576
691.9813597,-22.4599990844727
691.9969847,-22.6299991607666
692.0126097,-21.5599994659424
692.0282347,-19.2900009155273
692.0438597,-16.6599998474121
692.0594847,-14.4799995422363
692.0751097,-13.0500001907349
692.0907347,-12.1400003433228
692.1063597,-11.1300001144409
692.1219847,-9.3100004196167
692.1376097,-6.32999992370605
692.1532347,-2.55999994277954
692.1688597,0.970000028610229
692.1844847,3.26999998092651
692.2001097,3.85999989509583
692.2157347,3.0699999332428
692.2313597,1.91999995708466
692.2469847,1.98000001907349
692.2626097,5.32999992370605
692.2782347,13.9700002670288
692.2938597,28.4200000762939
692.3094847,46.3600006103516
692.3251097,63.0200004577637
692.3407347,73.4599990844727
692.3563597,75.2200012207031
692.3719847,69.2399978637695
692.3876097,58.7400016784668
692.4032347,47.3199996948242
692.4188597,37.4700012207031
692.4344847,30.2600002288818
692.4501097,25.6900005340576
692.4657347,23.2099990844727
692.4813597,22.0100002288818
692.4969847,21.3299999237061
692.5126097,20.8700008392334
692.5282347,20.6100006103516
692.5438597,20.0599994659424
692.5594847,18.1399993896484
692.5751097,14.0299997329712
692.5907347,7.90999984741211
692.6063597,0.920000016689301
692.6219847,-5.53000020980835
692.6376097,-10.4799995422363
692.6532347,-13.8599996566772
692.6688597,-16.5499992370605
692.6844847,-20.0100002288818
692.7001097,-25.6499996185303
692.7157347,-34.0900001525879
692.7313597,-44.810001373291
692.7469847,-56.4799995422363
692.7626097,-67.5999984741211
692.7782347,-76.9700012207031
692.7938597,-83.8099975585938
692.8094847,-87.7200012207031
692.8251097,-88.8399963378906
692.8407347,-87.7699966430664
692.8563597,-85.1999969482422
692.8719847,-81.379997253418
692.8876097,-76.1999969482422
692.9032347,-69.6500015258789
692.9188597,-62.1199989318848
692.9344847,-54.2900009155273
692.9501097,-46.6599998474121
692.9657347,-38.8600006103516
692.9813597,-29.0699996948242
692.9969847,-14.6999998092651
693.0126097,5.67999982833862
693.0282347,30.4599990844727
693.0438597,54.939998626709
693.0594847,73.5899963378906
693.0751097,82.8899993896484
693.0907347,82.6699981689453
693.1063597,75.6500015258789
693.1219847,65.75
693.1376097,56.4000015258789
693.1532347,49.2799987792969
693.1688597,44.25
693.1844847,40.1199989318848
693.2001097,35.6699981689453
693.2157347,30.4599990844727
693.2313597,24.8999996185303
693.2469847,19.8500003814697
693.2626097,15.9300003051758
693.2782347,13.25
693.2938597,11.6499996185303
693.3094847,11.0799999237061
693.3251097,11.539999961853
693.3407347,12.789999961853
693.3563597,14.1700000762939
693.3719847,14.8100004196167
693.3876097,14.1700000762939
693.4032347,12.3000001907349
693.4188597,9.63000011444092
693.4344847,6.5
693.4501097,2.95000004768372
693.4657347,-0.920000016689301
693.4813597,-4.86999988555908
693.4969847,-8.47999954223633
693.5126097,-11.4899997711182
693.5282347,-13.9200000762939
693.5438597,-15.9399995803833
693.5594847,-17.75
693.5751097,-19.3899993896484
693.5907347,-20.8299999237061
693.6063597,-22.0200004577637
693.6219847,-22.8799991607666
693.6376097,-23.2700004577637
693.6532347,-22.9099998474121
693.6688597,-21.0
693.6844847,-15.4200000762939
693.7001097,-3.0699999332428
693.7157347,17.1399993896484
693.7313597,41.7299995422363
693.7469847,63.8300018310547
693.7626097,77.3499984741211
693.7782347,79.9700012207031
693.7938597,73.5199966430664
693.8094847,62.1500015258789
693.8251097,50.0099983215332
693.8407347,39.6300010681152
693.8563597,31.6700000762939
693.8719847,25.4599990844727
693.8876097,19.8199996948242
693.9032347,13.6499996185303
693.9188597,6.38000011444092
693.9344847,-1.88999998569489
693.9501097,-10.5600004196167
693.9657347,-18.7000007629395
693.9813597,-25.3799991607666
693.9969847,-29.9400005340576
694.0126097,-32.1599998474121
694.0282347,-32.3300018310547
694.0438597,-31.2700004577637
694.0594847,-30.0799999237061
694.0751097,-29.6900005340576
694.0907347,-30.5599994659424
694.1063597,-32.6800003051758
694.1219847,-35.6500015258789
694.1376097,-38.6300010681152
694.1532347,-40.4300003051758
694.1688597,-40.5699996948242
694.1844847,-40.060001373291
694.2001097,-40.8400001525879
694.2157347,-44.0299987792969
694.2313597,-48.7900009155273
694.2469847,-53.0200004577637
694.2626097,-54.9099998474121
694.2782347,-53.8800010681152
694.2938597,-50.4799995422363
694.3094847,-45.7400016784668
694.3251097,-40.7599983215332
694.3407347,-36.4000015258789
694.3563597,-32.939998626709
694.3719847,-29.9699993133545
694.3876097,-26.6399993896484
694.4032347,-21.9500007629395
694.4188597,-14.539999961853
694.4344847,-2.22000002861023
694.4501097,17.0499992370605
694.4657347,42.3800010681152
694.4813597,68.4300003051758
694.4969847,88.1100006103516
694.5126097,96.8099975585938
694.5282347,94.4300003051758
694.5438597,84.4400024414063
694.5594847,71.5299987792969
694.5751097,59.4300003051758
694.5907347,49.9000015258789
694.6063597,42.7900009155273
694.6219847,36.8300018310547
694.6376097,30.5699996948242
694.6532347,23.1599998474121
694.6688597,14.6099996566772
694.6844847,5.59999990463257
694.7001097,-2.82999992370605
694.7157347,-9.57999992370605
694.7313597,-13.75
694.7469847,-15.1499996185303
694.7626097,-14.5200004577637
694.7782347,-13.1700000762939
694.7938597,-12.210000038147
694.8094847,-12.1400003433228
694.8251097,-12.960000038147
694.8407347,-14.3599996566772
694.8563597,-15.9899997711182
694.8719847,-17.7099990844727
694.8876097,-19.6299991607666
694.9032347,-21.9400005340576
694.9188597,-24.6599998474121
694.9344847,-27.5499992370605
694.9501097,-30.2999992370605
694.9657347,-32.7099990844727
694.9813597,-34.5800018310547
694.9969847,-35.6300010681152
695.0126097,-35.7299995422363
695.0282347,-34.9700012207031
695.0438597,-33.5400009155273
695.0594847,-31.6499996185303
695.0751097,-29.4099998474121
695.0907347,-27.0200004577637
695.1063597,-24.6000003814697
695.1219847,-22.1299991607666
695.1376097,-19.4200000762939
695.1532347,-16.0400009155273
695.1688597,-10.9700002670288
695.1844847,-2.25
695.2001097,12.2600002288818
695.2157347,33.1100006103516
695.2313597,57.310001373291
695.2469847,78.9199981689453
695.2626097,92.3099975585938
695.2782347,95.1399993896484
695.2938597,88.9400024414063
695.3094847,77.5699996948242
695.3251097,65.0699996948242
695.3407347,54.0999984741211
695.3563597,45.5299987792969
695.3719847,38.8499984741211
695.3876097,32.9199981689453
695.4032347,26.6100006103516
695.4188597,19.3299999237061
695.4344847,11.1499996185303
695.4501097,2.71000003814697
695.4657347,-5.13000011444092
695.4813597,-11.5100002288818
695.4969847,-15.8199996948242
695.5126097,-17.8700008392334
695.5282347,-18.0400009155273
695.5438597,-17.1700000762939
695.5594847,-16.2600002288818
695.5751097,-16.1700000762939
695.5907347,-17.3299999237061
695.6063597,-19.7099990844727
695.6219847,-22.9699993133545
695.6376097,-26.6700000762939
695.6532347,-30.3700008392334
695.6688597,-33.7200012207031
695.6844847,-36.5699996948242
695.7001097,-38.8499984741211
695.7157347,-40.5900001525879
695.7313597,-41.9799995422363
695.7469847,-43.1800003051758
695.7626097,-44.1100006103516
695.7782347,-44.5400009155273
695.7938597,-44.2299995422363
695.8094847,-43.1100006103516
695.8251097,-41.2900009155273
695.8407347,-38.9599990844727
695.8563597,-36.3199996948242
695.8719847,-33.5
695.8876097,-30.4400005340576
695.9032347,-26.4799995422363
695.9188597,-20.1299991607666
695.9344847,-9.07999992370605
695.9501097,8.48999977111816
695.9657347,31.7399997711182
695.9813597,56.4500007629395
695.9969847,76.7900009155273
696.0126097,88.2200012207031
696.0282347,89.5100021362305
696.0438597,82.8499984741211
696.0594847,72.2099990844727
696.0751097,61.2400016784668
696.0907347,51.9799995422363
696.1063597,44.7900009155273
696.1219847,38.8699989318848
696.1376097,32.939998626709
696.1532347,26.0599994659424
696.1688597,17.9500007629395
696.1844847,9.0600004196167
696.2001097,0.270000010728836
696.2157347,-7.42999982833862
696.2313597,-13.2700004577637
696.2469847,-16.9099998474121
696.2626097,-18.5
696.2782347,-18.6100006103516
696.2938597,-17.9699993133545
696.3094847,-17.3400001525879
696.3251097,-17.3799991607666
696.3407347,-18.4200000762939
696.3563597,-20.4099998474121
696.3719847,-23.1299991607666
696.3876097,-26.2299995422363
696.4032347,-29.2900009155273
696.4188597,-31.9699993133545
696.4344847,-34.0400009155273
696.4501097,-35.5099983215332
696.4657347,-36.4599990844727
696.4813597,-37.0099983215332
696.4969847,-37.2799987792969
696.5126097,-37.2299995422363
696.5282347,-36.7599983215332
696.5438597,-35.7700004577637
696.5594847,-34.2299995422363
696.5751097,-32.1100006103516
696.5907347,-29.4899997711182
696.6063597,-26.5699996948242
696.6219847,-23.6200008392334
696.6376097,-20.6900005340576
696.6532347,-16.9599990844727
696.6688597,-10.5500001907349
696.6844847,1.0900000333786
696.7001097,19.3899993896484
696.7157347,42.5400009155273
