Time(s),Value(μS)
0.0294169,0.0219999998807907
0.0450419,0.0270000007003546
0.0606669,0.0390000008046627
0.0762919,0.0590000003576279
0.0919169,0.0869999974966049
0.1075419,0.119999997317791
0.1231669,0.155000001192093
0.1387919,0.188999995589256
0.1544169,0.221000000834465
0.1700419,0.248999997973442
0.1856669,0.272000014781952
0.2012919,0.293000012636185
0.2169169,0.310000002384186
0.2325419,0.323000013828278
0.2481669,0.33500000834465
0.2637919,0.344999998807907
0.2794169,0.352999985218048
0.2950419,0.358999997377396
0.3106669,0.363999992609024
0.3262919,0.368000000715256
0.3419169,0.372000008821487
0.3575419,0.374000012874603
0.3731669,0.375999987125397
0.3887919,0.377000004053116
0.4044169,0.377999991178513
0.4200419,0.379999995231628
0.4356669,0.381000012159348
0.4512919,0.381999999284744
0.4669169,0.382999986410141
0.4825419,0.38400000333786
0.4981669,0.384999990463257
0.5137919,0.386000007390976
0.5294169,0.386999994516373
0.5450419,0.386999994516373
0.5606669,0.388000011444092
0.5762919,0.388000011444092
0.5919169,0.388999998569489
0.6075419,0.388999998569489
0.6231669,0.388999998569489
0.6387919,0.389999985694885
0.6544169,0.389999985694885
0.6700419,0.389999985694885
0.6856669,0.389999985694885
0.7012919,0.389999985694885
0.7169169,0.389999985694885
0.7325419,0.388999998569489
0.7481669,0.388000011444092
0.7637919,0.386999994516373
0.7794169,0.38400000333786
0.7950419,0.381999999284744
0.8106669,0.379999995231628
0.8262919,0.377000004053116
0.8419169,0.375
0.8575419,0.372000008821487
0.8731669,0.36599999666214
0.8887919,0.354999989271164
0.9044169,0.340999990701675
0.9200419,0.324000000953674
0.9356669,0.305999994277954
0.9512919,0.28999999165535
0.9669169,0.275999993085861
0.9825419,0.263999998569489
0.9981669,0.254999995231628
1.0137919,0.246999993920326
1.0294169,0.239999994635582
1.0450419,0.234999999403954
1.0606669,0.230000004172325
1.0762919,0.226999998092651
1.0919169,0.224000006914139
1.1075419,0.223000004887581
1.1231669,0.224999994039536
1.1387919,0.23199999332428
1.1544169,0.243000000715256
1.1700419,0.257999986410141
1.1856669,0.275000005960464
1.2012919,0.28999999165535
1.2169169,0.303999990224838
1.2325419,0.316000014543533
1.2481669,0.32600000500679
1.2637919,0.333999991416931
1.2794169,0.340999990701675
1.2950419,0.347000002861023
1.3106669,0.351999998092651
1.3262919,0.354999989271164
1.3419169,0.358999997377396
1.3575419,0.361000001430511
1.3731669,0.363999992609024
1.3887919,0.36599999666214
1.4044169,0.368000000715256
1.4200419,0.370000004768372
1.4356669,0.372000008821487
1.4512919,0.372999995946884
1.4669169,0.375
1.4825419,0.375999987125397
1.4981669,0.377000004053116
1.5137919,0.377999991178513
1.5294169,0.377999991178513
1.5450419,0.379000008106232
1.5606669,0.379000008106232
1.5762919,0.379999995231628
1.5919169,0.379999995231628
1.6075419,0.381000012159348
1.6231669,0.381000012159348
1.6387919,0.381999999284744
1.6544169,0.382999986410141
1.6700419,0.382999986410141
1.6856669,0.38400000333786
1.7012919,0.384999990463257
1.7169169,0.384999990463257
1.7325419,0.386000007390976
1.7481669,0.386999994516373
1.7637919,0.388999998569489
1.7794169,0.39300000667572
1.7950419,0.400000005960464
1.8106669,0.409000009298325
1.8262919,0.421999990940094
1.8419169,0.437000006437302
1.8575419,0.451999992132187
1.8731669,0.467000007629395
1.8887919,0.481000006198883
1.9044169,0.492000013589859
1.9200419,0.500999987125397
1.9356669,0.50900000333786
1.9512919,0.514999985694885
1.9669169,0.521000027656555
1.9825419,0.524999976158142
1.9981669,0.527999997138977
2.0137919,0.531000018119812
2.0294169,0.532999992370605
2.0450419,0.535000026226044
2.0606669,0.53600001335144
2.0762919,0.537000000476837
2.0919169,0.537999987602234
2.1075419,0.538999974727631
2.1231669,0.540000021457672
2.1387919,0.540000021457672
2.1544169,0.541000008583069
2.1700419,0.541000008583069
2.1856669,0.541000008583069
2.2012919,0.541999995708466
2.2169169,0.541999995708466
2.2325419,0.541999995708466
2.2481669,0.541999995708466
2.2637919,0.542999982833862
2.2794169,0.542999982833862
2.2950419,0.542999982833862
2.3106669,0.542999982833862
2.3262919,0.542999982833862
2.3419169,0.542999982833862
2.3575419,0.544000029563904
2.3731669,0.544000029563904
2.3887919,0.544000029563904
2.4044169,0.544000029563904
2.4200419,0.544000029563904
2.4356669,0.544000029563904
2.4512919,0.544000029563904
2.4669169,0.545000016689301
2.4825419,0.545000016689301
2.4981669,0.545000016689301
2.5137919,0.545000016689301
2.5294169,0.545000016689301
2.5450419,0.545000016689301
2.5606669,0.545000016689301
2.5762919,0.545000016689301
2.5919169,0.545000016689301
2.6075419,0.545000016689301
2.6231669,0.545000016689301
2.6387919,0.545000016689301
2.6544169,0.544000029563904
2.6700419,0.544000029563904
2.6856669,0.544000029563904
2.7012919,0.544000029563904
2.7169169,0.544000029563904
2.7325419,0.544000029563904
2.7481669,0.544000029563904
2.7637919,0.544000029563904
2.7794169,0.544000029563904
2.7950419,0.545000016689301
2.8106669,0.545000016689301
2.8262919,0.545000016689301
2.8419169,0.545000016689301
2.8575419,0.545000016689301
2.8731669,0.546000003814697
2.8887919,0.549000024795532
2.9044169,0.554000020027161
2.9200419,0.560000002384186
2.9356669,0.566999971866608
2.9512919,0.573000013828278
2.9669169,0.578999996185303
2.9825419,0.583999991416931
2.9981669,0.587999999523163
3.0137919,0.591000020503998
3.0294169,0.592999994754791
3.0450419,0.595000028610229
3.0606669,0.596000015735626
3.0762919,0.597000002861023
3.0919169,0.59799998998642
3.1075419,0.59799998998642
3.1231669,0.59799998998642
3.1387919,0.59799998998642
3.1544169,0.59799998998642
3.1700419,0.59799998998642
3.1856669,0.59799998998642
3.2012919,0.597000002861023
3.2169169,0.597000002861023
3.2325419,0.597000002861023
3.2481669,0.597000002861023
3.2637919,0.59799998998642
3.2794169,0.59799998998642
3.2950419,0.59799998998642
3.3106669,0.59799998998642
3.3262919,0.59799998998642
3.3419169,0.59799998998642
3.3575419,0.598999977111816
3.3731669,0.598999977111816
3.3887919,0.598999977111816
3.4044169,0.598999977111816
3.4200419,0.59799998998642
3.4356669,0.59799998998642
3.4512919,0.59799998998642
3.4669169,0.59799998998642
3.4825419,0.59799998998642
3.4981669,0.59799998998642
3.5137919,0.59799998998642
3.5294169,0.59799998998642
3.5450419,0.59799998998642
3.5606669,0.59799998998642
3.5762919,0.59799998998642
3.5919169,0.59799998998642
3.6075419,0.59799998998642
3.6231669,0.59799998998642
3.6387919,0.59799998998642
3.6544169,0.598999977111816
3.6700419,0.598999977111816
3.6856669,0.600000023841858
3.7012919,0.601000010967255
3.7169169,0.601999998092651
3.7325419,0.602999985218048
3.7481669,0.603999972343445
3.7637919,0.606000006198883
3.7794169,0.60699999332428
3.7950419,0.60699999332428
3.8106669,0.60699999332428
3.8262919,0.606000006198883
3.8419169,0.605000019073486
3.8575419,0.603999972343445
3.8731669,0.602999985218048
3.8887919,0.601999998092651
3.9044169,0.601000010967255
3.9200419,0.600000023841858
3.9356669,0.598999977111816
3.9512919,0.598999977111816
3.9669169,0.59799998998642
3.9825419,0.59799998998642
3.9981669,0.59799998998642
4.0137919,0.59799998998642
4.0294169,0.597000002861023
4.0450419,0.597000002861023
4.0606669,0.597000002861023
4.0762919,0.597000002861023
4.0919169,0.597000002861023
4.1075419,0.597000002861023
4.1231669,0.597000002861023
4.1387919,0.597000002861023
4.1544169,0.597000002861023
4.1700419,0.597000002861023
4.1856669,0.597000002861023
4.2012919,0.597000002861023
4.2169169,0.597000002861023
4.2325419,0.597000002861023
4.2481669,0.597000002861023
4.2637919,0.597000002861023
4.2794169,0.597000002861023
4.2950419,0.597000002861023
4.3106669,0.597000002861023
4.3262919,0.597000002861023
4.3419169,0.597000002861023
4.3575419,0.597000002861023
4.3731669,0.597000002861023
4.3887919,0.597000002861023
4.4044169,0.597000002861023
4.4200419,0.597000002861023
4.4356669,0.597000002861023
4.4512919,0.597000002861023
4.4669169,0.597000002861023
4.4825419,0.597000002861023
4.4981669,0.597000002861023
4.5137919,0.597000002861023
4.5294169,0.597000002861023
4.5450419,0.597000002861023
4.5606669,0.597000002861023
4.5762919,0.597000002861023
4.5919169,0.597000002861023
4.6075419,0.597000002861023
4.6231669,0.597000002861023
4.6387919,0.597000002861023
4.6544169,0.597000002861023
4.6700419,0.597000002861023
4.6856669,0.597000002861023
4.7012919,0.597000002861023
4.7169169,0.597000002861023
4.7325419,0.597000002861023
4.7481669,0.597000002861023
4.7637919,0.597000002861023
4.7794169,0.597000002861023
4.7950419,0.597000002861023
4.8106669,0.597000002861023
4.8262919,0.597000002861023
4.8419169,0.597000002861023
4.8575419,0.597000002861023
4.8731669,0.597000002861023
4.8887919,0.597000002861023
4.9044169,0.597000002861023
4.9200419,0.597000002861023
4.9356669,0.597000002861023
4.9512919,0.597000002861023
4.9669169,0.597000002861023
4.9825419,0.597000002861023
4.9981669,0.597000002861023
5.0137919,0.597000002861023
5.0294169,0.597000002861023
5.0450419,0.597000002861023
5.0606669,0.597000002861023
5.0762919,0.597000002861023
5.0919169,0.597000002861023
5.1075419,0.597000002861023
5.1231669,0.597000002861023
5.1387919,0.597000002861023
5.1544169,0.597000002861023
5.1700419,0.597000002861023
5.1856669,0.597000002861023
5.2012919,0.597000002861023
5.2169169,0.597000002861023
5.2325419,0.597000002861023
5.2481669,0.597000002861023
5.2637919,0.597000002861023
5.2794169,0.597000002861023
5.2950419,0.597000002861023
5.3106669,0.59799998998642
5.3262919,0.59799998998642
5.3419169,0.59799998998642
5.3575419,0.59799998998642
5.3731669,0.59799998998642
5.3887919,0.59799998998642
5.4044169,0.598999977111816
5.4200419,0.598999977111816
5.4356669,0.598999977111816
5.4512919,0.598999977111816
5.4669169,0.598999977111816
5.4825419,0.598999977111816
5.4981669,0.598999977111816
5.5137919,0.598999977111816
5.5294169,0.598999977111816
5.5450419,0.600000023841858
5.5606669,0.601000010967255
5.5762919,0.601999998092651
5.5919169,0.603999972343445
5.6075419,0.60699999332428
5.6231669,0.609000027179718
5.6387919,0.611000001430511
5.6544169,0.614000022411346
5.6700419,0.61599999666214
5.6856669,0.616999983787537
5.7012919,0.619000017642975
5.7169169,0.620000004768372
5.7325419,0.620999991893768
5.7481669,0.621999979019165
5.7637919,0.623000025749207
5.7794169,0.624000012874603
5.7950419,0.625
5.8106669,0.625999987125397
5.8262919,0.626999974250793
5.8419169,0.628000020980835
5.8575419,0.628000020980835
5.8731669,0.629000008106232
5.8887919,0.629000008106232
5.9044169,0.629999995231628
5.9200419,0.629999995231628
5.9356669,0.629999995231628
5.9512919,0.630999982357025
5.9669169,0.630999982357025
5.9825419,0.630999982357025
5.9981669,0.630999982357025
6.0137919,0.632000029087067
6.0294169,0.632000029087067
6.0450419,0.632000029087067
6.0606669,0.632000029087067
6.0762919,0.632000029087067
6.0919169,0.632000029087067
6.1075419,0.632000029087067
6.1231669,0.633000016212463
6.1387919,0.633000016212463
6.1544169,0.633000016212463
6.1700419,0.633000016212463
6.1856669,0.633000016212463
6.2012919,0.633000016212463
6.2169169,0.633000016212463
6.2325419,0.633000016212463
6.2481669,0.633000016212463
6.2637919,0.633000016212463
6.2794169,0.633000016212463
6.2950419,0.633000016212463
6.3106669,0.633000016212463
6.3262919,0.633000016212463
6.3419169,0.633000016212463
6.3575419,0.633000016212463
6.3731669,0.633000016212463
6.3887919,0.633000016212463
6.4044169,0.633000016212463
6.4200419,0.633000016212463
6.4356669,0.63400000333786
6.4512919,0.63400000333786
6.4669169,0.63400000333786
6.4825419,0.63400000333786
6.4981669,0.63400000333786
6.5137919,0.63400000333786
6.5294169,0.63400000333786
6.5450419,0.63400000333786
6.5606669,0.63400000333786
6.5762919,0.634999990463257
6.5919169,0.634999990463257
6.6075419,0.634999990463257
6.6231669,0.634999990463257
6.6387919,0.634999990463257
6.6544169,0.634999990463257
6.6700419,0.635999977588654
6.6856669,0.635999977588654
6.7012919,0.635999977588654
6.7169169,0.635999977588654
6.7325419,0.635999977588654
6.7481669,0.637000024318695
6.7637919,0.637000024318695
6.7794169,0.637000024318695
6.7950419,0.637000024318695
6.8106669,0.637000024318695
6.8262919,0.638000011444092
6.8419169,0.638000011444092
6.8575419,0.638000011444092
6.8731669,0.638000011444092
6.8887919,0.638000011444092
6.9044169,0.638999998569489
6.9200419,0.638999998569489
6.9356669,0.638999998569489
6.9512919,0.638999998569489
6.9669169,0.638999998569489
6.9825419,0.639999985694885
6.9981669,0.639999985694885
7.0137919,0.639999985694885
7.0294169,0.639999985694885
7.0450419,0.639999985694885
7.0606669,0.639999985694885
7.0762919,0.640999972820282
7.0919169,0.640999972820282
7.1075419,0.640999972820282
7.1231669,0.640999972820282
7.1387919,0.642000019550323
7.1544169,0.642000019550323
7.1700419,0.642000019550323
7.1856669,0.642000019550323
7.2012919,0.642000019550323
7.2169169,0.642000019550323
7.2325419,0.64300000667572
7.2481669,0.64300000667572
7.2637919,0.64300000667572
7.2794169,0.64300000667572
7.2950419,0.643999993801117
7.3106669,0.643999993801117
7.3262919,0.643999993801117
7.3419169,0.643999993801117
7.3575419,0.643999993801117
7.3731669,0.643999993801117
7.3887919,0.644999980926514
7.4044169,0.644999980926514
7.4200419,0.644999980926514
7.4356669,0.644999980926514
7.4512919,0.644999980926514
7.4669169,0.646000027656555
7.4825419,0.646000027656555
7.4981669,0.646000027656555
7.5137919,0.646000027656555
7.5294169,0.646000027656555
7.5450419,0.646000027656555
7.5606669,0.647000014781952
7.5762919,0.647000014781952
7.5919169,0.647000014781952
7.6075419,0.647000014781952
7.6231669,0.647000014781952
7.6387919,0.647000014781952
7.6544169,0.647000014781952
7.6700419,0.647000014781952
7.6856669,0.647000014781952
7.7012919,0.648000001907349
7.7169169,0.648000001907349
7.7325419,0.648000001907349
7.7481669,0.648000001907349
7.7637919,0.648000001907349
7.7794169,0.648000001907349
7.7950419,0.648000001907349
7.8106669,0.648999989032745
7.8262919,0.648999989032745
7.8419169,0.648999989032745
7.8575419,0.648999989032745
7.8731669,0.648999989032745
7.8887919,0.648999989032745
7.9044169,0.648999989032745
7.9200419,0.649999976158142
7.9356669,0.649999976158142
7.9512919,0.649999976158142
7.9669169,0.649999976158142
7.9825419,0.649999976158142
7.9981669,0.649999976158142
8.0137919,0.649999976158142
8.0294169,0.649999976158142
8.0450419,0.649999976158142
8.0606669,0.651000022888184
8.0762919,0.651000022888184
8.0919169,0.651000022888184
8.1075419,0.651000022888184
8.1231669,0.651000022888184
8.1387919,0.651000022888184
8.1544169,0.651000022888184
8.1700419,0.651000022888184
8.1856669,0.65200001001358
8.2012919,0.65200001001358
8.2169169,0.652999997138977
8.2325419,0.652999997138977
8.2481669,0.653999984264374
8.2637919,0.653999984264374
8.2794169,0.653999984264374
8.2950419,0.653999984264374
8.3106669,0.653999984264374
8.3262919,0.654999971389771
8.3419169,0.654999971389771
8.3575419,0.654999971389771
8.3731669,0.654999971389771
8.3887919,0.654999971389771
8.4044169,0.654999971389771
8.4200419,0.654999971389771
8.4356669,0.654999971389771
8.4512919,0.654999971389771
8.4669169,0.654999971389771
8.4825419,0.654999971389771
8.4981669,0.654999971389771
8.5137919,0.656000018119812
8.5294169,0.656000018119812
8.5450419,0.656000018119812
8.5606669,0.656000018119812
8.5762919,0.656000018119812
8.5919169,0.656000018119812
8.6075419,0.656000018119812
8.6231669,0.656000018119812
8.6387919,0.656000018119812
8.6544169,0.656000018119812
8.6700419,0.656000018119812
8.6856669,0.656000018119812
8.7012919,0.656000018119812
8.7169169,0.656000018119812
8.7325419,0.656000018119812
8.7481669,0.656000018119812
8.7637919,0.656000018119812
8.7794169,0.656000018119812
8.7950419,0.656000018119812
8.8106669,0.656000018119812
8.8262919,0.656000018119812
8.8419169,0.656000018119812
8.8575419,0.656000018119812
8.8731669,0.656000018119812
8.8887919,0.656000018119812
8.9044169,0.656000018119812
8.9200419,0.656000018119812
8.9356669,0.656000018119812
8.9512919,0.656000018119812
8.9669169,0.656000018119812
8.9825419,0.656000018119812
8.9981669,0.656000018119812
9.0137919,0.656000018119812
9.0294169,0.656000018119812
9.0450419,0.656000018119812
9.0606669,0.656000018119812
9.0762919,0.656000018119812
9.0919169,0.656000018119812
9.1075419,0.656000018119812
9.1231669,0.654999971389771
9.1387919,0.654999971389771
9.1544169,0.654999971389771
9.1700419,0.654999971389771
9.1856669,0.654999971389771
9.2012919,0.654999971389771
9.2169169,0.654999971389771
9.2325419,0.654999971389771
9.2481669,0.654999971389771
9.2637919,0.654999971389771
9.2794169,0.654999971389771
9.2950419,0.654999971389771
9.3106669,0.654999971389771
9.3262919,0.654999971389771
9.3419169,0.654999971389771
9.3575419,0.654999971389771
9.3731669,0.654999971389771
9.3887919,0.654999971389771
9.4044169,0.654999971389771
9.4200419,0.654999971389771
9.4356669,0.653999984264374
9.4512919,0.653999984264374
9.4669169,0.653999984264374
9.4825419,0.653999984264374
9.4981669,0.653999984264374
9.5137919,0.653999984264374
9.5294169,0.653999984264374
9.5450419,0.653999984264374
9.5606669,0.653999984264374
9.5762919,0.653999984264374
9.5919169,0.653999984264374
9.6075419,0.653999984264374
9.6231669,0.653999984264374
9.6387919,0.653999984264374
9.6544169,0.653999984264374
9.6700419,0.653999984264374
9.6856669,0.653999984264374
9.7012919,0.653999984264374
9.7169169,0.653999984264374
9.7325419,0.653999984264374
9.7481669,0.653999984264374
9.7637919,0.652999997138977
9.7794169,0.652999997138977
9.7950419,0.652999997138977
9.8106669,0.652999997138977
9.8262919,0.652999997138977
9.8419169,0.652999997138977
9.8575419,0.652999997138977
9.8731669,0.652999997138977
9.8887919,0.652999997138977
9.9044169,0.652999997138977
9.9200419,0.652999997138977
9.9356669,0.652999997138977
9.9512919,0.652999997138977
9.9669169,0.65200001001358
9.9825419,0.65200001001358
9.9981669,0.65200001001358
10.0137919,0.65200001001358
10.0294169,0.65200001001358
10.0450419,0.65200001001358
10.0606669,0.65200001001358
10.0762919,0.65200001001358
10.0919169,0.65200001001358
10.1075419,0.65200001001358
10.1231669,0.65200001001358
10.1387919,0.65200001001358
10.1544169,0.65200001001358
10.1700419,0.65200001001358
10.1856669,0.65200001001358
10.2012919,0.65200001001358
10.2169169,0.65200001001358
10.2325419,0.65200001001358
10.2481669,0.65200001001358
10.2637919,0.65200001001358
10.2794169,0.65200001001358
10.2950419,0.651000022888184
10.3106669,0.651000022888184
10.3262919,0.651000022888184
10.3419169,0.651000022888184
10.3575419,0.651000022888184
10.3731669,0.651000022888184
10.3887919,0.651000022888184
10.4044169,0.651000022888184
10.4200419,0.651000022888184
10.4356669,0.651000022888184
10.4512919,0.651000022888184
10.4669169,0.651000022888184
10.4825419,0.651000022888184
10.4981669,0.651000022888184
10.5137919,0.651000022888184
10.5294169,0.651000022888184
10.5450419,0.651000022888184
10.5606669,0.651000022888184
10.5762919,0.651000022888184
10.5919169,0.651000022888184
10.6075419,0.651000022888184
10.6231669,0.651000022888184
10.6387919,0.651000022888184
10.6544169,0.651000022888184
10.6700419,0.651000022888184
10.6856669,0.651000022888184
10.7012919,0.651000022888184
10.7169169,0.651000022888184
10.7325419,0.651000022888184
10.7481669,0.651000022888184
10.7637919,0.651000022888184
10.7794169,0.651000022888184
10.7950419,0.651000022888184
10.8106669,0.649999976158142
10.8262919,0.649999976158142
10.8419169,0.649999976158142
10.8575419,0.651000022888184
10.8731669,0.651000022888184
10.8887919,0.649999976158142
10.9044169,0.649999976158142
10.9200419,0.649999976158142
10.9356669,0.649999976158142
10.9512919,0.649999976158142
10.9669169,0.649999976158142
10.9825419,0.649999976158142
10.9981669,0.649999976158142
11.0137919,0.649999976158142
11.0294169,0.649999976158142
11.0450419,0.649999976158142
11.0606669,0.649999976158142
11.0762919,0.649999976158142
11.0919169,0.649999976158142
11.1075419,0.649999976158142
11.1231669,0.649999976158142
11.1387919,0.649999976158142
11.1544169,0.649999976158142
11.1700419,0.649999976158142
11.1856669,0.649999976158142
