Time(s),Value(℃)
0.0294169,169.279998779297
0.0450419,169.259994506836
0.0606669,169.25
0.0762919,169.229995727539
0.0919169,169.220001220703
0.1075419,169.210006713867
0.1231669,169.190002441406
0.1387919,169.179992675781
0.1544169,169.160003662109
0.1700419,169.149993896484
0.1856669,169.130004882813
0.2012919,169.119995117188
0.2169169,169.110000610352
0.2325419,169.089996337891
0.2481669,169.080001831055
0.2637919,169.070007324219
0.2794169,169.059997558594
0.2950419,169.050003051758
0.3106669,169.039993286133
0.3262919,169.029998779297
0.3419169,169.020004272461
0.3575419,169.009994506836
0.3731669,169.0
0.3887919,168.990005493164
0.4044169,168.979995727539
0.4200419,168.970001220703
0.4356669,168.960006713867
0.4512919,168.949996948242
0.4669169,168.940002441406
0.4825419,168.940002441406
0.4981669,168.929992675781
0.5137919,168.919998168945
0.5294169,168.910003662109
0.5450419,168.910003662109
0.5606669,168.899993896484
0.5762919,168.889999389648
0.5919169,168.880004882813
0.6075419,168.880004882813
0.6231669,168.869995117188
0.6387919,168.860000610352
0.6544169,168.860000610352
0.6700419,168.850006103516
0.6856669,168.850006103516
0.7012919,168.839996337891
0.7169169,168.839996337891
0.7325419,168.830001831055
0.7481669,168.830001831055
0.7637919,168.830001831055
0.7794169,168.830001831055
0.7950419,168.830001831055
0.8106669,168.830001831055
0.8262919,168.830001831055
0.8419169,168.830001831055
0.8575419,168.839996337891
0.8731669,168.839996337891
0.8887919,168.850006103516
0.9044169,168.850006103516
0.9200419,168.860000610352
0.9356669,168.869995117188
0.9512919,168.869995117188
0.9669169,168.880004882813
0.9825419,168.889999389648
0.9981669,168.889999389648
1.0137919,168.899993896484
1.0294169,168.899993896484
1.0450419,168.910003662109
1.0606669,168.910003662109
1.0762919,168.910003662109
1.0919169,168.919998168945
1.1075419,168.919998168945
1.1231669,168.919998168945
1.1387919,168.919998168945
1.1544169,168.919998168945
1.1700419,168.919998168945
1.1856669,168.919998168945
1.2012919,168.919998168945
1.2169169,168.919998168945
1.2325419,168.910003662109
1.2481669,168.910003662109
1.2637919,168.910003662109
1.2794169,168.910003662109
1.2950419,168.910003662109
1.3106669,168.910003662109
1.3262919,168.899993896484
1.3419169,168.899993896484
1.3575419,168.899993896484
1.3731669,168.899993896484
1.3887919,168.899993896484
1.4044169,168.899993896484
1.4200419,168.899993896484
1.4356669,168.899993896484
1.4512919,168.899993896484
1.4669169,168.899993896484
1.4825419,168.899993896484
1.4981669,168.899993896484
1.5137919,168.899993896484
1.5294169,168.899993896484
1.5450419,168.899993896484
1.5606669,168.889999389648
1.5762919,168.889999389648
1.5919169,168.889999389648
1.6075419,168.889999389648
1.6231669,168.889999389648
1.6387919,168.889999389648
1.6544169,168.889999389648
1.6700419,168.889999389648
1.6856669,168.889999389648
1.7012919,168.889999389648
1.7169169,168.880004882813
1.7325419,168.880004882813
1.7481669,168.880004882813
1.7637919,168.880004882813
1.7794169,168.869995117188
1.7950419,168.869995117188
1.8106669,168.869995117188
1.8262919,168.869995117188
1.8419169,168.869995117188
1.8575419,168.860000610352
1.8731669,168.860000610352
1.8887919,168.860000610352
1.9044169,168.860000610352
1.9200419,168.860000610352
1.9356669,168.860000610352
1.9512919,168.869995117188
1.9669169,168.869995117188
1.9825419,168.869995117188
1.9981669,168.880004882813
2.0137919,168.880004882813
2.0294169,168.889999389648
2.0450419,168.899993896484
2.0606669,168.899993896484
2.0762919,168.910003662109
2.0919169,168.919998168945
2.1075419,168.919998168945
2.1231669,168.929992675781
2.1387919,168.940002441406
2.1544169,168.949996948242
2.1700419,168.949996948242
2.1856669,168.960006713867
2.2012919,168.960006713867
2.2169169,168.970001220703
2.2325419,168.970001220703
2.2481669,168.979995727539
2.2637919,168.990005493164
2.2794169,168.990005493164
2.2950419,168.990005493164
2.3106669,169.0
2.3262919,169.0
2.3419169,169.009994506836
2.3575419,169.009994506836
2.3731669,169.009994506836
2.3887919,169.009994506836
2.4044169,169.020004272461
2.4200419,169.020004272461
2.4356669,169.020004272461
2.4512919,169.020004272461
2.4669169,169.029998779297
2.4825419,169.029998779297
2.4981669,169.029998779297
2.5137919,169.029998779297
2.5294169,169.039993286133
2.5450419,169.039993286133
2.5606669,169.039993286133
2.5762919,169.039993286133
2.5919169,169.050003051758
2.6075419,169.050003051758
2.6231669,169.059997558594
2.6387919,169.059997558594
2.6544169,169.059997558594
2.6700419,169.070007324219
2.6856669,169.070007324219
2.7012919,169.070007324219
2.7169169,169.080001831055
2.7325419,169.080001831055
2.7481669,169.080001831055
2.7637919,169.080001831055
2.7794169,169.089996337891
2.7950419,169.089996337891
2.8106669,169.089996337891
2.8262919,169.089996337891
2.8419169,169.089996337891
2.8575419,169.089996337891
2.8731669,169.089996337891
2.8887919,169.089996337891
2.9044169,169.100006103516
2.9200419,169.100006103516
2.9356669,169.100006103516
2.9512919,169.100006103516
2.9669169,169.100006103516
2.9825419,169.100006103516
2.9981669,169.100006103516
3.0137919,169.100006103516
3.0294169,169.100006103516
3.0450419,169.100006103516
3.0606669,169.100006103516
3.0762919,169.100006103516
3.0919169,169.100006103516
3.1075419,169.100006103516
3.1231669,169.100006103516
3.1387919,169.100006103516
3.1544169,169.110000610352
3.1700419,169.110000610352
3.1856669,169.110000610352
3.2012919,169.110000610352
3.2169169,169.110000610352
3.2325419,169.110000610352
3.2481669,169.110000610352
3.2637919,169.110000610352
3.2794169,169.110000610352
3.2950419,169.110000610352
3.3106669,169.110000610352
3.3262919,169.110000610352
3.3419169,169.110000610352
3.3575419,169.110000610352
3.3731669,169.110000610352
3.3887919,169.110000610352
3.4044169,169.110000610352
3.4200419,169.110000610352
3.4356669,169.100006103516
3.4512919,169.100006103516
3.4669169,169.100006103516
3.4825419,169.100006103516
3.4981669,169.100006103516
3.5137919,169.100006103516
3.5294169,169.100006103516
3.5450419,169.100006103516
3.5606669,169.100006103516
3.5762919,169.100006103516
3.5919169,169.100006103516
3.6075419,169.100006103516
3.6231669,169.100006103516
3.6387919,169.100006103516
3.6544169,169.100006103516
3.6700419,169.100006103516
3.6856669,169.100006103516
3.7012919,169.100006103516
3.7169169,169.100006103516
3.7325419,169.100006103516
3.7481669,169.100006103516
3.7637919,169.100006103516
3.7794169,169.100006103516
3.7950419,169.100006103516
3.8106669,169.110000610352
3.8262919,169.110000610352
3.8419169,169.110000610352
3.8575419,169.110000610352
3.8731669,169.119995117188
3.8887919,169.119995117188
3.9044169,169.119995117188
3.9200419,169.119995117188
3.9356669,169.130004882813
3.9512919,169.130004882813
3.9669169,169.130004882813
3.9825419,169.130004882813
3.9981669,169.130004882813
4.0137919,169.130004882813
4.0294169,169.130004882813
4.0450419,169.130004882813
4.0606669,169.130004882813
4.0762919,169.130004882813
4.0919169,169.130004882813
4.1075419,169.130004882813
4.1231669,169.130004882813
4.1387919,169.130004882813
4.1544169,169.130004882813
4.1700419,169.130004882813
4.1856669,169.130004882813
4.2012919,169.130004882813
4.2169169,169.130004882813
4.2325419,169.130004882813
4.2481669,169.130004882813
4.2637919,169.130004882813
4.2794169,169.130004882813
4.2950419,169.130004882813
4.3106669,169.130004882813
4.3262919,169.130004882813
4.3419169,169.130004882813
4.3575419,169.139999389648
4.3731669,169.139999389648
4.3887919,169.139999389648
4.4044169,169.139999389648
4.4200419,169.139999389648
4.4356669,169.139999389648
4.4512919,169.139999389648
4.4669169,169.130004882813
4.4825419,169.130004882813
4.4981669,169.130004882813
4.5137919,169.130004882813
4.5294169,169.130004882813
4.5450419,169.130004882813
4.5606669,169.130004882813
4.5762919,169.130004882813
4.5919169,169.130004882813
4.6075419,169.130004882813
4.6231669,169.130004882813
4.6387919,169.130004882813
4.6544169,169.130004882813
4.6700419,169.130004882813
4.6856669,169.130004882813
4.7012919,169.130004882813
4.7169169,169.119995117188
4.7325419,169.119995117188
4.7481669,169.119995117188
4.7637919,169.119995117188
4.7794169,169.119995117188
4.7950419,169.110000610352
4.8106669,169.110000610352
4.8262919,169.110000610352
4.8419169,169.100006103516
4.8575419,169.100006103516
4.8731669,169.100006103516
4.8887919,169.089996337891
4.9044169,169.089996337891
4.9200419,169.089996337891
4.9356669,169.080001831055
4.9512919,169.080001831055
4.9669169,169.080001831055
4.9825419,169.070007324219
4.9981669,169.070007324219
5.0137919,169.070007324219
5.0294169,169.059997558594
5.0450419,169.059997558594
5.0606669,169.059997558594
5.0762919,169.059997558594
5.0919169,169.050003051758
5.1075419,169.050003051758
5.1231669,169.050003051758
5.1387919,169.050003051758
5.1544169,169.039993286133
5.1700419,169.039993286133
5.1856669,169.039993286133
5.2012919,169.039993286133
5.2169169,169.039993286133
5.2325419,169.029998779297
5.2481669,169.029998779297
5.2637919,169.029998779297
5.2794169,169.029998779297
5.2950419,169.029998779297
5.3106669,169.029998779297
5.3262919,169.029998779297
5.3419169,169.029998779297
5.3575419,169.029998779297
5.3731669,169.029998779297
5.3887919,169.029998779297
5.4044169,169.029998779297
5.4200419,169.029998779297
5.4356669,169.029998779297
5.4512919,169.039993286133
5.4669169,169.039993286133
5.4825419,169.039993286133
5.4981669,169.039993286133
5.5137919,169.039993286133
5.5294169,169.039993286133
5.5450419,169.039993286133
5.5606669,169.039993286133
5.5762919,169.039993286133
5.5919169,169.039993286133
5.6075419,169.039993286133
5.6231669,169.029998779297
5.6387919,169.029998779297
5.6544169,169.029998779297
5.6700419,169.029998779297
5.6856669,169.029998779297
5.7012919,169.029998779297
5.7169169,169.029998779297
5.7325419,169.029998779297
5.7481669,169.029998779297
5.7637919,169.029998779297
5.7794169,169.029998779297
5.7950419,169.029998779297
5.8106669,169.029998779297
5.8262919,169.029998779297
5.8419169,169.029998779297
5.8575419,169.029998779297
5.8731669,169.020004272461
5.8887919,169.020004272461
5.9044169,169.020004272461
5.9200419,169.020004272461
5.9356669,169.020004272461
5.9512919,169.020004272461
5.9669169,169.020004272461
5.9825419,169.020004272461
5.9981669,169.020004272461
6.0137919,169.009994506836
6.0294169,169.009994506836
6.0450419,169.009994506836
6.0606669,169.009994506836
6.0762919,169.0
6.0919169,169.0
6.1075419,169.0
6.1231669,169.0
6.1387919,168.990005493164
6.1544169,168.990005493164
6.1700419,168.990005493164
6.1856669,168.990005493164
6.2012919,168.990005493164
6.2169169,168.990005493164
6.2325419,168.979995727539
6.2481669,168.979995727539
6.2637919,168.979995727539
6.2794169,168.979995727539
6.2950419,168.970001220703
6.3106669,168.970001220703
6.3262919,168.970001220703
6.3419169,168.970001220703
6.3575419,168.960006713867
6.3731669,168.960006713867
6.3887919,168.960006713867
6.4044169,168.960006713867
6.4200419,168.949996948242
6.4356669,168.949996948242
6.4512919,168.949996948242
6.4669169,168.949996948242
6.4825419,168.949996948242
6.4981669,168.949996948242
6.5137919,168.949996948242
6.5294169,168.949996948242
6.5450419,168.949996948242
6.5606669,168.949996948242
6.5762919,168.949996948242
6.5919169,168.949996948242
6.6075419,168.949996948242
6.6231669,168.949996948242
6.6387919,168.949996948242
6.6544169,168.949996948242
6.6700419,168.949996948242
6.6856669,168.949996948242
6.7012919,168.949996948242
6.7169169,168.949996948242
6.7325419,168.940002441406
6.7481669,168.940002441406
6.7637919,168.940002441406
6.7794169,168.940002441406
6.7950419,168.940002441406
6.8106669,168.940002441406
6.8262919,168.940002441406
6.8419169,168.940002441406
6.8575419,168.940002441406
6.8731669,168.940002441406
6.8887919,168.940002441406
6.9044169,168.940002441406
6.9200419,168.940002441406
6.9356669,168.949996948242
6.9512919,168.949996948242
6.9669169,168.949996948242
6.9825419,168.949996948242
6.9981669,168.960006713867
7.0137919,168.960006713867
7.0294169,168.960006713867
7.0450419,168.970001220703
7.0606669,168.970001220703
7.0762919,168.970001220703
7.0919169,168.970001220703
7.1075419,168.979995727539
7.1231669,168.979995727539
7.1387919,168.990005493164
7.1544169,168.990005493164
7.1700419,168.990005493164
7.1856669,168.990005493164
7.2012919,169.0
7.2169169,169.0
7.2325419,169.0
7.2481669,169.0
7.2637919,169.009994506836
7.2794169,169.009994506836
7.2950419,169.009994506836
7.3106669,169.009994506836
7.3262919,169.009994506836
7.3419169,169.009994506836
7.3575419,169.009994506836
7.3731669,169.009994506836
7.3887919,169.009994506836
7.4044169,169.020004272461
7.4200419,169.020004272461
7.4356669,169.020004272461
7.4512919,169.020004272461
7.4669169,169.020004272461
7.4825419,169.020004272461
7.4981669,169.020004272461
7.5137919,169.020004272461
7.5294169,169.020004272461
7.5450419,169.020004272461
7.5606669,169.020004272461
7.5762919,169.020004272461
7.5919169,169.020004272461
7.6075419,169.020004272461
7.6231669,169.020004272461
7.6387919,169.029998779297
7.6544169,169.029998779297
7.6700419,169.029998779297
7.6856669,169.029998779297
7.7012919,169.029998779297
7.7169169,169.029998779297
7.7325419,169.039993286133
7.7481669,169.039993286133
7.7637919,169.039993286133
7.7794169,169.050003051758
7.7950419,169.050003051758
7.8106669,169.050003051758
7.8262919,169.059997558594
7.8419169,169.059997558594
7.8575419,169.059997558594
7.8731669,169.059997558594
7.8887919,169.070007324219
7.9044169,169.070007324219
7.9200419,169.070007324219
7.9356669,169.080001831055
7.9512919,169.080001831055
7.9669169,169.080001831055
7.9825419,169.089996337891
7.9981669,169.089996337891
8.0137919,169.089996337891
8.0294169,169.089996337891
8.0450419,169.089996337891
8.0606669,169.100006103516
8.0762919,169.100006103516
8.0919169,169.100006103516
8.1075419,169.100006103516
8.1231669,169.100006103516
8.1387919,169.110000610352
8.1544169,169.110000610352
8.1700419,169.110000610352
8.1856669,169.110000610352
8.2012919,169.110000610352
8.2169169,169.110000610352
8.2325419,169.119995117188
8.2481669,169.119995117188
8.2637919,169.119995117188
8.2794169,169.119995117188
8.2950419,169.119995117188
8.3106669,169.119995117188
8.3262919,169.130004882813
8.3419169,169.130004882813
8.3575419,169.130004882813
8.3731669,169.139999389648
8.3887919,169.139999389648
8.4044169,169.139999389648
8.4200419,169.149993896484
8.4356669,169.149993896484
8.4512919,169.160003662109
8.4669169,169.160003662109
8.4825419,169.169998168945
8.4981669,169.169998168945
8.5137919,169.169998168945
8.5294169,169.179992675781
8.5450419,169.179992675781
8.5606669,169.190002441406
8.5762919,169.190002441406
8.5919169,169.190002441406
8.6075419,169.199996948242
8.6231669,169.199996948242
8.6387919,169.210006713867
8.6544169,169.210006713867
8.6700419,169.210006713867
8.6856669,169.220001220703
8.7012919,169.220001220703
8.7169169,169.220001220703
8.7325419,169.229995727539
8.7481669,169.229995727539
8.7637919,169.229995727539
8.7794169,169.229995727539
8.7950419,169.229995727539
8.8106669,169.240005493164
8.8262919,169.240005493164
8.8419169,169.240005493164
8.8575419,169.240005493164
8.8731669,169.240005493164
8.8887919,169.240005493164
8.9044169,169.240005493164
8.9200419,169.240005493164
8.9356669,169.240005493164
8.9512919,169.240005493164
8.9669169,169.240005493164
8.9825419,169.240005493164
8.9981669,169.229995727539
9.0137919,169.229995727539
9.0294169,169.229995727539
9.0450419,169.229995727539
9.0606669,169.240005493164
9.0762919,169.240005493164
9.0919169,169.240005493164
9.1075419,169.240005493164
9.1231669,169.240005493164
9.1387919,169.240005493164
9.1544169,169.240005493164
9.1700419,169.240005493164
9.1856669,169.240005493164
9.2012919,169.25
9.2169169,169.25
9.2325419,169.25
9.2481669,169.25
9.2637919,169.25
9.2794169,169.25
9.2950419,169.25
9.3106669,169.25
9.3262919,169.25
9.3419169,169.25
9.3575419,169.25
9.3731669,169.25
9.3887919,169.25
9.4044169,169.25
9.4200419,169.25
9.4356669,169.25
9.4512919,169.25
9.4669169,169.25
9.4825419,169.25
9.4981669,169.25
9.5137919,169.25
9.5294169,169.25
9.5450419,169.25
9.5606669,169.25
9.5762919,169.240005493164
9.5919169,169.240005493164
9.6075419,169.240005493164
9.6231669,169.240005493164
9.6387919,169.229995727539
9.6544169,169.229995727539
9.6700419,169.229995727539
9.6856669,169.229995727539
9.7012919,169.229995727539
9.7169169,169.229995727539
9.7325419,169.220001220703
9.7481669,169.220001220703
9.7637919,169.220001220703
9.7794169,169.220001220703
9.7950419,169.220001220703
9.8106669,169.220001220703
9.8262919,169.210006713867
9.8419169,169.210006713867
9.8575419,169.210006713867
9.8731669,169.210006713867
9.8887919,169.210006713867
9.9044169,169.210006713867
9.9200419,169.199996948242
9.9356669,169.199996948242
9.9512919,169.199996948242
9.9669169,169.199996948242
9.9825419,169.199996948242
9.9981669,169.199996948242
10.0137919,169.190002441406
10.0294169,169.190002441406
10.0450419,169.190002441406
10.0606669,169.190002441406
10.0762919,169.179992675781
10.0919169,169.179992675781
10.1075419,169.179992675781
10.1231669,169.179992675781
10.1387919,169.169998168945
10.1544169,169.169998168945
10.1700419,169.169998168945
10.1856669,169.160003662109
10.2012919,169.160003662109
10.2169169,169.160003662109
10.2325419,169.149993896484
10.2481669,169.149993896484
10.2637919,169.149993896484
10.2794169,169.149993896484
10.2950419,169.139999389648
10.3106669,169.139999389648
10.3262919,169.139999389648
10.3419169,169.130004882813
10.3575419,169.130004882813
10.3731669,169.130004882813
10.3887919,169.119995117188
10.4044169,169.119995117188
10.4200419,169.119995117188
10.4356669,169.119995117188
10.4512919,169.110000610352
10.4669169,169.110000610352
10.4825419,169.110000610352
10.4981669,169.110000610352
10.5137919,169.100006103516
10.5294169,169.100006103516
10.5450419,169.100006103516
10.5606669,169.089996337891
10.5762919,169.089996337891
10.5919169,169.089996337891
10.6075419,169.089996337891
10.6231669,169.080001831055
10.6387919,169.080001831055
10.6544169,169.080001831055
10.6700419,169.080001831055
10.6856669,169.080001831055
10.7012919,169.080001831055
10.7169169,169.080001831055
10.7325419,169.080001831055
10.7481669,169.080001831055
10.7637919,169.080001831055
10.7794169,169.080001831055
10.7950419,169.080001831055
10.8106669,169.080001831055
10.8262919,169.080001831055
10.8419169,169.089996337891
10.8575419,169.089996337891
10.8731669,169.089996337891
10.8887919,169.089996337891
10.9044169,169.089996337891
10.9200419,169.089996337891
10.9356669,169.089996337891
10.9512919,169.089996337891
10.9669169,169.089996337891
10.9825419,169.089996337891
10.9981669,169.089996337891
11.0137919,169.100006103516
11.0294169,169.100006103516
11.0450419,169.100006103516
11.0606669,169.100006103516
11.0762919,169.100006103516
11.0919169,169.100006103516
11.1075419,169.110000610352
11.1231669,169.110000610352
11.1387919,169.110000610352
11.1544169,169.110000610352
11.1700419,169.110000610352
11.1856669,169.119995117188
11.2012919,169.119995117188
11.2169169,169.119995117188
11.2325419,169.130004882813
11.2481669,169.130004882813
11.2637919,169.130004882813
11.2794169,169.130004882813
11.2950419,169.139999389648
11.3106669,169.139999389648
11.3262919,169.139999389648
11.3419169,169.149993896484
11.3575419,169.149993896484
11.3731669,169.149993896484
11.3887919,169.149993896484
11.4044169,169.160003662109
11.4200419,169.160003662109
11.4356669,169.160003662109
11.4512919,169.160003662109
11.4669169,169.169998168945
11.4825419,169.169998168945
11.4981669,169.169998168945
11.5137919,169.169998168945
11.5294169,169.169998168945
11.5450419,169.179992675781
11.5606669,169.179992675781
11.5762919,169.179992675781
11.5919169,169.179992675781
11.6075419,169.179992675781
11.6231669,169.179992675781
11.6387919,169.179992675781
11.6544169,169.179992675781
11.6700419,169.179992675781
11.6856669,169.179992675781
11.7012919,169.179992675781
11.7169169,169.179992675781
