Time(s),Value(%)
1533.0125088,125.379997253418
1533.0281338,116.620002746582
1533.0437588,104.410003662109
1533.0593838,91.2799987792969
1533.0750088,78.4100036621094
1533.0906338,65.7099990844727
1533.1062588,52.6300010681152
1533.1218838,38.9099998474121
1533.1375088,24.9200000762939
1533.1531338,11.5500001907349
1533.1687588,-0.239999994635582
1533.1843838,-9.89000034332275
1533.2000088,-17.4799995422363
1533.2156338,-23.5799999237061
1533.2312588,-28.8999996185303
1533.2468838,-33.9199981689453
1533.2625088,-38.9000015258789
1533.2781338,-43.8800010681152
1533.2937588,-48.7900009155273
1533.3093838,-53.4599990844727
1533.3250088,-57.7400016784668
1533.3406338,-61.5200004577637
1533.3562588,-64.5699996948242
1533.3718838,-66.5400009155273
1533.3875088,-67.0400009155273
1533.4031338,-66.0599975585938
1533.4187588,-63.8899993896484
1533.4343838,-61.0099983215332
1533.4500088,-57.939998626709
1533.4656338,-55.0299987792969
1533.4812588,-52.4199981689453
1533.4968838,-50.0400009155273
1533.5125088,-47.75
1533.5281338,-45.2700004577637
1533.5437588,-42.2799987792969
1533.5593838,-38.2200012207031
1533.5750088,-31.6200008392334
1533.5906338,-19.8400001525879
1533.6062588,-0.479999989271164
1533.6218838,26.4799995422363
1533.6375088,57.9500007629395
1533.6531338,88.75
1533.6687588,113.650001525879
1533.6843838,129.169998168945
1533.7000088,134.429992675781
1533.7156338,130.910003662109
1533.7312588,121.419998168945
1533.7468838,108.889999389648
1533.7625088,95.4800033569336
1533.7781338,82.1600036621094
1533.7937588,68.9400024414063
1533.8093838,55.4799995422363
1533.8250088,41.7200012207031
1533.8406338,27.9899997711182
1533.8562588,14.9899997711182
1533.8718838,3.57999992370605
1533.8875088,-5.6100001335144
1533.9031338,-12.6499996185303
1533.9187588,-18.2399997711182
1533.9343838,-23.3099994659424
1533.9500088,-28.6900005340576
1533.9656338,-34.8300018310547
1533.9812588,-41.6399993896484
1533.9968838,-48.7200012207031
1534.0125088,-55.6300010681152
1534.0281338,-62.1300010681152
1534.0437588,-68.0199966430664
1534.0593838,-72.9599990844727
1534.0750088,-76.4400024414063
1534.0906338,-78.0800018310547
1534.1062588,-77.7300033569336
1534.1218838,-75.5
1534.1375088,-71.6699981689453
1534.1531338,-66.6800003051758
1534.1687588,-61.060001373291
1534.1843838,-55.3800010681152
1534.2000088,-50.1199989318848
1534.2156338,-45.5400009155273
1534.2312588,-41.6100006103516
1534.2468838,-38.0400009155273
1534.2625088,-34.1800003051758
1534.2781338,-28.7099990844727
1534.2937588,-19.5200004577637
1534.3093838,-4.25
1534.3250088,18.3999996185303
1534.3406338,47.6699981689453
1534.3562588,79.9499969482422
1534.3718838,109.449996948242
1534.3875088,130.610000610352
1534.4031338,140.449996948242
1534.4187588,139.350006103516
1534.4343838,130.139999389648
1534.4500088,116.449996948242
1534.4656338,101.23999786377
1534.4812588,86.1500015258789
1534.4968838,71.6100006103516
1534.5125088,57.3800010681152
1534.5281338,43.2700004577637
1534.5437588,29.5699996948242
1534.5593838,16.9799995422363
1534.5750088,6.13000011444092
1534.5906338,-2.74000000953674
1534.6062588,-9.92000007629395
1534.6218838,-15.8400001525879
1534.6375088,-21.0400009155273
1534.6531338,-25.9699993133545
1534.6687588,-31.0400009155273
1534.6843838,-36.4599990844727
1534.7000088,-42.2900009155273
1534.7156338,-48.4099998474121
1534.7312588,-54.3600006103516
1534.7468838,-59.5099983215332
1534.7625088,-63.4199981689453
1534.7781338,-65.9700012207031
1534.7937588,-67.3499984741211
1534.8093838,-67.9700012207031
1534.8250088,-68.1999969482422
1534.8406338,-68.129997253418
1534.8562588,-67.4899978637695
1534.8718838,-66.0500030517578
1534.8875088,-63.7799987792969
1534.9031338,-60.8300018310547
1534.9187588,-57.3499984741211
1534.9343838,-53.439998626709
1534.9500088,-49.1500015258789
1534.9656338,-44.4700012207031
1534.9812588,-39.0099983215332
1534.9968838,-31.6599998474121
1535.0125088,-20.5599994659424
1535.0281338,-3.59999990463257
1535.0437588,20.4699993133545
1535.0593838,50.7700004577637
1535.0750088,83.5
1535.0906338,112.610000610352
1535.1062588,132.830001831055
1535.1218838,143.050003051758
1535.1375088,145.839996337891
1535.1531338,144.389999389648
1535.1687588,140.5
1535.1843838,134.550003051758
1535.2000088,126.279998779297
1535.2156338,115.330001831055
1535.2312588,101.620002746582
1535.2468838,85.4499969482422
1535.2625088,67.5899963378906
1535.2781338,49.1300010681152
1535.2937588,31.1000003814697
1535.3093838,14.4099998474121
1535.3250088,-0.0299999993294477
1535.3406338,-11.539999961853
1535.3562588,-20.4200000762939
1535.3718838,-28.2000007629395
1535.3875088,-36.939998626709
1535.4031338,-48.2700004577637
1535.4187588,-62.6699981689453
1535.4343838,-79.3399963378906
1535.4500088,-96.629997253418
1535.4656338,-112.720001220703
1535.4812588,-126.410003662109
1535.4968838,-137.050003051758
1535.5125088,-143.940002441406
1535.5281338,-146.419998168945
1535.5437588,-144.460006713867
1535.5593838,-138.880004882813
1535.5750088,-131.059997558594
1535.5906338,-122.550003051758
1535.6062588,-114.550003051758
1535.6218838,-107.75
1535.6375088,-102.349998474121
1535.6531338,-98.0699996948242
1535.6687588,-94.2300033569336
1535.6843838,-90.0199966430664
1535.7000088,-84.8300018310547
1535.7156338,-78.1100006103516
1535.7312588,-68.9100036621094
1535.7468838,-55.439998626709
1535.7625088,-35.5699996948242
1535.7781338,-8.42000007629395
1535.7937588,24.2600002288818
1535.8093838,58.25
1535.8250088,88.4000015258789
1535.8406338,110.550003051758
1535.8562588,122.779998779297
1535.8718838,125.529998779297
1535.8875088,121.0
1535.9031338,112.099998474121
1535.9187588,101.449996948242
1535.9343838,90.7099990844727
1535.9500088,80.2900009155273
1535.9656338,69.5800018310547
1535.9812588,57.439998626709
1535.9968838,43.4700012207031
1536.0125088,28.7800006866455
1536.0281338,15.4099998474121
1536.0437588,5.21999979019165
1536.0593838,-0.870000004768372
1536.0750088,-3.07999992370605
1536.0906338,-2.25
1536.1062588,0.579999983310699
1536.1218838,4.44000005722046
1536.1375088,8.5600004196167
1536.1531338,12.5100002288818
1536.1687588,16.1900005340576
1536.1843838,19.6299991607666
1536.2000088,23.0100002288818
1536.2156338,26.7099990844727
1536.2312588,31.3400001525879
1536.2468838,37.2099990844727
1536.2625088,43.9799995422363
1536.2781338,50.810001373291
1536.2937588,56.7799987792969
1536.3093838,61.2799987792969
1536.3250088,64.0400009155273
1536.3406338,65.1399993896484
1536.3562588,64.8499984741211
1536.3718838,63.5299987792969
1536.3875088,61.3800010681152
1536.4031338,58.4000015258789
1536.4187588,54.7299995422363
1536.4343838,51.0999984741211
1536.4500088,49.2799987792969
1536.4656338,52.1399993896484
1536.4812588,62.8600006103516
1536.4968838,82.5
1536.5125088,108.099998474121
1536.5281338,133.589996337891
1536.5437588,152.839996337891
1536.5593838,162.089996337891
1536.5750088,160.919998168945
1536.5906338,151.529998779297
1536.6062588,137.149993896484
1536.6218838,120.629997253418
1536.6375088,103.569999694824
1536.6531338,86.0999984741211
1536.6687588,67.4599990844727
1536.6843838,47.1500015258789
1536.7000088,25.5499992370605
1536.7156338,3.83999991416931
1536.7312588,-16.6499996185303
1536.7468838,-35.0299987792969
1536.7625088,-51.1100006103516
1536.7781338,-65.370002746582
1536.7937588,-78.5299987792969
1536.8093838,-91.2200012207031
1536.8250088,-103.639999389648
1536.8406338,-115.580001831055
1536.8562588,-126.540000915527
1536.8718838,-136.149993896484
1536.8875088,-144.270004272461
1536.9031338,-150.830001831055
1536.9187588,-155.789993286133
1536.9343838,-159.169998168945
1536.9500088,-161.050003051758
1536.9656338,-161.630004882813
1536.9812588,-161.139999389648
1536.9968838,-159.800003051758
1537.0125088,-157.75
1537.0281338,-155.100006103516
1537.0437588,-151.990005493164
1537.0593838,-148.539993286133
1537.0750088,-144.869995117188
1537.0906338,-141.050003051758
1537.1062588,-137.009994506836
1537.1218838,-132.699996948242
1537.1375088,-127.980003356934
1537.1531338,-122.290000915527
1537.1687588,-114.379997253418
1537.1843838,-102.349998474121
1537.2000088,-84.2399978637695
1537.2156338,-59.2700004577637
1537.2312588,-28.7099990844727
1537.2468838,3.74000000953674
1537.2625088,32.6399993896484
1537.2781338,52.9000015258789
1537.2937588,61.9700012207031
1537.3093838,60.5200004577637
1537.3250088,51.5800018310547
1537.3406338,39.060001373291
1537.3562588,26.2600002288818
1537.3718838,14.8800001144409
1537.3875088,5.1100001335144
1537.4031338,-3.33999991416931
1537.4187588,-10.6700000762939
1537.4343838,-16.7299995422363
1537.4500088,-21.2700004577637
1537.4656338,-24.0699996948242
1537.4812588,-25.2700004577637
1537.4968838,-25.4099998474121
1537.5125088,-25.0599994659424
1537.5281338,-24.6499996185303
1537.5437588,-24.4400005340576
1537.5593838,-24.4500007629395
1537.5750088,-24.5400009155273
1537.5906338,-24.3799991607666
1537.6062588,-23.75
1537.6218838,-22.6900005340576
1537.6375088,-21.3299999237061
1537.6531338,-19.5
1537.6687588,-16.7600002288818
1537.6843838,-12.75
1537.7000088,-7.42000007629395
1537.7156338,-1.16999995708466
1537.7312588,5.30999994277954
1537.7468838,11.4499998092651
1537.7625088,17.1000003814697
1537.7781338,22.4099998474121
1537.7937588,27.6000003814697
1537.8093838,32.8499984741211
1537.8250088,38.189998626709
1537.8406338,43.6100006103516
1537.8562588,49.2799987792969
1537.8718838,56.0499992370605
1537.8875088,65.75
1537.9031338,80.8000030517578
1537.9187588,102.779998779297
1537.9343838,130.860000610352
1537.9500088,161.660003662109
1537.9656338,190.529998779297
1537.9812588,213.449996948242
1537.9968838,228.179992675781
1538.0125088,234.229995727539
1538.0281338,232.600006103516
1538.0437588,225.25
1538.0593838,214.320007324219
1538.0750088,201.369995117188
1538.0906338,187.070007324219
1538.1062588,171.449996948242
1538.1218838,154.580001831055
1538.1375088,136.880004882813
1538.1531338,119.099998474121
1538.1687588,102.069999694824
1538.1843838,86.5
1538.2000088,72.7099990844727
1538.2156338,60.5200004577637
1538.2312588,49.3899993896484
1538.2468838,38.5800018310547
1538.2625088,27.3099994659424
1538.2781338,15.1800003051758
1538.2937588,2.38000011444092
1538.3093838,-10.5299997329712
1538.3250088,-22.9699993133545
1538.3406338,-34.5200004577637
1538.3562588,-45.060001373291
1538.3718838,-54.6399993896484
1538.3875088,-63.3199996948242
1538.4031338,-71.0699996948242
1538.4187588,-77.7600021362305
1538.4343838,-83.2200012207031
1538.4500088,-87.4599990844727
1538.4656338,-90.75
1538.4812588,-93.5400009155273
1538.4968838,-96.1999969482422
1538.5125088,-98.8399963378906
1538.5281338,-101.220001220703
1538.5437588,-102.910003662109
1538.5593838,-103.599998474121
1538.5750088,-102.900001525879
1538.5906338,-99.8499984741211
1538.6062588,-93.0500030517578
1538.6218838,-81.7300033569336
1538.6375088,-65.6800003051758
1538.6531338,-44.060001373291
1538.6687588,-16.5400009155273
1538.6843838,14.4899997711182
1538.7000088,44.0999984741211
1538.7156338,67.2300033569336
1538.7312588,80.8199996948242
1538.7468838,84.629997253418
1538.7625088,80.7900009155273
1538.7781338,72.4899978637695
1538.7937588,62.3199996948242
1538.8093838,51.4900016784668
1538.8250088,39.9000015258789
1538.8406338,26.8899993896484
1538.8562588,12.1999998092651
1538.8718838,-3.58999991416931
1538.8875088,-19.2000007629395
1538.9031338,-33.2400016784668
1538.9187588,-44.810001373291
1538.9343838,-53.9199981689453
1538.9500088,-61.3499984741211
1538.9656338,-68.1500015258789
1538.9812588,-75.1800003051758
1538.9968838,-82.9199981689453
1539.0125088,-91.4199981689453
1539.0281338,-100.279998779297
1539.0437588,-108.73999786377
1539.0593838,-116.099998474121
1539.0750088,-121.959999084473
1539.0906338,-126.209999084473
1539.1062588,-128.929992675781
1539.1218838,-130.300003051758
1539.1375088,-130.600006103516
1539.1531338,-130.070007324219
1539.1687588,-128.779998779297
1539.1843838,-126.620002746582
1539.2000088,-123.529998779297
1539.2156338,-119.580001831055
1539.2312588,-115.040000915527
1539.2468838,-110.379997253418
1539.2625088,-106.120002746582
1539.2781338,-102.430000305176
1539.2937588,-98.8199996948242
1539.3093838,-94.0800018310547
1539.3250088,-86.3399963378906
1539.3406338,-73.3600006103516
1539.3562588,-53.2000007629395
1539.3718838,-25.4699993133545
1539.3875088,7.67999982833862
1539.4031338,42.060001373291
1539.4187588,72.75
1539.4343838,95.6100006103516
1539.4500088,108.569999694824
1539.4656338,112.269996643066
1539.4812588,109.319999694824
1539.4968838,102.959999084473
1539.5125088,95.5699996948242
1539.5281338,87.9499969482422
1539.5437588,79.5299987792969
1539.5593838,69.3899993896484
1539.5750088,57.2099990844727
1539.5906338,43.6199989318848
1539.6062588,29.9099998474121
1539.6218838,17.4400005340576
1539.6375088,7.09000015258789
1539.6531338,-1.12000000476837
1539.6687588,-7.80000019073486
1539.6843838,-13.5299997329712
1539.7000088,-18.6599998474121
1539.7156338,-23.25
1539.7312588,-27.2999992370605
1539.7468838,-30.8700008392334
1539.7625088,-34.1300010681152
1539.7781338,-37.0900001525879
1539.7937588,-39.2999992370605
1539.8093838,-40.0499992370605
1539.8250088,-38.8300018310547
1539.8406338,-35.6300010681152
1539.8562588,-30.9200000762939
1539.8718838,-25.3600006103516
1539.8875088,-19.6900005340576
1539.9031338,-14.5699996948242
1539.9187588,-10.3699998855591
1539.9343838,-6.92999982833862
1539.9500088,-3.73000001907349
1539.9656338,-0.400000005960464
1539.9812588,3.03999996185303
1539.9968838,6.42999982833862
1540.0125088,9.71000003814697
1540.0281338,13.4499998092651
1540.0437588,19.3199996948242
1540.0593838,29.9300003051758
1540.0750088,47.5499992370605
1540.0906338,72.6800003051758
1540.1062588,103.110000610352
1540.1218838,134.419998168945
1540.1375088,161.580001831055
1540.1531338,180.759994506836
1540.1687588,190.449996948242
1540.1843838,191.369995117188
1540.2000088,185.75
1540.2156338,176.320007324219
1540.2312588,165.350006103516
1540.2468838,154.029998779297
1540.2625088,142.389999389648
1540.2781338,129.929992675781
1540.2937588,116.309997558594
1540.3093838,101.849998474121
1540.3250088,87.4400024414063
1540.3406338,74.1800003051758
1540.3562588,62.7900009155273
1540.3718838,53.310001373291
1540.3875088,45.1500015258789
1540.4031338,37.4300003051758
1540.4187588,29.2700004577637
1540.4343838,20.1100006103516
1540.4500088,9.96000003814697
1540.4656338,-0.730000019073486
1540.4812588,-11.3699998855591
1540.4968838,-21.3700008392334
1540.5125088,-30.3500003814697
1540.5281338,-38.1399993896484
1540.5437588,-44.6300010681152
1540.5593838,-49.6500015258789
1540.5750088,-53.1500015258789
1540.5906338,-55.2900009155273
1540.6062588,-56.4700012207031
1540.6218838,-57.1300010681152
1540.6375088,-57.6500015258789
1540.6531338,-58.310001373291
1540.6687588,-59.2599983215332
1540.6843838,-60.4900016784668
1540.7000088,-61.8899993896484
1540.7156338,-63.2000007629395
1540.7312588,-64.0999984741211
1540.7468838,-64.1600036621094
1540.7625088,-62.7599983215332
1540.7781338,-58.689998626709
1540.7937588,-49.9700012207031
1540.8093838,-34.7099990844727
1540.8250088,-12.6899995803833
1540.8406338,13.7399997711182
1540.8562588,40.4000015258789
1540.8718838,62.7599983215332
1540.8875088,77.629997253418
1540.9031338,83.9300003051758
1540.9187588,82.5500030517578
1540.9343838,75.5199966430664
1540.9500088,64.9800033569336
1540.9656338,52.6399993896484
1540.9812588,39.5099983215332
1540.9968838,25.9699993133545
1541.0125088,12.0600004196167
1541.0281338,-1.96000003814697
1541.0437588,-15.5699996948242
1541.0593838,-28.0499992370605
1541.0750088,-38.8600006103516
1541.0906338,-47.8600006103516
1541.1062588,-55.3899993896484
1541.1218838,-61.9799995422363
1541.1375088,-68.1600036621094
1541.1531338,-74.3600006103516
1541.1687588,-80.8300018310547
1541.1843838,-87.3300018310547
1541.2000088,-93.3099975585938
1541.2156338,-98.0999984741211
1541.2312588,-101.230003356934
1541.2468838,-102.569999694824
1541.2625088,-102.389999389648
1541.2781338,-101.099998474121
1541.2937588,-99.0199966430664
1541.3093838,-96.3199996948242
1541.3250088,-93.1900024414063
1541.3406338,-89.8399963378906
1541.3562588,-86.4100036621094
1541.3718838,-82.879997253418
1541.3875088,-79.1500015258789
1541.4031338,-74.9599990844727
1541.4187588,-70.1399993896484
1541.4343838,-64.8099975585938
1541.4500088,-59.5400009155273
1541.4656338,-54.9199981689453
1541.4812588,-51.2000007629395
1541.4968838,-47.8400001525879
1541.5125088,-43.0800018310547
1541.5281338,-34.0699996948242
1541.5437588,-18.2299995422363
1541.5593838,4.78000020980835
1541.5750088,32.3800010681152
1541.5906338,59.8499984741211
1541.6062588,82.3899993896484
1541.6218838,96.8300018310547
1541.6375088,102.48999786377
1541.6531338,100.900001525879
1541.6687588,94.7699966430664
1541.6843838,86.6500015258789
1541.7000088,77.9800033569336
1541.7156338,68.9199981689453
1541.7312588,58.9099998474121
1541.7468838,47.439998626709
1541.7625088,34.4099998474121
1541.7781338,20.3299999237061
1541.7937588,6.34999990463257
1541.8093838,-5.96999979019165
1541.8250088,-15.4499998092651
1541.8406338,-21.9099998474121
1541.8562588,-26.1100006103516
1541.8718838,-29.2399997711182
1541.8875088,-32.0900001525879
1541.9031338,-34.5099983215332
1541.9187588,-36.0499992370605
1541.9343838,-37.0900001525879
1541.9500088,-38.5400009155273
1541.9656338,-40.8899993896484
1541.9812588,-43.7900009155273
1541.9968838,-46.4500007629395
1542.0125088,-48.0900001525879
1542.0281338,-48.2999992370605
1542.0437588,-47.1500015258789
1542.0593838,-44.9099998474121
1542.0750088,-41.7599983215332
1542.0906338,-37.8300018310547
1542.1062588,-33.310001373291
1542.1218838,-28.3799991607666
1542.1375088,-23.2099990844727
1542.1531338,-17.9899997711182
1542.1687588,-12.9799995422363
1542.1843838,-8.5
1542.2000088,-4.53999996185303
1542.2156338,-0.600000023841858
1542.2312588,4.36999988555908
1542.2468838,12.0799999237061
1542.2625088,24.7299995422363
1542.2781338,44.3499984741211
1542.2937588,71.6800003051758
1542.3093838,104.76000213623
1542.3250088,138.669998168945
1542.3406338,167.580001831055
1542.3562588,187.300003051758
1542.3718838,196.529998779297
1542.3875088,196.679992675781
1542.4031338,190.639999389648
1542.4187588,181.350006103516
1542.4343838,170.800003051758
1542.4500088,159.639999389648
1542.4656338,147.520004272461
1542.4812588,133.75
1542.4968838,118.0
1542.5125088,100.629997253418
1542.5281338,82.75
1542.5437588,65.6500015258789
1542.5593838,50.3699989318848
1542.5750088,37.3600006103516
1542.5906338,26.4599990844727
1542.6062588,17.0200004577637
1542.6218838,8.25
1542.6375088,-0.449999988079071
1542.6531338,-9.34000015258789
1542.6687588,-18.4200000762939
1542.6843838,-27.5699996948242
1542.7000088,-36.4900016784668
1542.7156338,-44.5400009155273
1542.7312588,-51.1100006103516
1542.7468838,-55.8600006103516
1542.7625088,-58.8600006103516
1542.7781338,-60.4599990844727
1542.7937588,-61.0499992370605
1542.8093838,-60.9599990844727
1542.8250088,-60.3800010681152
1542.8406338,-59.5400009155273
1542.8562588,-58.7000007629395
1542.8718838,-58.0699996948242
1542.8875088,-57.7200012207031
1542.9031338,-57.6300010681152
1542.9187588,-57.7799987792969
1542.9343838,-57.9900016784668
1542.9500088,-57.7599983215332
1542.9656338,-55.8899993896484
1542.9812588,-50.4199981689453
1542.9968838,-39.2099990844727
1543.0125088,-21.1100006103516
1543.0281338,3.10999989509583
1543.0437588,30.7399997711182
1543.0593838,57.439998626709
1543.0750088,78.3000030517578
1543.0906338,89.75
1543.1062588,91.1699981689453
1543.1218838,84.5599975585938
1543.1375088,73.2399978637695
1543.1531338,60.2400016784668
1543.1687588,47.3699989318848
1543.1843838,34.9000015258789
1543.2000088,22.0900001525879
1543.2156338,8.10999965667725
1543.2312588,-7.21000003814697
1543.2468838,-23.1599998474121
1543.2625088,-38.4799995422363
1543.2781338,-52.0299987792969
1543.2937588,-63.2900009155273
1543.3093838,-72.2699966430664
1543.3250088,-79.3099975585938
1543.3406338,-85.0
1543.3562588,-90.0599975585938
1543.3718838,-95.0
1543.3875088,-99.9300003051758
