Time(s),Value(%)
833.0041916,-60.0499992370605
833.0198166,-59.4300003051758
833.0354416,-55.8300018310547
833.0510666,-50.5999984741211
833.0666916,-45.0999984741211
833.0823166,-40.3699989318848
833.0979416,-36.9000015258789
833.1135666,-34.7299995422363
833.1291916,-33.6599998474121
833.1448166,-33.4099998474121
833.1604416,-33.6500015258789
833.1760666,-34.1199989318848
833.1916916,-34.6300010681152
833.2073166,-35.1199989318848
833.2229416,-35.6300010681152
833.2385666,-36.2400016784668
833.2541916,-36.7599983215332
833.2698166,-36.5
833.2854416,-33.7999992370605
833.3010666,-25.6200008392334
833.3166916,-8.17000007629395
833.3323166,20.7600002288818
833.3479416,59.3199996948242
833.3635666,100.860000610352
833.3791916,136.080001831055
833.3948166,156.740005493164
833.4104416,158.820007324219
833.4260666,143.779998779297
833.4416916,117.410003662109
833.4573166,86.870002746582
833.4729416,57.75
833.4885666,32.4799995422363
833.5041916,10.9300003051758
833.5198166,-7.88000011444092
833.5354416,-24.5799999237061
833.5510666,-39.0499992370605
833.5666916,-50.689998626709
833.5823166,-58.810001373291
833.5979416,-63.0499992370605
833.6135666,-63.6699981689453
833.6291916,-61.4900016784668
833.6448166,-57.560001373291
833.6604416,-52.9700012207031
833.6760666,-48.6199989318848
833.6916916,-45.1300010681152
833.7073166,-42.7400016784668
833.7229416,-41.4300003051758
833.7385666,-41.0099983215332
833.7541916,-41.2900009155273
833.7698166,-42.060001373291
833.7854416,-43.0
833.8010666,-43.7400016784668
833.8166916,-43.9900016784668
833.8323166,-43.6800003051758
833.8479416,-42.9099998474121
833.8635666,-41.7000007629395
833.8791916,-39.5999984741211
833.8948166,-34.8899993896484
833.9104416,-23.9899997711182
833.9260666,-2.65000009536743
833.9416916,30.8600006103516
833.9573166,73.1699981689453
833.9729416,115.900001525879
833.9885666,148.949996948242
834.0041916,164.919998168945
834.0198166,161.940002441406
834.0354416,143.789993286133
834.0510666,117.349998474121
834.0666916,89.2699966430664
834.0823166,63.6500015258789
834.0979416,41.5699996948242
834.1135666,22.2099990844727
834.1291916,4.44000005722046
834.1448166,-12.0900001525879
834.1604416,-27.25
834.1760666,-40.7700004577637
834.1916916,-52.2799987792969
834.2073166,-61.4799995422363
834.2229416,-68.1399993896484
834.2385666,-72.0100021362305
834.2541916,-72.9000015258789
834.2698166,-71.0
834.2854416,-67.0199966430664
834.3010666,-62.1199989318848
834.3166916,-57.4900016784668
834.3323166,-53.8699989318848
834.3479416,-51.4700012207031
834.3635666,-50.0200004577637
834.3791916,-49.2200012207031
834.3948166,-48.9500007629395
834.4104416,-49.2000007629395
834.4260666,-49.7900009155273
834.4416916,-50.4099998474121
834.4573166,-50.7700004577637
834.4729416,-50.5999984741211
834.4885666,-49.5499992370605
834.5041916,-46.939998626709
834.5198166,-41.0400009155273
834.5354416,-28.4300003051758
834.5510666,-5.28000020980835
834.5666916,29.7199993133545
834.5823166,73.0100021362305
834.5979416,116.290000915527
834.6135666,149.779998779297
834.6291916,166.380004882813
834.6448166,164.25
834.6604416,146.820007324219
834.6760666,120.639999389648
834.6916916,92.3300018310547
834.7073166,66.3399963378906
834.7229416,44.2200012207031
834.7385666,25.2900009155273
834.7541916,7.8600001335144
834.7698166,-9.34000015258789
834.7854416,-26.1399993896484
834.8010666,-41.1599998474121
834.8166916,-52.7799987792969
834.8323166,-60.1199989318848
834.8479416,-63.2299995422363
834.8635666,-62.8199996948242
834.8791916,-59.9300003051758
834.8948166,-55.6599998474121
834.9104416,-50.9799995422363
834.9260666,-46.560001373291
834.9416916,-42.8400001525879
834.9573166,-40.0499992370605
834.9729416,-38.2900009155273
834.9885666,-37.4900016784668
835.0041916,-37.4700012207031
835.0198166,-38.060001373291
835.0354416,-39.0499992370605
835.0510666,-40.1800003051758
835.0666916,-41.1800003051758
835.0823166,-41.7599983215332
835.0979416,-41.6500015258789
835.1135666,-40.7900009155273
835.1291916,-39.1699981689453
835.1448166,-36.1800003051758
835.1604416,-29.4599990844727
835.1760666,-14.8599996566772
835.1916916,11.4799995422363
835.2073166,49.8699989318848
835.2229416,94.9000015258789
835.2385666,136.800003051758
835.2541916,165.529998779297
835.2698166,175.050003051758
835.2854416,165.589996337891
835.3010666,142.440002441406
835.3166916,112.559997558594
835.3323166,81.8399963378906
835.3479416,53.7299995422363
835.3635666,29.3600006103516
835.3791916,8.35999965667725
835.3948166,-10.1999998092651
835.4104416,-27.1000003814697
835.4260666,-42.4099998474121
835.4416916,-55.3600006103516
835.4573166,-64.9599990844727
835.4729416,-70.5800018310547
835.4885666,-72.1500015258789
835.5041916,-70.0899963378906
835.5198166,-65.1999969482422
835.5354416,-58.7799987792969
835.5510666,-52.3600006103516
835.5666916,-47.1399993896484
835.5823166,-43.6399993896484
835.5979416,-41.7000007629395
835.6135666,-40.7000007629395
835.6291916,-39.9500007629395
835.6448166,-39.1699981689453
835.6604416,-38.5499992370605
835.6760666,-38.3899993896484
835.6916916,-38.6699981689453
835.7073166,-39.0499992370605
835.7229416,-39.2000007629395
835.7385666,-38.7900009155273
835.7541916,-37.1800003051758
835.7698166,-32.4599990844727
835.7854416,-21.2199993133545
835.8010666,0.270000010728836
835.8166916,33.4099998474121
835.8323166,74.7399978637695
835.8479416,116.23999786377
835.8635666,148.419998168945
835.8791916,164.429992675781
835.8948166,162.649993896484
835.9104416,146.589996337891
835.9260666,122.529998779297
835.9416916,96.5699996948242
835.9573166,72.5299987792969
835.9729416,51.7900009155273
835.9885666,34.0900001525879
836.0041916,18.2800006866455
836.0198166,3.04999995231628
836.0354416,-11.9399995803833
836.0510666,-25.7399997711182
836.0666916,-36.9099998474121
836.0823166,-44.4500007629395
836.0979416,-48.2799987792969
836.1135666,-49.2999992370605
836.1291916,-48.9199981689453
836.1448166,-48.5299987792969
836.1604416,-48.9500007629395
836.1760666,-50.2799987792969
836.1916916,-51.9099998474121
836.2073166,-53.0200004577637
836.2229416,-53.4300003051758
836.2385666,-53.8899993896484
836.2541916,-55.4900016784668
836.2698166,-58.9799995422363
836.2854416,-64.2399978637695
836.3010666,-70.4100036621094
836.3166916,-76.3000030517578
836.3323166,-80.6900024414063
836.3479416,-82.6399993896484
836.3635666,-81.75
836.3791916,-77.7699966430664
836.3948166,-69.0100021362305
836.4104416,-51.6199989318848
836.4260666,-21.9699993133545
836.4416916,19.5
836.4573166,66.8000030517578
836.4729416,110.330001831055
836.4885666,140.970001220703
836.5041916,153.860000610352
836.5198166,149.539993286133
836.5354416,132.600006103516
836.5510666,109.120002746582
836.5666916,84.2900009155273
836.5823166,61.060001373291
836.5979416,40.0999984741211
836.6135666,20.7600002288818
836.6291916,2.29999995231628
836.6448166,-15.289999961853
836.6604416,-31.2999992370605
836.6760666,-44.560001373291
836.6916916,-53.9300003051758
836.7073166,-58.8400001525879
836.7229416,-59.5699996948242
836.7385666,-57.0800018310547
836.7541916,-52.5999984741211
836.7698166,-47.25
836.7854416,-41.9799995422363
836.8010666,-37.3899993896484
836.8166916,-33.7200012207031
836.8323166,-30.9899997711182
836.8479416,-29.25
836.8635666,-28.6900005340576
836.8791916,-29.5699996948242
836.8948166,-31.9300003051758
836.9104416,-35.5800018310547
836.9260666,-40.0299987792969
836.9416916,-44.439998626709
836.9573166,-47.9199981689453
836.9729416,-49.8600006103516
836.9885666,-49.8800010681152
837.0041916,-46.9599990844727
837.0198166,-38.4099998474121
837.0354416,-20.3199996948242
837.0510666,10.0299997329712
837.0666916,51.3899993896484
837.0823166,97.370002746582
837.0979416,138.479995727539
837.1135666,165.990005493164
837.1291916,175.440002441406
837.1448166,167.740005493164
837.1604416,147.809997558594
837.1760666,121.930000305176
837.1916916,95.2900009155273
837.2073166,70.7099990844727
837.2229416,48.6800003051758
837.2385666,28.4300003051758
837.2541916,9.19999980926514
837.2698166,-9.22000026702881
837.2854416,-26.2900009155273
837.3010666,-40.7700004577637
837.3166916,-51.439998626709
837.3323166,-57.6199989318848
837.3479416,-59.4599990844727
837.3635666,-57.8800010681152
837.3791916,-54.2200012207031
837.3948166,-49.8199996948242
837.4104416,-45.5900001525879
837.4260666,-42.0499992370605
837.4416916,-39.4900016784668
837.4573166,-38.1199989318848
837.4729416,-37.9599990844727
837.4885666,-38.8199996948242
837.5041916,-40.4300003051758
837.5198166,-42.5699996948242
837.5354416,-45.0499992370605
837.5510666,-47.5200004577637
837.5666916,-49.6599998474121
837.5823166,-51.1599998474121
837.5979416,-51.560001373291
837.6135666,-50.2700004577637
837.6291916,-46.1100006103516
837.6448166,-37.060001373291
837.6604416,-21.0799999237061
837.6760666,2.71000003814697
837.6916916,34.0099983215332
837.7073166,70.6699981689453
837.7229416,107.650001525879
837.7385666,137.789993286133
837.7541916,154.610000610352
837.7698166,155.100006103516
837.7854416,140.699996948242
837.8010666,116.290000915527
837.8166916,87.9599990844727
837.8323166,60.5999984741211
837.8479416,36.6199989318848
837.8635666,16.1599998474121
837.8791916,-1.79999995231628
837.8948166,-18.2299995422363
837.9104416,-33.2999992370605
837.9260666,-46.3800010681152
837.9416916,-56.5099983215332
837.9573166,-62.8400001525879
837.9729416,-65.0800018310547
837.9885666,-63.7400016784668
838.0041916,-59.9900016784668
838.0198166,-55.2700004577637
838.0354416,-50.9199981689453
838.0510666,-47.7900009155273
838.0666916,-46.0200004577637
838.0823166,-45.2599983215332
838.0979416,-45.0099983215332
838.1135666,-44.9199981689453
838.1291916,-44.9000015258789
838.1448166,-44.9799995422363
838.1604416,-44.8800010681152
838.1760666,-44.2099990844727
838.1916916,-43.0699996948242
838.2073166,-42.0200004577637
838.2229416,-41.4300003051758
838.2385666,-41.2599983215332
838.2541916,-41.1300010681152
838.2698166,-40.4500007629395
838.2854416,-37.8600006103516
838.3010666,-30.3700008392334
838.3166916,-13.8100004196167
838.3323166,14.8599996566772
838.3479416,54.5099983215332
838.3635666,98.7099990844727
838.3791916,137.720001220703
838.3948166,162.720001220703
838.4104416,169.330001831055
838.4260666,158.630004882813
838.4416916,135.690002441406
838.4573166,107.110000610352
838.4729416,78.5999984741211
838.4885666,53.3499984741211
838.5041916,31.9099998474121
838.5198166,13.1899995803833
838.5354416,-4.11999988555908
838.5510666,-20.8700008392334
838.5666916,-36.9000015258789
838.5823166,-50.9900016784668
838.5979416,-61.4799995422363
838.6135666,-67.3000030517578
838.6291916,-68.4899978637695
838.6448166,-66.1100006103516
838.6604416,-61.7099990844727
838.6760666,-56.8300018310547
838.6916916,-52.75
838.7073166,-50.1699981689453
838.7229416,-49.0400009155273
838.7385666,-48.75
838.7541916,-48.5699996948242
838.7698166,-48.060001373291
838.7854416,-47.2000007629395
838.8010666,-46.2700004577637
838.8166916,-45.5299987792969
838.8323166,-44.9000015258789
838.8479416,-44.1699981689453
838.8635666,-43.1699981689453
838.8791916,-41.7400016784668
838.8948166,-39.6100006103516
838.9104416,-35.9700012207031
838.9260666,-28.5400009155273
838.9416916,-13.039999961853
838.9573166,14.4799995422363
838.9729416,53.9500007629395
838.9885666,99.5199966430664
839.0041916,141.410003662109
839.0198166,169.929992675781
839.0354416,179.5
839.0510666,170.389999389648
839.0666916,147.619995117188
839.0823166,118.319999694824
839.0979416,88.7600021362305
839.1135666,62.6100006103516
839.1291916,40.6100006103516
839.1448166,21.6200008392334
839.1604416,4.03000020980835
839.1760666,-13.1499996185303
839.1916916,-29.9799995422363
839.2073166,-45.5800018310547
839.2229416,-58.3499984741211
839.2385666,-66.8000030517578
839.2541916,-70.370002746582
839.2698166,-69.6100006103516
839.2854416,-65.9499969482422
839.3010666,-61.1399993896484
839.3166916,-56.6800003051758
839.3323166,-53.3899993896484
839.3479416,-51.4300003051758
839.3635666,-50.5299987792969
839.3791916,-50.2099990844727
839.3948166,-50.0499992370605
839.4104416,-49.8199996948242
839.4260666,-49.5200004577637
839.4416916,-49.25
839.4573166,-49.0999984741211
839.4729416,-48.9199981689453
839.4885666,-48.4900016784668
839.5041916,-47.7299995422363
839.5198166,-46.6699981689453
839.5354416,-45.1800003051758
839.5510666,-42.189998626709
839.5666916,-34.689998626709
839.5823166,-18.0
839.5979416,11.5299997329712
839.6135666,52.939998626709
839.6291916,99.4000015258789
839.6448166,140.639999389648
839.6604416,167.199996948242
839.6760666,174.169998168945
839.6916916,162.580001831055
839.7073166,137.979995727539
839.7229416,107.660003662109
839.7385666,77.75
839.7541916,51.5299987792969
839.7698166,29.4500007629395
839.7854416,10.2200002670288
839.8010666,-7.73999977111816
839.8166916,-25.0799999237061
839.8323166,-40.9599990844727
839.8479416,-53.7400016784668
839.8635666,-62.0400009155273
839.8791916,-65.4300003051758
839.8948166,-64.5699996948242
839.9104416,-60.9099998474121
839.9260666,-55.9900016784668
839.9416916,-50.939998626709
839.9573166,-46.3400001525879
839.9729416,-42.4300003051758
839.9885666,-39.2999992370605
840.0041916,-36.9099998474121
840.0198166,-35.2299995422363
840.0354416,-34.2999992370605
840.0510666,-34.2200012207031
840.0666916,-34.9700012207031
840.0823166,-36.25
840.0979416,-37.6599998474121
840.1135666,-39.0400009155273
840.1291916,-40.4099998474121
840.1448166,-41.7599983215332
840.1604416,-42.4799995422363
840.1760666,-40.1399993896484
840.1916916,-29.9300003051758
840.2073166,-6.8600001335144
840.2229416,30.1100006103516
840.2385666,75.9300003051758
840.2541916,120.849998474121
840.2698166,154.419998168945
840.2854416,169.610000610352
840.3010666,165.0
840.3166916,144.529998779297
840.3323166,115.180000305176
840.3479416,83.879997253418
840.3635666,55.1300010681152
840.3791916,30.4699993133545
840.3948166,9.30000019073486
840.4104416,-9.56999969482422
840.4260666,-26.9400005340576
840.4416916,-42.8400001525879
840.4573166,-56.5900001525879
840.4729416,-67.0100021362305
840.4885666,-73.1699981689453
840.5041916,-74.9100036621094
840.5198166,-72.9199981689453
840.5354416,-68.5899963378906
840.5510666,-63.5499992370605
840.5666916,-59.1800003051758
840.5823166,-56.0699996948242
840.5979416,-54.0400009155273
840.6135666,-52.5
840.6291916,-50.9099998474121
840.6448166,-49.0400009155273
840.6604416,-47.1100006103516
840.6760666,-45.4799995422363
840.6916916,-44.5400009155273
840.7073166,-44.4599990844727
840.7229416,-45.0699996948242
840.7385666,-45.8899993896484
840.7541916,-46.2999992370605
840.7698166,-45.5400009155273
840.7854416,-41.9700012207031
840.8010666,-32.3800010681152
840.8166916,-13.1099996566772
840.8323166,17.2800006866455
840.8479416,55.810001373291
840.8635666,95.0400009155273
840.8791916,125.860000610352
840.8948166,141.419998168945
840.9104416,139.789993286133
840.9260666,123.889999389648
840.9416916,99.6600036621094
840.9573166,73.5400009155273
840.9729416,50.2000007629395
840.9885666,31.75
841.0041916,18.3600006103516
841.0198166,8.89999961853027
841.0354416,1.23000001907349
841.0510666,-6.8899998664856
841.0666916,-16.7600002288818
841.0823166,-27.8299999237061
841.0979416,-38.0400009155273
841.1135666,-45.0999984741211
841.1291916,-47.7900009155273
841.1448166,-46.1800003051758
841.1604416,-41.1800003051758
841.1760666,-33.8199996948242
841.1916916,-24.7999992370605
841.2073166,-14.9300003051758
841.2229416,-5.65000009536743
841.2385666,0.930000007152557
841.2541916,3.09999990463257
841.2698166,0.550000011920929
841.2854416,-5.36999988555908
841.3010666,-12.6700000762939
841.3166916,-19.6900005340576
841.3323166,-25.5400009155273
841.3479416,-29.9899997711182
841.3635666,-33.4300003051758
841.3791916,-36.4300003051758
841.3948166,-39.2299995422363
841.4104416,-41.3699989318848
841.4260666,-41.8199996948242
841.4416916,-39.1300010681152
841.4573166,-30.9500007629395
841.4729416,-13.6800003051758
841.4885666,15.5
841.5041916,55.3199996948242
841.5198166,99.1500015258789
841.5354416,137.270004272461
841.5510666,160.949996948242
841.5666916,165.839996337891
841.5823166,152.850006103516
841.5979416,126.919998168945
841.6135666,94.6800003051758
841.6291916,62.1800003051758
841.6448166,33.310001373291
841.6604416,9.40999984741211
841.6760666,-10.1499996185303
841.6916916,-26.7800006866455
841.7073166,-41.7799987792969
841.7229416,-55.9300003051758
841.7385666,-69.3000030517578
841.7541916,-81.120002746582
841.7698166,-90.3199996948242
841.7854416,-96.1699981689453
841.8010666,-98.8399963378906
841.8166916,-99.6999969482422
841.8323166,-100.819999694824
841.8479416,-103.279998779297
841.8635666,-106.0
841.8791916,-106.599998474121
841.8948166,-103.169998168945
841.9104416,-95.370002746582
841.9260666,-84.3300018310547
841.9416916,-71.6600036621094
841.9573166,-58.4900016784668
841.9729416,-45.5999984741211
841.9885666,-34.6500015258789
842.0041916,-28.8099994659424
842.0198166,-31.1100006103516
842.0354416,-41.6399993896484
842.0510666,-56.2400016784668
842.0666916,-68.3300018310547
842.0823166,-72.4400024414063
842.0979416,-66.6399993896484
842.1135666,-52.4500007629395
842.1291916,-33.4099998474121
842.1448166,-13.6199998855591
842.1604416,3.96000003814697
842.1760666,19.2299995422363
842.1916916,34.0099983215332
842.2073166,49.2200012207031
842.2229416,62.9099998474121
842.2385666,71.5599975585938
842.2541916,72.870002746582
842.2698166,67.2600021362305
842.2854416,57.3600006103516
842.3010666,46.2900009155273
842.3166916,36.189998626709
842.3323166,27.7299995422363
842.3479416,21.1000003814697
842.3635666,17.1499996185303
842.3791916,17.0300006866455
842.3948166,20.9799995422363
842.4104416,27.4699993133545
842.4260666,33.6199989318848
842.4416916,36.5
842.4573166,34.5699996948242
842.4729416,28.0599994659424
842.4885666,18.7800006866455
842.5041916,9.52000045776367
842.5198166,2.85999989509583
842.5354416,0.209999993443489
842.5510666,1.52999997138977
842.5666916,5.53999996185303
842.5823166,10.4099998474121
842.5979416,14.9499998092651
842.6135666,19.3799991607666
842.6291916,24.7299995422363
842.6448166,31.4799995422363
842.6604416,39.0200004577637
842.6760666,46.1399993896484
842.6916916,51.8600006103516
842.7073166,55.5400009155273
842.7229416,56.7799987792969
842.7385666,55.8300018310547
842.7541916,54.0999984741211
842.7698166,53.2999992370605
842.7854416,54.1800003051758
842.8010666,56.2000007629395
842.8166916,58.2700004577637
842.8323166,59.3300018310547
842.8479416,58.6800003051758
842.8635666,56.3400001525879
842.8791916,53.3699989318848
842.8948166,51.7999992370605
842.9104416,53.3699989318848
842.9260666,58.3400001525879
842.9416916,65.5400009155273
842.9573166,73.3499984741211
842.9729416,80.25
842.9885666,85.0800018310547
843.0041916,87.4499969482422
843.0198166,87.0800018310547
843.0354416,82.5899963378906
843.0510666,73.4800033569336
843.0666916,63.9199981689453
843.0823166,61.6100006103516
843.0979416,70.8499984741211
843.1135666,88.0400009155273
843.1291916,104.819999694824
843.1448166,115.120002746582
843.1604416,118.75
843.1760666,119.23999786377
843.1916916,120.23999786377
843.2073166,124.550003051758
843.2229416,134.190002441406
843.2385666,148.630004882813
843.2541916,163.0
843.2698166,169.539993286133
843.2854416,161.220001220703
843.3010666,135.720001220703
843.3166916,98.2600021362305
843.3323166,60.6500015258789
843.3479416,35.1199989318848
843.3635666,26.9599990844727
843.3791916,32.1399993896484
843.3948166,41.0999984741211
843.4104416,45.8499984741211
843.4260666,44.8600006103516
843.4416916,41.9799995422363
843.4573166,41.3400001525879
843.4729416,43.2400016784668
843.4885666,43.6399993896484
843.5041916,36.4799995422363
843.5198166,17.3299999237061
843.5354416,-14.289999961853
843.5510666,-55.4900016784668
843.5666916,-101.519996643066
843.5823166,-147.169998168945
843.5979416,-187.190002441406
843.6135666,-217.029998779297
843.6291916,-234.610000610352
843.6448166,-241.410003662109
843.6604416,-241.509994506836
843.6760666,-239.110000610352
843.6916916,-236.529998779297
843.7073166,-233.929992675781
