Time(s),Value(%)
664.006733,-69.6999969482422
664.022358,-66.4800033569336
664.037983,-60.9000015258789
664.053608,-53.0800018310547
664.069233,-43.7099990844727
664.084858,-33.3899993896484
664.100483,-22.1200008392334
664.116108,-9.56999969482422
664.131733,4.17999982833862
664.147358,18.4899997711182
664.162983,32.4300003051758
664.178608,45.2799987792969
664.194233,56.8600006103516
664.209858,67.3899993896484
664.225483,77.3000030517578
664.241108,86.9700012207031
664.256733,96.6500015258789
664.272358,106.370002746582
664.287983,115.900001525879
664.303608,124.870002746582
664.319233,132.970001220703
664.334858,140.080001831055
664.350483,146.309997558594
664.366108,151.880004882813
664.381733,157.169998168945
664.397358,163.070007324219
664.412983,171.139999389648
664.428608,182.720001220703
664.444233,198.059997558594
664.459858,216.610000610352
664.475483,237.940002441406
664.491108,261.779998779297
664.506733,286.850006103516
664.522358,311.549987792969
664.537983,327.670013427734
664.553608,327.670013427734
664.569233,327.670013427734
664.584858,327.670013427734
664.600483,327.670013427734
664.616108,327.670013427734
664.631733,327.670013427734
664.647358,327.670013427734
664.662983,327.670013427734
664.678608,327.670013427734
664.694233,327.670013427734
664.709858,327.670013427734
664.725483,327.670013427734
664.741108,327.670013427734
664.756733,319.540008544922
664.772358,307.089996337891
664.787983,294.940002441406
664.803608,282.989990234375
664.819233,270.700012207031
664.834858,257.5
664.850483,243.259994506836
664.866108,228.490005493164
664.881733,214.119995117188
664.897358,201.009994506836
664.912983,189.479995727539
664.928608,179.25
664.944233,169.809997558594
664.959858,161.029998779297
664.975483,153.369995117188
664.991108,147.369995117188
665.006733,142.949996948242
665.022358,139.470001220703
665.037983,136.410003662109
665.053608,133.619995117188
665.069233,131.009994506836
665.084858,128.130004882813
665.100483,124.01000213623
665.116108,117.879997253418
665.131733,109.809997558594
665.147358,100.559997558594
665.162983,90.8000030517578
665.178608,80.7600021362305
665.194233,70.4400024414063
665.209858,59.8800010681152
665.225483,49.2000007629395
665.241108,38.5499992370605
665.256733,27.9599990844727
665.272358,17.3899993896484
665.287983,6.84000015258789
665.303608,-3.53999996185303
665.319233,-13.5100002288818
665.334858,-22.8299999237061
665.350483,-31.4300003051758
665.366108,-39.5400009155273
665.381733,-47.5099983215332
665.397358,-55.4700012207031
665.412983,-63.0400009155273
665.428608,-69.6399993896484
665.444233,-75.0100021362305
665.459858,-79.3899993896484
665.475483,-83.3099975585938
665.491108,-87.2200012207031
665.506733,-93.1399993896484
665.522358,-98.6399993896484
665.537983,-102.430000305176
665.553608,-103.25
665.569233,-100.730003356934
665.584858,-95.4000015258789
665.600483,-88.1399993896484
665.616108,-79.7200012207031
665.631733,-70.9199981689453
665.647358,-63.2099990844727
665.662983,-58.7799987792969
665.678608,-59.5800018310547
665.694233,-65.9199981689453
665.709858,-76.4800033569336
665.725483,-89.4599990844727
665.741108,-103.400001525879
665.756733,-117.410003662109
665.772358,-131.039993286133
665.787983,-144.110000610352
665.803608,-156.699996948242
665.819233,-169.039993286133
665.834858,-181.380004882813
665.850483,-193.770004272461
665.866108,-206.190002441406
665.881733,-218.619995117188
665.897358,-231.059997558594
665.912983,-243.399993896484
665.928608,-255.339996337891
665.944233,-266.429992675781
665.959858,-276.25
665.975483,-284.529998779297
665.991108,-291.140014648438
666.006733,-296.029998779297
666.022358,-299.220001220703
666.037983,-300.989990234375
666.053608,-301.75
666.069233,-301.799987792969
666.084858,-300.850006103516
666.100483,-297.869995117188
666.116108,-291.760009765625
666.131733,-282.269989013672
666.147358,-270.100006103516
666.162983,-256.309997558594
666.178608,-241.800003051758
666.194233,-227.350006103516
666.209858,-214.029998779297
666.225483,-203.330001831055
666.241108,-196.320007324219
666.256733,-192.830001831055
666.272358,-191.610000610352
666.287983,-191.330001831055
666.303608,-191.229995727539
666.319233,-191.039993286133
666.334858,-190.75
666.350483,-190.419998168945
666.366108,-190.160003662109
666.381733,-190.210006713867
666.397358,-190.759994506836
666.412983,-191.820007324219
666.428608,-193.210006713867
666.444233,-194.679992675781
666.459858,-196.070007324219
666.475483,-197.240005493164
666.491108,-198.130004882813
666.506733,-200.880004882813
666.522358,-202.839996337891
666.537983,-203.429992675781
666.553608,-202.009994506836
666.569233,-198.270004272461
666.584858,-192.130004882813
666.600483,-183.490005493164
666.616108,-172.389999389648
666.631733,-159.320007324219
666.647358,-145.440002441406
666.662983,-132.259994506836
666.678608,-120.75
666.694233,-110.730003356934
666.709858,-101.480003356934
666.725483,-92.7699966430664
666.741108,-85.0100021362305
666.756733,-78.6999969482422
666.772358,-73.8199996948242
666.787983,-70.0299987792969
666.803608,-67.1900024414063
666.819233,-65.7900009155273
666.834858,-66.5299987792969
666.850483,-69.629997253418
666.866108,-74.7099990844727
666.881733,-81.2600021362305
666.897358,-88.8099975585938
666.912983,-96.8199996948242
666.928608,-104.580001831055
666.944233,-111.319999694824
666.959858,-116.73999786377
666.975483,-121.339996337891
666.991108,-125.769996643066
667.006733,-130.089996337891
667.022358,-133.649993896484
667.037983,-135.779998779297
667.053608,-136.229995727539
667.069233,-135.279998779297
667.084858,-133.429992675781
667.100483,-131.070007324219
667.116108,-128.399993896484
667.131733,-125.379997253418
667.147358,-121.830001831055
667.162983,-117.379997253418
667.178608,-111.769996643066
667.194233,-104.930000305176
667.209858,-96.8899993896484
667.225483,-87.5199966430664
667.241108,-76.7399978637695
667.256733,-64.9800033569336
667.272358,-53.1699981689453
667.287983,-42.3699989318848
667.303608,-33.2299995422363
667.319233,-25.7600002288818
667.334858,-19.4200000762939
667.350483,-13.5100002288818
667.366108,-7.69999980926514
667.381733,-2.14000010490417
667.397358,2.77999997138977
667.412983,6.84999990463257
667.428608,10.2299995422363
667.444233,13.3800001144409
667.459858,16.7600002288818
667.475483,20.6900005340576
667.491108,25.4799995422363
667.506733,31.4099998474121
667.522358,38.7299995422363
667.537983,46.9799995422363
667.553608,55.2400016784668
667.569233,62.6599998474121
667.584858,68.870002746582
667.600483,74.0100021362305
667.616108,78.5299987792969
667.631733,83.0500030517578
667.647358,88.5800018310547
667.662983,96.6100006103516
667.678608,108.379997253418
667.694233,123.790000915527
667.709858,141.119995117188
667.725483,157.759994506836
667.741108,171.520004272461
667.756733,181.449996948242
667.772358,187.630004882813
667.787983,190.399993896484
667.803608,190.460006713867
667.819233,189.339996337891
667.834858,189.229995727539
667.850483,192.0
667.866108,198.380004882813
667.881733,207.690002441406
667.897358,218.330001831055
667.912983,228.539993286133
667.928608,236.559997558594
667.944233,240.710006713867
667.959858,239.949996948242
667.975483,234.580001831055
667.991108,225.949996948242
668.006733,215.610000610352
668.022358,204.669998168945
668.037983,193.839996337891
668.053608,183.720001220703
668.069233,174.949996948242
668.084858,167.860000610352
668.100483,162.089996337891
668.116108,156.940002441406
668.131733,152.070007324219
668.147358,147.660003662109
668.162983,144.009994506836
668.178608,141.199996948242
668.194233,138.970001220703
668.209858,136.559997558594
668.225483,132.899993896484
668.241108,127.080001831055
668.256733,119.050003051758
668.272358,109.580001831055
668.287983,99.8099975585938
668.303608,90.7300033569336
668.319233,82.9100036621094
668.334858,76.9499969482422
668.350483,73.7600021362305
668.366108,73.9899978637695
668.381733,77.1600036621094
668.397358,81.8199996948242
668.412983,86.3099975585938
668.428608,89.629997253418
668.444233,91.5899963378906
668.459858,92.620002746582
668.475483,93.2099990844727
668.491108,93.3300018310547
668.506733,90.75
668.522358,86.1699981689453
668.537983,79.370002746582
668.553608,70.7200012207031
668.569233,60.75
668.584858,49.8800010681152
668.600483,38.7200012207031
668.616108,28.4099998474121
668.631733,20.5
668.647358,15.8699998855591
668.662983,13.8299999237061
668.678608,12.8199996948242
668.694233,11.6599998474121
668.709858,9.98999977111816
668.725483,7.73000001907349
668.741108,4.82999992370605
668.756733,1.41999995708466
668.772358,-1.8400000333786
668.787983,-3.82999992370605
668.803608,-3.63000011444092
668.819233,-1.19000005722046
668.834858,2.85999989509583
668.850483,7.88000011444092
668.866108,13.539999961853
668.881733,19.6299991607666
668.897358,25.9300003051758
668.912983,32.1599998474121
668.928608,38.0499992370605
668.944233,43.4500007629395
668.959858,48.310001373291
668.975483,52.6199989318848
668.991108,56.2200012207031
669.006733,58.6699981689453
669.022358,59.5499992370605
669.037983,58.8699989318848
669.053608,57.1699981689453
669.069233,55.2999992370605
669.084858,53.7400016784668
669.100483,52.2999992370605
669.116108,50.560001373291
669.131733,48.5400009155273
669.147358,46.7900009155273
669.162983,45.8300018310547
669.178608,45.810001373291
669.194233,46.4300003051758
669.209858,47.1100006103516
669.225483,47.189998626709
669.241108,46.2299995422363
669.256733,44.1800003051758
669.272358,41.2299995422363
669.287983,37.5
669.303608,33.060001373291
669.319233,28.1299991607666
669.334858,23.4099998474121
669.350483,20.0699996948242
669.366108,19.1100006103516
669.381733,20.6900005340576
669.397358,24.1900005340576
669.412983,28.7900009155273
669.428608,33.8899993896484
669.444233,39.0900001525879
669.459858,44.1500015258789
669.475483,48.9300003051758
669.491108,53.3199996948242
669.506733,56.4099998474121
669.522358,59.0400009155273
669.537983,61.25
669.553608,63.060001373291
669.569233,64.4100036621094
669.584858,65.2699966430664
669.600483,65.6500015258789
669.616108,65.6900024414063
669.631733,65.5800018310547
669.647358,65.3899993896484
669.662983,64.9899978637695
669.678608,64.1699981689453
669.694233,62.9199981689453
669.709858,61.3899993896484
669.725483,59.7999992370605
669.741108,58.2999992370605
669.756733,56.9300003051758
669.772358,55.5999984741211
669.787983,54.2000007629395
669.803608,52.6500015258789
669.819233,50.9300003051758
669.834858,49.060001373291
669.850483,47.0699996948242
669.866108,44.9900016784668
669.881733,42.8699989318848
669.897358,40.8499984741211
669.912983,39.2000007629395
669.928608,38.2599983215332
669.944233,38.3199996948242
669.959858,39.4500007629395
669.975483,41.4099998474121
669.991108,43.7599983215332
670.006733,46.0400009155273
670.022358,47.939998626709
670.037983,49.3499984741211
670.053608,50.2700004577637
670.069233,50.7400016784668
670.084858,50.8199996948242
670.100483,50.5400009155273
670.116108,49.9599990844727
670.131733,49.1300010681152
670.147358,48.0499992370605
670.162983,46.7599983215332
670.178608,45.1800003051758
670.194233,43.189998626709
670.209858,40.6199989318848
670.225483,37.4799995422363
670.241108,33.9199981689453
670.256733,30.2099990844727
670.272358,26.6100006103516
670.287983,23.2399997711182
670.303608,20.1000003814697
670.319233,17.0900001525879
670.334858,14.0900001525879
670.350483,10.9700002670288
670.366108,7.65000009536743
670.381733,4.15000009536743
670.397358,0.649999976158142
670.412983,-2.59999990463257
670.428608,-5.38000011444092
670.444233,-7.6399998664856
670.459858,-9.44999980926514
670.475483,-10.9099998474121
670.491108,-11.960000038147
670.506733,-12.6800003051758
670.522358,-12.6199998855591
670.537983,-11.8999996185303
670.553608,-10.9700002670288
670.569233,-10.3199996948242
670.584858,-10.1999998092651
670.600483,-10.6099996566772
670.616108,-11.3699998855591
670.631733,-12.2700004577637
670.647358,-13.1599998474121
670.662983,-14.0
670.678608,-14.7299995422363
670.694233,-15.2299995422363
670.709858,-15.3699998855591
670.725483,-15.1800003051758
670.741108,-15.0100002288818
670.756733,-15.460000038147
670.772358,-17.0200004577637
670.787983,-19.7199993133545
670.803608,-23.1700000762939
670.819233,-26.9500007629395
670.834858,-30.8500003814697
670.850483,-34.7700004577637
670.866108,-38.6500015258789
670.881733,-42.4599990844727
670.897358,-46.25
670.912983,-50.1699981689453
670.928608,-54.3400001525879
670.944233,-58.6599998474121
670.959858,-62.939998626709
670.975483,-66.9899978637695
670.991108,-70.7600021362305
671.006733,-74.3199996948242
671.022358,-77.7300033569336
671.037983,-80.9800033569336
671.053608,-83.75
671.069233,-85.3899993896484
671.084858,-85.2699966430664
671.100483,-83.2600021362305
671.116108,-79.7099990844727
671.131733,-75.0599975585938
671.147358,-69.6399993896484
671.162983,-63.8800010681152
671.178608,-58.5
671.194233,-54.5499992370605
671.209858,-52.8199996948242
671.225483,-53.2000007629395
671.241108,-54.9700012207031
671.256733,-57.4300003051758
671.272358,-60.2700004577637
671.287983,-63.4199981689453
671.303608,-66.8199996948242
671.319233,-70.3499984741211
671.334858,-73.8499984741211
671.350483,-77.1800003051758
671.366108,-80.2600021362305
671.381733,-83.0800018310547
671.397358,-85.629997253418
671.412983,-87.870002746582
671.428608,-89.75
671.444233,-91.2799987792969
671.459858,-92.6900024414063
671.475483,-94.3399963378906
671.491108,-96.4800033569336
671.506733,-100.849998474121
671.522358,-105.129997253418
671.537983,-109.0
671.553608,-112.360000610352
671.569233,-115.330001831055
671.584858,-118.089996337891
671.600483,-120.650001525879
671.616108,-122.620002746582
671.631733,-123.099998474121
671.647358,-121.209999084473
671.662983,-116.730003356934
671.678608,-110.059997558594
671.694233,-101.730003356934
671.709858,-92.1999969482422
671.725483,-82.0400009155273
671.741108,-72.3399963378906
671.756733,-64.6999969482422
671.772358,-60.3899993896484
671.787983,-59.4500007629395
671.803608,-60.9099998474121
671.819233,-63.689998626709
671.834858,-67.2099990844727
671.850483,-71.1800003051758
671.866108,-75.4199981689453
671.881733,-79.7099990844727
671.897358,-83.870002746582
671.912983,-87.7399978637695
671.928608,-91.2900009155273
671.944233,-94.5400009155273
671.959858,-97.5599975585938
671.975483,-100.480003356934
671.991108,-103.389999389648
672.006733,-106.309997558594
672.022358,-109.309997558594
672.037983,-112.550003051758
672.053608,-116.080001831055
672.069233,-119.690002441406
672.084858,-122.879997253418
672.100483,-125.209999084473
672.116108,-126.480003356934
672.131733,-126.830001831055
672.147358,-126.580001831055
672.162983,-125.970001220703
672.178608,-124.870002746582
672.194233,-122.660003662109
672.209858,-118.660003662109
672.225483,-112.690002441406
672.241108,-105.089996337891
672.256733,-96.370002746582
672.272358,-86.9899978637695
672.287983,-77.4199981689453
672.303608,-68.4499969482422
672.319233,-61.2099990844727
672.334858,-56.5699996948242
672.350483,-54.4500007629395
672.366108,-54.0099983215332
672.381733,-54.3800010681152
672.397358,-55.0099983215332
672.412983,-55.7200012207031
672.428608,-56.4500007629395
672.444233,-57.1699981689453
672.459858,-57.8800010681152
672.475483,-58.6500015258789
672.491108,-59.5800018310547
672.506733,-61.3600006103516
672.522358,-63.1800003051758
672.537983,-64.9199981689453
672.553608,-66.4400024414063
672.569233,-67.6900024414063
672.584858,-68.6999969482422
672.600483,-69.5
672.616108,-69.9100036621094
672.631733,-69.3899993896484
672.647358,-67.3000030517578
672.662983,-63.4199981689453
672.678608,-58.1199989318848
672.694233,-52.0900001525879
672.709858,-46.0099983215332
672.725483,-40.25
672.741108,-34.5800018310547
672.756733,-28.3099994659424
672.772358,-20.6900005340576
672.787983,-11.5
672.803608,-1.04999995231628
672.819233,10.1099996566772
672.834858,21.5499992370605
672.850483,32.7700004577637
672.866108,42.8800010681152
672.881733,50.5499992370605
672.897358,54.7799987792969
672.912983,55.7799987792969
672.928608,54.8499984741211
672.944233,53.3800010681152
672.959858,52.1800003051758
672.975483,51.4799995422363
672.991108,51.1300010681152
673.006733,50.8800010681152
673.022358,50.3600006103516
673.037983,49.1199989318848
673.053608,46.7400016784668
673.069233,43.0200004577637
673.084858,38.1399993896484
673.100483,32.5499992370605
673.116108,26.8199996948242
673.131733,21.4099998474121
673.147358,16.5799999237061
673.162983,12.3699998855591
673.178608,8.72000026702881
673.194233,5.53999996185303
673.209858,2.77999997138977
673.225483,0.46000000834465
673.241108,-1.17999994754791
673.256733,-1.70000004768372
673.272358,-0.639999985694885
673.287983,2.02999997138977
673.303608,5.94000005722046
673.319233,10.6099996566772
673.334858,15.6800003051758
673.350483,20.9500007629395
673.366108,26.0900001525879
673.381733,30.5400009155273
673.397358,33.7000007629395
673.412983,35.3899993896484
673.428608,35.9300003051758
673.444233,35.8899993896484
673.459858,35.6599998474121
673.475483,35.189998626709
673.491108,34.189998626709
673.506733,32.6399993896484
673.522358,30.3600006103516
673.537983,27.4899997711182
673.553608,24.1900005340576
673.569233,20.7099990844727
673.584858,17.4300003051758
673.600483,14.7799997329712
673.616108,12.9099998474121
673.631733,11.460000038147
673.647358,9.88000011444092
673.662983,7.94999980926514
673.678608,5.92000007629395
673.694233,4.19999980926514
673.709858,3.09999990463257
673.725483,2.78999996185303
673.741108,3.75999999046326
673.756733,7.13000011444092
673.772358,13.9300003051758
673.787983,24.2800006866455
673.803608,37.3699989318848
673.819233,52.0499992370605
673.834858,67.4100036621094
673.850483,82.6800003051758
673.866108,96.9499969482422
673.881733,109.069999694824
673.897358,118.169998168945
673.912983,124.169998168945
673.928608,127.720001220703
673.944233,129.470001220703
673.959858,129.889999389648
673.975483,129.279998779297
673.991108,128.029998779297
674.006733,126.440002441406
674.022358,124.639999389648
674.037983,122.430000305176
674.053608,119.540000915527
674.069233,115.819999694824
674.084858,111.26000213623
674.100483,105.800003051758
674.116108,99.379997253418
674.131733,92.1999969482422
674.147358,84.7699966430664
674.162983,77.7600021362305
674.178608,71.4499969482422
674.194233,65.4800033569336
674.209858,59.310001373291
674.225483,52.9099998474121
674.241108,46.810001373291
674.256733,41.6100006103516
674.272358,37.5699996948242
674.287983,34.689998626709
674.303608,33.3300018310547
674.319233,34.6100006103516
674.334858,39.6800003051758
674.350483,48.6800003051758
674.366108,60.6199989318848
674.381733,74.0500030517578
674.397358,87.7200012207031
674.412983,100.76000213623
674.428608,112.360000610352
674.444233,121.550003051758
674.459858,127.569999694824
674.475483,130.369995117188
674.491108,130.589996337891
674.506733,129.089996337891
674.522358,126.459999084473
674.537983,123.190002441406
674.553608,119.660003662109
674.569233,116.110000610352
674.584858,112.629997253418
674.600483,109.190002441406
674.616108,105.699996948242
674.631733,102.099998474121
674.647358,98.4100036621094
674.662983,94.6900024414063
674.678608,90.9899978637695
674.694233,87.379997253418
674.709858,83.9300003051758
674.725483,80.8099975585938
674.741108,78.3199996948242
674.756733,76.9199981689453
674.772358,76.9400024414063
674.787983,78.3099975585938
674.803608,80.5400009155273
674.819233,82.9899978637695
674.834858,85.1500015258789
674.850483,86.870002746582
674.866108,88.6100006103516
674.881733,91.4300003051758
674.897358,96.3300018310547
674.912983,103.519996643066
674.928608,112.360000610352
674.944233,121.910003662109
674.959858,131.350006103516
674.975483,140.039993286133
674.991108,147.050003051758
675.006733,150.979995727539
675.022358,150.639999389648
675.037983,145.960006713867
675.053608,138.039993286133
675.069233,128.429992675781
675.084858,118.400001525879
675.100483,108.699996948242
675.116108,99.5599975585938
