Time(s),Value(μS)
879.012673,3.19799995422363
879.028298,3.21600008010864
879.043923,3.2279999256134
879.059548,3.23699998855591
879.075173,3.24300003051758
879.090798,3.24699997901917
879.106423,3.25
879.122048,3.25300002098083
879.137673,3.25500011444092
879.153298,3.25600004196167
879.168923,3.25600004196167
879.184548,3.25300002098083
879.200173,3.24799990653992
879.215798,3.2409999370575
879.231423,3.23099994659424
879.247048,3.22199988365173
879.262673,3.21300005912781
879.278298,3.20799994468689
879.293923,3.20600008964539
879.309548,3.20700001716614
879.325173,3.20900011062622
879.340798,3.21099996566772
879.356423,3.21399998664856
879.372048,3.21600008010864
879.387673,3.21900010108948
879.403298,3.22199988365173
879.418923,3.2260000705719
879.434548,3.22900009155273
879.450173,3.23300004005432
879.465798,3.23499989509583
879.481423,3.23699998855591
879.497048,3.23499989509583
879.512673,3.23000001907349
879.528298,3.22099995613098
879.543923,3.20900011062622
879.559548,3.19400000572205
879.575173,3.17799997329712
879.590798,3.16400003433228
879.606423,3.15199995040894
879.622048,3.14299988746643
879.637673,3.13599991798401
879.653298,3.13199996948242
879.668923,3.12899994850159
879.684548,3.12800002098083
879.700173,3.125
879.715798,3.12299990653992
879.731423,3.11999988555908
879.747048,3.1159999370575
879.762673,3.11299991607666
879.778298,3.10999989509583
879.793923,3.10599994659424
879.809548,3.1010000705719
879.825173,3.08899998664856
879.840798,3.06500005722046
879.856423,3.03099989891052
879.872048,2.9909999370575
879.887673,2.95000004768372
879.903298,2.91300010681152
879.918923,2.88800001144409
879.934548,2.87400007247925
879.950173,2.86700010299683
879.965798,2.8659999370575
879.981423,2.86899995803833
879.997048,2.875
880.012673,2.88299989700317
880.028298,2.89299988746643
880.043923,2.90400004386902
880.059548,2.91499996185303
880.075173,2.92600011825562
880.090798,2.93499994277954
880.106423,2.94400000572205
880.122048,2.95300006866455
880.137673,2.96399998664856
880.153298,2.97699999809265
880.168923,2.99300003051758
880.184548,3.01099991798401
880.200173,3.03399991989136
880.215798,3.06100010871887
880.231423,3.09100008010864
880.247048,3.12400007247925
880.262673,3.15499997138977
880.278298,3.18300008773804
880.293923,3.20499992370605
880.309548,3.22099995613098
880.325173,3.23099994659424
880.340798,3.23799991607666
880.356423,3.24200010299683
880.372048,3.24499988555908
880.387673,3.24699997901917
880.403298,3.24900007247925
880.418923,3.25
880.434548,3.25099992752075
880.450173,3.25200009346008
880.465798,3.25200009346008
880.481423,3.25300002098083
880.497048,3.25300002098083
880.512673,3.25399994850159
880.528298,3.25399994850159
880.543923,3.25399994850159
880.559548,3.25399994850159
880.575173,3.25399994850159
880.590798,3.25300002098083
880.606423,3.25200009346008
880.622048,3.25
880.637673,3.24900007247925
880.653298,3.24699997901917
880.668923,3.24600005149841
880.684548,3.24399995803833
880.700173,3.24200010299683
880.715798,3.24000000953674
880.731423,3.24000000953674
880.747048,3.2409999370575
880.762673,3.24300003051758
880.778298,3.24499988555908
880.793923,3.24799990653992
880.809548,3.24900007247925
880.825173,3.25
880.840798,3.25
880.856423,3.24900007247925
880.872048,3.24900007247925
880.887673,3.24900007247925
880.903298,3.24900007247925
880.918923,3.25
880.934548,3.25099992752075
880.950173,3.25099992752075
880.965798,3.25200009346008
880.981423,3.25200009346008
880.997048,3.25300002098083
881.012673,3.25300002098083
881.028298,3.25399994850159
881.043923,3.25399994850159
881.059548,3.25500011444092
881.075173,3.25699996948242
881.090798,3.25799989700317
881.106423,3.25999999046326
881.122048,3.26200008392334
881.137673,3.26399993896484
881.153298,3.26500010490417
881.168923,3.26399993896484
881.184548,3.26300001144409
881.200173,3.25999999046326
881.215798,3.25799989700317
881.231423,3.25500011444092
881.247048,3.25200009346008
881.262673,3.24900007247925
881.278298,3.24600005149841
881.293923,3.24300003051758
881.309548,3.2409999370575
881.325173,3.23799991607666
881.340798,3.23499989509583
881.356423,3.23300004005432
881.372048,3.23099994659424
881.387673,3.23000001907349
881.403298,3.23000001907349
881.418923,3.23000001907349
881.434548,3.23000001907349
881.450173,3.23099994659424
881.465798,3.23099994659424
881.481423,3.23200011253357
881.497048,3.23300004005432
881.512673,3.23399996757507
881.528298,3.23499989509583
881.543923,3.23499989509583
881.559548,3.23600006103516
881.575173,3.23600006103516
881.590798,3.23699998855591
881.606423,3.23699998855591
881.622048,3.23699998855591
881.637673,3.23699998855591
881.653298,3.23699998855591
881.668923,3.23699998855591
881.684548,3.23600006103516
881.700173,3.23499989509583
881.715798,3.23399996757507
881.731423,3.23399996757507
881.747048,3.23300004005432
881.762673,3.23300004005432
881.778298,3.23200011253357
881.793923,3.23200011253357
881.809548,3.23200011253357
881.825173,3.23099994659424
881.840798,3.23099994659424
881.856423,3.23000001907349
881.872048,3.22900009155273
881.887673,3.2279999256134
881.903298,3.22699999809265
881.918923,3.2260000705719
881.934548,3.22499990463257
881.950173,3.22399997711182
881.965798,3.22300004959106
881.981423,3.22199988365173
881.997048,3.22099995613098
882.012673,3.22099995613098
882.028298,3.22000002861023
882.043923,3.21900010108948
882.059548,3.21900010108948
882.075173,3.21799993515015
882.090798,3.21799993515015
882.106423,3.21799993515015
882.122048,3.21799993515015
882.137673,3.21799993515015
882.153298,3.21799993515015
882.168923,3.21700000762939
882.184548,3.21700000762939
882.200173,3.21700000762939
882.215798,3.21700000762939
882.231423,3.21600008010864
882.247048,3.21600008010864
882.262673,3.21600008010864
882.278298,3.21600008010864
882.293923,3.21499991416931
882.309548,3.21399998664856
882.325173,3.21199989318848
882.340798,3.21000003814697
882.356423,3.20799994468689
882.372048,3.20600008964539
882.387673,3.20499992370605
882.403298,3.2039999961853
882.418923,3.2039999961853
882.434548,3.20300006866455
882.450173,3.20300006866455
882.465798,3.20300006866455
882.481423,3.20199990272522
882.497048,3.20099997520447
882.512673,3.20000004768372
882.528298,3.20000004768372
882.543923,3.19899988174438
882.559548,3.19899988174438
882.575173,3.19799995422363
882.590798,3.19899988174438
882.606423,3.19799995422363
882.622048,3.19799995422363
882.637673,3.19799995422363
882.653298,3.19700002670288
882.668923,3.19700002670288
882.684548,3.19700002670288
882.700173,3.19700002670288
882.715798,3.19700002670288
882.731423,3.19700002670288
882.747048,3.19600009918213
882.762673,3.19600009918213
882.778298,3.1949999332428
882.793923,3.1949999332428
882.809548,3.19400000572205
882.825173,3.19400000572205
882.840798,3.19300007820129
882.856423,3.19300007820129
882.872048,3.19300007820129
882.887673,3.19300007820129
882.903298,3.19300007820129
882.918923,3.19300007820129
882.934548,3.19300007820129
882.950173,3.19300007820129
882.965798,3.19199991226196
882.981423,3.19199991226196
882.997048,3.19199991226196
883.012673,3.19199991226196
883.028298,3.19300007820129
883.043923,3.19400000572205
883.059548,3.19400000572205
883.075173,3.1949999332428
883.090798,3.19600009918213
883.106423,3.19700002670288
883.122048,3.19700002670288
883.137673,3.19600009918213
883.153298,3.1949999332428
883.168923,3.19400000572205
883.184548,3.19300007820129
883.200173,3.19199991226196
883.215798,3.19099998474121
883.231423,3.19000005722046
883.247048,3.19000005722046
883.262673,3.18899989128113
883.278298,3.18899989128113
883.293923,3.18799996376038
883.309548,3.18700003623962
883.325173,3.18700003623962
883.340798,3.18600010871887
883.356423,3.18600010871887
883.372048,3.18600010871887
883.387673,3.18600010871887
883.403298,3.18600010871887
883.418923,3.18600010871887
883.434548,3.18600010871887
883.450173,3.18600010871887
883.465798,3.18600010871887
883.481423,3.18600010871887
883.497048,3.18600010871887
883.512673,3.18499994277954
883.528298,3.18600010871887
883.543923,3.18600010871887
883.559548,3.18700003623962
883.575173,3.18700003623962
883.590798,3.18700003623962
883.606423,3.18700003623962
883.622048,3.18700003623962
883.637673,3.18700003623962
883.653298,3.18700003623962
883.668923,3.18700003623962
883.684548,3.18700003623962
883.700173,3.18700003623962
883.715798,3.18700003623962
883.731423,3.18799996376038
883.747048,3.18799996376038
883.762673,3.18799996376038
883.778298,3.18799996376038
883.793923,3.18799996376038
883.809548,3.18799996376038
883.825173,3.18799996376038
883.840798,3.18899989128113
883.856423,3.18899989128113
883.872048,3.19000005722046
883.887673,3.19099998474121
883.903298,3.19199991226196
883.918923,3.19300007820129
883.934548,3.19300007820129
883.950173,3.19300007820129
883.965798,3.19199991226196
883.981423,3.19199991226196
883.997048,3.19099998474121
884.012673,3.19099998474121
884.028298,3.19099998474121
884.043923,3.19099998474121
884.059548,3.19000005722046
884.075173,3.19000005722046
884.090798,3.18899989128113
884.106423,3.18799996376038
884.122048,3.18700003623962
884.137673,3.18499994277954
884.153298,3.18400001525879
884.168923,3.18300008773804
884.184548,3.18199992179871
884.200173,3.18099999427795
884.215798,3.18099999427795
884.231423,3.1800000667572
884.247048,3.17899990081787
884.262673,3.17899990081787
884.278298,3.17799997329712
884.293923,3.17799997329712
884.309548,3.17700004577637
884.325173,3.17700004577637
884.340798,3.17700004577637
884.356423,3.17700004577637
884.372048,3.17600011825562
884.387673,3.17600011825562
884.403298,3.17600011825562
884.418923,3.17499995231628
884.434548,3.17499995231628
884.450173,3.17400002479553
884.465798,3.17400002479553
884.481423,3.17400002479553
884.497048,3.17400002479553
884.512673,3.17400002479553
884.528298,3.17499995231628
884.543923,3.17499995231628
884.559548,3.17600011825562
884.575173,3.17799997329712
884.590798,3.17899990081787
884.606423,3.18099999427795
884.622048,3.18199992179871
884.637673,3.18300008773804
884.653298,3.18400001525879
884.668923,3.18400001525879
884.684548,3.18499994277954
884.700173,3.18499994277954
884.715798,3.18499994277954
884.731423,3.18499994277954
884.747048,3.18600010871887
884.762673,3.18499994277954
884.778298,3.18499994277954
884.793923,3.18499994277954
884.809548,3.18499994277954
884.825173,3.18499994277954
884.840798,3.18499994277954
884.856423,3.18499994277954
884.872048,3.18499994277954
884.887673,3.18499994277954
884.903298,3.18400001525879
884.918923,3.18400001525879
884.934548,3.18300008773804
884.950173,3.18300008773804
884.965798,3.18300008773804
884.981423,3.18300008773804
884.997048,3.18199992179871
885.012673,3.18300008773804
885.028298,3.18199992179871
885.043923,3.18199992179871
885.059548,3.18199992179871
885.075173,3.18099999427795
885.090798,3.18099999427795
885.106423,3.1800000667572
885.122048,3.1800000667572
885.137673,3.17899990081787
885.153298,3.17899990081787
885.168923,3.17899990081787
885.184548,3.17899990081787
885.200173,3.17899990081787
885.215798,3.17799997329712
885.231423,3.17799997329712
885.247048,3.17700004577637
885.262673,3.17700004577637
885.278298,3.17700004577637
885.293923,3.17700004577637
885.309548,3.17700004577637
885.325173,3.17700004577637
885.340798,3.17700004577637
885.356423,3.17700004577637
885.372048,3.17700004577637
885.387673,3.17600011825562
885.403298,3.17600011825562
885.418923,3.17499995231628
885.434548,3.17400002479553
885.450173,3.17400002479553
885.465798,3.17400002479553
885.481423,3.17400002479553
885.497048,3.17400002479553
885.512673,3.17400002479553
885.528298,3.17400002479553
885.543923,3.17400002479553
885.559548,3.17400002479553
885.575173,3.17400002479553
885.590798,3.17400002479553
885.606423,3.17400002479553
885.622048,3.17400002479553
885.637673,3.17400002479553
885.653298,3.17400002479553
885.668923,3.17400002479553
885.684548,3.17300009727478
885.700173,3.17300009727478
885.715798,3.17199993133545
885.731423,3.17199993133545
885.747048,3.17199993133545
885.762673,3.1710000038147
885.778298,3.1710000038147
885.793923,3.1710000038147
885.809548,3.1710000038147
885.825173,3.17000007629395
885.840798,3.17000007629395
885.856423,3.17000007629395
885.872048,3.17000007629395
885.887673,3.17000007629395
885.903298,3.16899991035461
885.918923,3.16899991035461
885.934548,3.16899991035461
885.950173,3.16799998283386
885.965798,3.16799998283386
885.981423,3.16799998283386
885.997048,3.16799998283386
886.012673,3.16700005531311
886.028298,3.16700005531311
886.043923,3.16599988937378
886.059548,3.16599988937378
886.075173,3.16400003433228
886.090798,3.16300010681152
886.106423,3.16199994087219
886.122048,3.16100001335144
886.137673,3.16100001335144
886.153298,3.16100001335144
886.168923,3.16100001335144
886.184548,3.16000008583069
886.200173,3.15899991989136
886.215798,3.15599989891052
886.231423,3.15300011634827
886.247048,3.1489999294281
886.262673,3.14599990844727
886.278298,3.14299988746643
886.293923,3.14100003242493
886.309548,3.13899993896484
886.325173,3.13700008392334
886.340798,3.13599991798401
886.356423,3.1340000629425
886.372048,3.13199996948242
886.387673,3.13000011444092
886.403298,3.12899994850159
886.418923,3.12800002098083
886.434548,3.12800002098083
886.450173,3.12800002098083
886.465798,3.12899994850159
886.481423,3.12800002098083
886.497048,3.12599992752075
886.512673,3.12400007247925
886.528298,3.12100005149841
886.543923,3.11899995803833
886.559548,3.11700010299683
886.575173,3.11400008201599
886.590798,3.10899996757507
886.606423,3.10199999809265
886.622048,3.09400010108948
886.637673,3.08500003814697
886.653298,3.07599997520447
886.668923,3.0699999332428
886.684548,3.06500005722046
886.700173,3.06100010871887
886.715798,3.05800008773804
886.731423,3.05299997329712
886.747048,3.04699993133545
886.762673,3.03999996185303
886.778298,3.03200006484985
886.793923,3.02500009536743
886.809548,3.01900005340576
886.825173,3.01600003242493
886.840798,3.01300001144409
886.856423,3.01200008392334
886.872048,3.01099991798401
886.887673,3.00999999046326
886.903298,3.0090000629425
886.918923,3.0090000629425
886.934548,3.0090000629425
886.950173,3.0090000629425
886.965798,3.0090000629425
886.981423,3.0090000629425
886.997048,3.0090000629425
887.012673,3.0090000629425
887.028298,3.0090000629425
887.043923,3.00799989700317
887.059548,3.00699996948242
887.075173,3.00300002098083
887.090798,2.99699997901917
887.106423,2.98900008201599
887.122048,2.98000001907349
887.137673,2.96900010108948
887.153298,2.95900011062622
887.168923,2.94899988174438
887.184548,2.93899989128113
887.200173,2.92899990081787
887.215798,2.91799998283386
887.231423,2.90499997138977
887.247048,2.89199995994568
887.262673,2.87899994850159
887.278298,2.86800003051758
887.293923,2.85800004005432
887.309548,2.8510000705719
887.325173,2.84500002861023
887.340798,2.84100008010864
887.356423,2.83800005912781
887.372048,2.83400011062622
887.387673,2.83100008964539
887.403298,2.82800006866455
887.418923,2.82500004768372
887.434548,2.82299995422363
887.450173,2.82100009918213
887.465798,2.8199999332428
887.481423,2.81800007820129
887.497048,2.81599998474121
887.512673,2.81500005722046
887.528298,2.81399989128113
887.543923,2.81200003623962
887.559548,2.80999994277954
887.575173,2.80900001525879
887.590798,2.80800008773804
887.606423,2.80699992179871
887.622048,2.80599999427795
887.637673,2.8050000667572
887.653298,2.8050000667572
887.668923,2.80599999427795
887.684548,2.80599999427795
887.700173,2.80599999427795
887.715798,2.80699992179871
887.731423,2.80699992179871
887.747048,2.80699992179871
887.762673,2.80699992179871
887.778298,2.80699992179871
887.793923,2.80699992179871
887.809548,2.80699992179871
887.825173,2.80699992179871
887.840798,2.80699992179871
887.856423,2.80599999427795
887.872048,2.80599999427795
887.887673,2.80599999427795
887.903298,2.80599999427795
887.918923,2.8050000667572
887.934548,2.8050000667572
887.950173,2.8050000667572
887.965798,2.80399990081787
887.981423,2.80299997329712
887.997048,2.80299997329712
888.012673,2.80200004577637
888.028298,2.80200004577637
888.043923,2.80200004577637
888.059548,2.80200004577637
888.075173,2.80200004577637
888.090798,2.80299997329712
888.106423,2.80299997329712
888.122048,2.80299997329712
888.137673,2.80299997329712
888.153298,2.80200004577637
888.168923,2.80200004577637
888.184548,2.80100011825562
888.200173,2.80200004577637
888.215798,2.80200004577637
888.231423,2.80200004577637
888.247048,2.80200004577637
888.262673,2.80200004577637
888.278298,2.80200004577637
888.293923,2.80200004577637
888.309548,2.80100011825562
888.325173,2.80100011825562
888.340798,2.80100011825562
888.356423,2.80100011825562
888.372048,2.80100011825562
888.387673,2.80100011825562
888.403298,2.80200004577637
888.418923,2.80200004577637
888.434548,2.80200004577637
888.450173,2.80200004577637
888.465798,2.80200004577637
888.481423,2.80299997329712
888.497048,2.80299997329712
888.512673,2.80299997329712
888.528298,2.80399990081787
888.543923,2.8050000667572
888.559548,2.8050000667572
888.575173,2.8050000667572
888.590798,2.80599999427795
888.606423,2.80599999427795
888.622048,2.80599999427795
888.637673,2.80599999427795
888.653298,2.80599999427795
888.668923,2.80599999427795
888.684548,2.80599999427795
888.700173,2.80599999427795
888.715798,2.80599999427795
888.731423,2.80599999427795
888.747048,2.80599999427795
888.762673,2.80599999427795
888.778298,2.80599999427795
888.793923,2.80599999427795
888.809548,2.8050000667572
888.825173,2.8050000667572
888.840798,2.8050000667572
888.856423,2.8050000667572
888.872048,2.8050000667572
888.887673,2.8050000667572
888.903298,2.8050000667572
888.918923,2.80599999427795
888.934548,2.80599999427795
888.950173,2.8050000667572
888.965798,2.8050000667572
888.981423,2.8050000667572
888.997048,2.8050000667572
889.012673,2.8050000667572
889.028298,2.8050000667572
889.043923,2.8050000667572
889.059548,2.8050000667572
889.075173,2.8050000667572
889.090798,2.8050000667572
889.106423,2.8050000667572
889.122048,2.80399990081787
889.137673,2.80399990081787
889.153298,2.80399990081787
889.168923,2.80399990081787
889.184548,2.80399990081787
889.200173,2.80399990081787
889.215798,2.8050000667572
889.231423,2.8050000667572
889.247048,2.8050000667572
889.262673,2.80599999427795
889.278298,2.80599999427795
889.293923,2.80599999427795
889.309548,2.80599999427795
889.325173,2.80599999427795
889.340798,2.80699992179871
889.356423,2.80699992179871
889.372048,2.80800008773804
889.387673,2.80800008773804
889.403298,2.80800008773804
889.418923,2.80800008773804
889.434548,2.80800008773804
889.450173,2.80800008773804
889.465798,2.80699992179871
889.481423,2.80699992179871
889.497048,2.80699992179871
889.512673,2.80699992179871
889.528298,2.80699992179871
889.543923,2.80599999427795
889.559548,2.80599999427795
889.575173,2.80599999427795
889.590798,2.80599999427795
889.606423,2.80599999427795
889.622048,2.8050000667572
889.637673,2.8050000667572
889.653298,2.8050000667572
889.668923,2.8050000667572
889.684548,2.8050000667572
889.700173,2.8050000667572
889.715798,2.8050000667572
889.731423,2.8050000667572
889.747048,2.8050000667572
889.762673,2.8050000667572
889.778298,2.80399990081787
889.793923,2.80399990081787
889.809548,2.80399990081787
889.825173,2.80399990081787
889.840798,2.80399990081787
889.856423,2.80399990081787
889.872048,2.80399990081787
889.887673,2.80399990081787
889.903298,2.80399990081787
889.918923,2.80399990081787
889.934548,2.80399990081787
889.950173,2.80299997329712
889.965798,2.80299997329712
889.981423,2.80299997329712
889.997048,2.80399990081787
890.012673,2.80399990081787
890.028298,2.80399990081787
890.043923,2.80399990081787
890.059548,2.80399990081787
890.075173,2.8050000667572
890.090798,2.80399990081787
890.106423,2.8050000667572
890.122048,2.8050000667572
890.137673,2.8050000667572
890.153298,2.8050000667572
890.168923,2.80599999427795
890.184548,2.80599999427795
890.200173,2.80599999427795
890.215798,2.80599999427795
890.231423,2.80599999427795
