Time(s),Value(%)
31.0030367,35.3600006103516
31.0186617,34.0400009155273
31.0342867,32.439998626709
31.0499117,30.5400009155273
31.0655367,28.3999996185303
31.0811617,26.0799999237061
31.0967867,23.6499996185303
31.1124117,21.1800003051758
31.1280367,18.7999992370605
31.1436617,16.6800003051758
31.1592867,14.9300003051758
31.1749117,13.6099996566772
31.1905367,12.6300001144409
31.2061617,11.8800001144409
31.2217867,11.2799997329712
31.2374117,10.789999961853
31.2530367,10.3599996566772
31.2686617,9.96000003814697
31.2842867,9.59000015258789
31.2999117,9.28999996185303
31.3155367,9.10000038146973
31.3311617,9.03999996185303
31.3467867,9.07999992370605
31.3624117,9.15999984741211
31.3780367,9.23999977111816
31.3936617,9.27999973297119
31.4092867,9.25
31.4249117,9.21000003814697
31.4405367,9.60000038146973
31.4561617,11.3699998855591
31.4717867,15.4099998474121
31.4874117,21.8500003814697
31.5030367,29.8999996185303
31.5186617,38.3499984741211
31.5342867,46.1800003051758
31.5499117,53.4500007629395
31.5655367,63.0
31.5811617,80.7200012207031
31.5967867,112.069999694824
31.6124117,157.669998168945
31.6280367,212.419998168945
31.6436617,268.359985351563
31.6592867,318.619995117188
31.6749117,327.670013427734
31.6905367,327.670013427734
31.7061617,327.670013427734
31.7217867,327.670013427734
31.7374117,327.670013427734
31.7530367,317.619995117188
31.7686617,265.859985351563
31.7842867,215.25
31.7999117,170.860000610352
31.8155367,133.660003662109
31.8311617,101.660003662109
31.8467867,71.4499969482422
31.8624117,39.6199989318848
31.8780367,4.11999988555908
31.8936617,-34.8199996948242
31.9092867,-75.1999969482422
31.9249117,-114.379997253418
31.9405367,-150.429992675781
31.9561617,-182.350006103516
31.9717867,-209.020004272461
31.9874117,-228.360000610352
32.0030367,-238.080001831055
32.0186617,-237.429992675781
32.0342867,-228.179992675781
32.0499117,-213.910003662109
32.0655367,-198.490005493164
32.0811617,-184.600006103516
32.0967867,-173.229995727539
32.1124117,-163.929992675781
32.1280367,-155.639999389648
32.1436617,-147.350006103516
32.1592867,-142.929992675781
32.1749117,-137.149993896484
32.1905367,-130.440002441406
32.2061617,-123.339996337891
32.2217867,-116.26000213623
32.2374117,-109.519996643066
32.2530367,-103.73999786377
32.2686617,-100.069999694824
32.2842867,-99.379997253418
32.2999117,-101.269996643066
32.3155367,-104.129997253418
32.3311617,-106.279998779297
32.3467867,-106.819999694824
32.3624117,-105.830001831055
32.3780367,-103.980003356934
32.3936617,-101.919998168945
32.4092867,-99.5800018310547
32.4249117,-96.0299987792969
32.4405367,-90.120002746582
32.4561617,-81.4199981689453
32.4717867,-70.3099975585938
32.4874117,-57.4900016784668
32.5030367,-43.6300010681152
32.5186617,-29.5100002288818
32.5342867,-16.6399993896484
32.5499117,-7.28000020980835
32.5655367,-3.3199999332428
32.5811617,-4.96999979019165
32.5967867,-10.8000001907349
32.6124117,-18.9200000762939
32.6280367,-27.9300003051758
32.6436617,-37.0099983215332
32.6592867,-45.7999992370605
32.6749117,-54.1300010681152
32.6905367,-61.7999992370605
32.7061617,-68.4700012207031
32.7217867,-73.8199996948242
32.7374117,-77.8499984741211
32.7530367,-80.9400024414063
32.7686617,-83.7200012207031
32.7842867,-86.7600021362305
32.7999117,-90.3399963378906
32.8155367,-94.5800018310547
32.8311617,-99.8099975585938
32.8467867,-107.0
32.8624117,-117.559997558594
32.8780367,-132.369995117188
32.8936617,-151.110000610352
32.9092867,-173.199996948242
32.9249117,-199.169998168945
32.9405367,-230.029998779297
32.9561617,-265.420013427734
32.9717867,-302.510009765625
32.9874117,-327.679992675781
33.0030367,-327.679992675781
33.0186617,-327.679992675781
33.0342867,-327.679992675781
33.0499117,-327.679992675781
33.0655367,-327.679992675781
33.0811617,-327.679992675781
33.0967867,-327.679992675781
33.1124117,-327.679992675781
33.1280367,-327.679992675781
33.1436617,-327.679992675781
33.1592867,-327.679992675781
33.1749117,-327.679992675781
33.1905367,-327.679992675781
33.2061617,-318.329986572266
33.2217867,-264.519989013672
33.2374117,-214.949996948242
33.2530367,-171.270004272461
33.2686617,-134.580001831055
33.2842867,-105.300003051758
33.2999117,-82.3099975585938
33.3155367,-63.3499984741211
33.3311617,-46.2200012207031
33.3467867,-29.6800003051758
33.3624117,-13.3999996185303
33.3780367,2.42000007629395
33.3936617,17.5599994659424
33.4092867,31.9500007629395
33.4249117,45.8600006103516
33.4405367,59.6199989318848
33.4561617,73.370002746582
33.4717867,86.9599990844727
33.4874117,100.019996643066
33.5030367,112.190002441406
33.5186617,123.230003356934
33.5342867,132.899993896484
33.5499117,140.669998168945
33.5655367,145.699996948242
33.5811617,147.190002441406
33.5967867,144.949996948242
33.6124117,139.839996337891
33.6280367,133.360000610352
33.6436617,127.019996643066
33.6592867,121.730003356934
33.6749117,118.169998168945
33.6905367,118.529998779297
33.7061617,127.290000915527
33.7217867,148.630004882813
33.7374117,182.940002441406
33.7530367,226.440002441406
33.7686617,273.609985351563
33.7842867,319.809997558594
33.7999117,327.670013427734
33.8155367,327.670013427734
33.8311617,327.670013427734
33.8467867,327.670013427734
33.8624117,327.670013427734
33.8780367,327.670013427734
33.8936617,314.450012207031
33.9092867,242.0
33.9249117,167.240005493164
33.9405367,97.4499969482422
33.9561617,36.0900001525879
33.9717867,-15.6599998474121
33.9874117,-56.9700012207031
34.0030367,-87.25
34.0186617,-107.540000915527
34.0342867,-120.959999084473
34.0499117,-131.619995117188
34.0655367,-142.889999389648
34.0811617,-155.889999389648
34.0967867,-168.649993896484
34.1124117,-176.830001831055
34.1280367,-176.600006103516
34.1436617,-167.429992675781
34.1592867,-155.070007324219
34.1749117,-139.169998168945
34.1905367,-122.470001220703
34.2061617,-106.290000915527
34.2217867,-90.8000030517578
34.2374117,-75.6100006103516
34.2530367,-60.2099990844727
34.2686617,-44.2799987792969
34.2842867,-27.75
34.2999117,-10.8599996566772
34.3155367,5.86999988555908
34.3311617,21.7999992370605
34.3467867,36.4099998474121
34.3624117,49.6399993896484
34.3780367,62.0
34.3936617,74.4300003051758
34.4092867,87.7300033569336
34.4249117,102.059997558594
34.4405367,117.050003051758
34.4561617,132.210006713867
34.4717867,147.240005493164
34.4874117,161.949996948242
34.5030367,176.179992675781
34.5186617,189.759994506836
34.5342867,202.429992675781
34.5499117,213.869995117188
34.5655367,223.809997558594
34.5811617,232.25
34.5967867,239.350006103516
34.6124117,245.309997558594
34.6280367,250.279998779297
34.6436617,254.429992675781
34.6592867,258.119995117188
34.6749117,261.880004882813
34.6905367,266.040008544922
34.7061617,270.450012207031
34.7217867,274.630004882813
34.7374117,278.230010986328
34.7530367,281.200012207031
34.7686617,283.690002441406
34.7842867,285.859985351563
34.7999117,287.769989013672
34.8155367,289.450012207031
34.8311617,290.959991455078
34.8467867,292.380004882813
34.8624117,293.700012207031
34.8780367,294.820007324219
34.8936617,295.630004882813
34.9092867,295.989990234375
34.9249117,295.880004882813
34.9405367,295.350006103516
34.9561617,294.570007324219
34.9717867,293.660003662109
34.9874117,292.660003662109
35.0030367,291.450012207031
35.0186617,289.839996337891
35.0342867,287.720001220703
35.0499117,285.049987792969
35.0655367,281.880004882813
35.0811617,278.269989013672
35.0967867,274.109985351563
35.1124117,269.070007324219
35.1280367,262.820007324219
35.1436617,255.289993286133
35.1592867,246.690002441406
35.1749117,237.279998779297
35.1905367,227.270004272461
35.2061617,216.919998168945
35.2217867,206.639999389648
35.2374117,197.050003051758
35.2530367,188.589996337891
35.2686617,181.309997558594
35.2842867,174.910003662109
35.2999117,169.039993286133
35.3155367,163.479995727539
35.3311617,158.029998779297
35.3467867,152.529998779297
35.3624117,146.850006103516
35.3780367,140.990005493164
35.3936617,135.039993286133
35.4092867,129.009994506836
35.4249117,122.769996643066
35.4405367,116.120002746582
35.4561617,109.029998779297
35.4717867,101.639999389648
35.4874117,94.1900024414063
35.5030367,86.870002746582
35.5186617,79.7200012207031
35.5342867,72.6600036621094
35.5499117,65.5100021362305
35.5655367,58.0999984741211
35.5811617,50.3800010681152
35.5967867,42.3300018310547
35.6124117,33.9000015258789
35.6280367,25.0400009155273
35.6436617,15.8400001525879
35.6592867,6.67000007629395
35.6749117,-1.88999998569489
35.6905367,-9.38000011444092
35.7061617,-15.6999998092651
35.7217867,-21.0799999237061
35.7374117,-25.7700004577637
35.7530367,-29.9500007629395
35.7686617,-33.7299995422363
35.7842867,-37.2599983215332
35.7999117,-40.7000007629395
35.8155367,-44.2200012207031
35.8311617,-48.0499992370605
35.8467867,-52.3199996948242
35.8624117,-57.0800018310547
35.8780367,-62.5099983215332
35.8936617,-69.0800018310547
35.9092867,-77.2399978637695
35.9249117,-86.9599990844727
35.9405367,-97.5299987792969
35.9561617,-108.690002441406
35.9717867,-123.349998474121
35.9874117,-148.529998779297
36.0030367,-190.919998168945
36.0186617,-250.960006713867
36.0342867,-322.059997558594
36.0499117,-327.679992675781
36.0655367,-327.679992675781
36.0811617,-327.679992675781
36.0967867,-327.679992675781
36.1124117,-327.679992675781
36.1280367,-327.679992675781
36.1436617,-327.679992675781
36.1592867,-327.679992675781
36.1749117,-327.679992675781
36.1905367,-327.679992675781
36.2061617,-327.679992675781
36.2217867,-327.679992675781
36.2374117,-327.679992675781
36.2530367,-327.679992675781
36.2686617,-327.679992675781
36.2842867,-327.679992675781
36.2999117,-327.679992675781
36.3155367,-327.679992675781
36.3311617,-327.679992675781
36.3467867,-327.679992675781
36.3624117,-327.679992675781
36.3780367,-327.679992675781
36.3936617,-327.679992675781
36.4092867,-327.679992675781
36.4249117,-288.859985351563
36.4405367,-251.089996337891
36.4561617,-215.880004882813
36.4717867,-183.630004882813
36.4874117,-154.179992675781
36.5030367,-126.779998779297
36.5186617,-100.430000305176
36.5342867,-74.3899993896484
36.5499117,-48.5400009155273
36.5655367,-23.1499996185303
36.5811617,1.62999999523163
36.5967867,25.9099998474121
36.6124117,49.7200012207031
36.6280367,72.9400024414063
36.6436617,95.2900009155273
36.6592867,116.459999084473
36.6749117,136.190002441406
36.6905367,154.389999389648
36.7061617,171.100006103516
36.7217867,186.339996337891
36.7374117,200.029998779297
36.7530367,212.009994506836
36.7686617,222.360000610352
36.7842867,231.479995727539
36.7999117,239.979995727539
36.8155367,248.289993286133
36.8311617,256.369995117188
36.8467867,263.940002441406
36.8624117,270.859985351563
36.8780367,277.290008544922
36.8936617,283.420013427734
36.9092867,289.320007324219
36.9249117,294.839996337891
36.9405367,299.769989013672
36.9561617,303.859985351563
36.9717867,306.980010986328
36.9874117,309.109985351563
37.0030367,310.220001220703
37.0186617,310.119995117188
37.0342867,308.600006103516
37.0499117,305.75
37.0655367,302.070007324219
37.0811617,298.309997558594
37.0967867,294.859985351563
37.1124117,291.369995117188
37.1280367,287.179992675781
37.1436617,282.040008544922
37.1592867,276.339996337891
37.1749117,270.670013427734
37.1905367,265.410003662109
37.2061617,260.480010986328
37.2217867,255.190002441406
37.2374117,248.389999389648
37.2530367,239.089996337891
37.2686617,227.160003662109
37.2842867,213.419998168945
37.2999117,199.110000610352
37.3155367,185.279998779297
37.3311617,172.699996948242
37.3467867,162.600006103516
37.3624117,157.149993896484
37.3780367,158.240005493164
37.3936617,166.229995727539
37.4092867,180.679992675781
37.4249117,201.949996948242
37.4405367,231.330001831055
37.4561617,269.390014648438
37.4717867,314.339996337891
37.4874117,327.670013427734
37.5030367,327.670013427734
37.5186617,327.670013427734
37.5342867,327.670013427734
37.5499117,327.670013427734
37.5655367,327.670013427734
37.5811617,327.670013427734
37.5967867,327.670013427734
37.6124117,327.670013427734
37.6280367,327.670013427734
37.6436617,327.670013427734
37.6592867,327.670013427734
37.6749117,327.670013427734
37.6905367,327.670013427734
37.7061617,327.670013427734
37.7217867,327.670013427734
37.7374117,327.670013427734
37.7530367,327.670013427734
37.7686617,327.670013427734
37.7842867,327.670013427734
37.7999117,270.220001220703
37.8155367,45.810001373291
37.8311617,-223.259994506836
37.8467867,-327.679992675781
37.8624117,-327.679992675781
37.8780367,-327.679992675781
37.8936617,-327.679992675781
37.9092867,-327.679992675781
37.9249117,-327.679992675781
37.9405367,-327.679992675781
37.9561617,-327.679992675781
37.9717867,-327.679992675781
37.9874117,-327.679992675781
38.0030367,-327.679992675781
38.0186617,-327.679992675781
38.0342867,-327.679992675781
38.0499117,-327.679992675781
38.0655367,-327.679992675781
38.0811617,-327.679992675781
38.0967867,-327.679992675781
38.1124117,-327.679992675781
38.1280367,-327.679992675781
38.1436617,-327.679992675781
38.1592867,-327.679992675781
38.1749117,-327.679992675781
38.1905367,-327.679992675781
38.2061617,-327.679992675781
38.2217867,-327.679992675781
38.2374117,-327.679992675781
38.2530367,-266.070007324219
38.2686617,-189.850006103516
38.2842867,-119.029998779297
38.2999117,-52.9300003051758
38.3155367,9.31999969482422
38.3311617,68.5599975585938
38.3467867,125.629997253418
38.3624117,181.490005493164
38.3780367,236.889999389648
38.3936617,291.660003662109
38.4092867,327.670013427734
38.4249117,327.670013427734
38.4405367,327.670013427734
38.4561617,327.670013427734
38.4717867,327.670013427734
38.4874117,327.670013427734
38.5030367,327.670013427734
38.5186617,327.670013427734
38.5342867,327.670013427734
38.5499117,327.670013427734
38.5655367,327.670013427734
38.5811617,327.670013427734
38.5967867,327.670013427734
38.6124117,327.670013427734
38.6280367,327.670013427734
38.6436617,327.670013427734
38.6592867,316.75
38.6749117,310.109985351563
38.6905367,309.670013427734
38.7061617,313.269989013672
38.7217867,320.140014648438
38.7374117,327.670013427734
38.7530367,327.670013427734
38.7686617,327.670013427734
38.7842867,327.670013427734
38.7999117,327.670013427734
38.8155367,327.670013427734
38.8311617,327.670013427734
38.8467867,327.670013427734
38.8624117,327.670013427734
38.8780367,327.670013427734
38.8936617,327.670013427734
38.9092867,327.670013427734
38.9249117,327.670013427734
38.9405367,327.670013427734
38.9561617,327.670013427734
38.9717867,327.670013427734
38.9874117,327.670013427734
39.0030367,327.670013427734
39.0186617,327.670013427734
39.0342867,327.670013427734
39.0499117,327.670013427734
39.0655367,327.670013427734
39.0811617,327.670013427734
39.0967867,327.670013427734
39.1124117,327.670013427734
39.1280367,327.670013427734
39.1436617,327.670013427734
39.1592867,327.670013427734
39.1749117,327.670013427734
39.1905367,327.670013427734
39.2061617,327.670013427734
39.2217867,327.670013427734
39.2374117,327.670013427734
39.2530367,327.670013427734
39.2686617,327.670013427734
39.2842867,327.670013427734
39.2999117,327.670013427734
39.3155367,327.670013427734
39.3311617,327.670013427734
39.3467867,327.670013427734
39.3624117,327.670013427734
39.3780367,327.670013427734
39.3936617,327.670013427734
39.4092867,327.670013427734
39.4249117,327.670013427734
39.4405367,327.670013427734
39.4561617,327.670013427734
39.4717867,327.670013427734
39.4874117,327.670013427734
39.5030367,251.070007324219
39.5186617,146.460006713867
39.5342867,55.4900016784668
39.5499117,-25.7600002288818
39.5655367,-103.680000305176
39.5811617,-183.720001220703
39.5967867,-268.029998779297
39.6124117,-327.679992675781
39.6280367,-327.679992675781
39.6436617,-327.679992675781
39.6592867,-327.679992675781
39.6749117,-327.679992675781
39.6905367,-327.679992675781
39.7061617,-327.679992675781
39.7217867,-327.679992675781
39.7374117,-327.679992675781
39.7530367,-327.679992675781
39.7686617,-327.679992675781
39.7842867,-327.679992675781
39.7999117,-327.679992675781
39.8155367,-327.679992675781
39.8311617,-327.679992675781
39.8467867,-327.679992675781
39.8624117,-327.679992675781
39.8780367,-327.679992675781
39.8936617,-327.679992675781
39.9092867,-327.679992675781
39.9249117,-327.679992675781
39.9405367,-327.679992675781
39.9561617,-327.679992675781
39.9717867,-327.679992675781
39.9874117,-327.679992675781
40.0030367,-327.679992675781
40.0186617,-327.679992675781
40.0342867,-327.679992675781
40.0499117,-327.679992675781
40.0655367,-327.679992675781
40.0811617,-327.679992675781
40.0967867,-327.679992675781
40.1124117,-327.679992675781
40.1280367,-327.679992675781
40.1436617,-327.679992675781
40.1592867,-327.679992675781
40.1749117,-327.679992675781
40.1905367,-327.679992675781
40.2061617,-327.679992675781
40.2217867,-327.679992675781
40.2374117,-327.679992675781
40.2530367,-327.679992675781
40.2686617,-327.679992675781
40.2842867,-327.679992675781
40.2999117,-327.679992675781
40.3155367,-327.679992675781
40.3311617,-327.679992675781
40.3467867,-327.679992675781
40.3624117,-327.679992675781
40.3780367,-327.679992675781
40.3936617,-327.679992675781
40.4092867,-327.679992675781
40.4249117,-327.679992675781
40.4405367,-327.679992675781
40.4561617,-327.679992675781
40.4717867,-327.679992675781
40.4874117,-327.679992675781
40.5030367,-327.679992675781
40.5186617,-327.679992675781
40.5342867,-327.679992675781
40.5499117,-327.679992675781
40.5655367,-327.679992675781
40.5811617,-327.679992675781
40.5967867,-327.679992675781
40.6124117,-327.679992675781
40.6280367,-327.679992675781
40.6436617,-327.679992675781
40.6592867,-327.679992675781
40.6749117,-327.679992675781
40.6905367,-327.679992675781
40.7061617,-327.679992675781
40.7217867,-327.679992675781
40.7374117,-327.679992675781
40.7530367,-322.989990234375
40.7686617,-300.529998779297
40.7842867,-276.679992675781
40.7999117,-251.350006103516
40.8155367,-224.889999389648
40.8311617,-197.229995727539
40.8467867,-167.850006103516
40.8624117,-136.520004272461
40.8780367,-103.669998168945
40.8936617,-70.1500015258789
40.9092867,-36.5
40.9249117,-2.55999994277954
40.9405367,32.1800003051758
40.9561617,67.9800033569336
40.9717867,104.529998779297
40.9874117,141.240005493164
41.0030367,177.529998779297
41.0186617,212.929992675781
41.0342867,247.020004272461
41.0499117,279.420013427734
41.0655367,309.920013427734
41.0811617,327.670013427734
41.0967867,327.670013427734
41.1124117,327.670013427734
41.1280367,327.670013427734
41.1436617,327.670013427734
41.1592867,327.670013427734
41.1749117,327.670013427734
41.1905367,327.670013427734
41.2061617,327.670013427734
41.2217867,327.670013427734
41.2374117,327.670013427734
41.2530367,327.670013427734
41.2686617,327.670013427734
41.2842867,327.670013427734
41.2999117,327.670013427734
41.3155367,327.670013427734
41.3311617,327.670013427734
41.3467867,327.670013427734
41.3624117,327.670013427734
41.3780367,327.670013427734
41.3936617,327.670013427734
41.4092867,327.670013427734
41.4249117,327.670013427734
41.4405367,327.670013427734
41.4561617,327.670013427734
41.4717867,327.670013427734
41.4874117,327.670013427734
41.5030367,327.670013427734
41.5186617,327.670013427734
41.5342867,327.670013427734
41.5499117,327.670013427734
41.5655367,327.670013427734
41.5811617,327.670013427734
41.5967867,327.670013427734
41.6124117,327.670013427734
41.6280367,327.670013427734
41.6436617,327.670013427734
41.6592867,327.670013427734
41.6749117,327.670013427734
41.6905367,327.670013427734
41.7061617,327.670013427734
41.7217867,327.670013427734
41.7374117,327.670013427734
41.7530367,327.670013427734
41.7686617,327.670013427734
41.7842867,327.670013427734
41.7999117,327.670013427734
41.8155367,327.670013427734
41.8311617,327.670013427734
41.8467867,327.670013427734
41.8624117,327.670013427734
41.8780367,327.670013427734
41.8936617,327.670013427734
41.9092867,327.670013427734
41.9249117,327.670013427734
41.9405367,327.670013427734
41.9561617,327.670013427734
41.9717867,327.670013427734
41.9874117,327.670013427734
42.0030367,327.670013427734
42.0186617,327.670013427734
42.0342867,327.670013427734
42.0499117,327.670013427734
