Time(s),Value(%)
115.0120582,-3.25
115.0276832,-3.21000003814697
115.0433082,-2.77999997138977
115.0589332,-2.1800000667572
115.0745582,-1.62000000476837
115.0901832,-1.22000002861023
115.1058082,-0.930000007152557
115.1214332,-0.639999985694885
115.1370582,-0.300000011920929
115.1526832,0.0700000002980232
115.1683082,0.5
115.1839332,1.0
115.1995582,1.52999997138977
115.2151832,1.9099999666214
115.2308082,1.85000002384186
115.2464332,1.20000004768372
115.2620582,0.0900000035762787
115.2776832,-1.11000001430511
115.2933082,-2.0699999332428
115.3089332,-2.61999988555908
115.3245582,-2.77999997138977
115.3401832,-2.75
115.3558082,-2.61999988555908
115.3714332,-2.34999990463257
115.3870582,-1.8400000333786
115.4026832,-1.07000005245209
115.4183082,-0.280000001192093
115.4339332,0.0799999982118607
115.4495582,-0.270000010728836
115.4651832,-1.30999994277954
115.4808082,-2.71000003814697
115.4964332,-4.13000011444092
115.5120582,-5.3899998664856
115.5276832,-6.36999988555908
115.5433082,-7.01000022888184
115.5589332,-7.26000022888184
115.5745582,-7.05999994277954
115.5901832,-6.42000007629395
115.6058082,-5.48000001907349
115.6214332,-4.3899998664856
115.6370582,-3.30999994277954
115.6526832,-2.34999990463257
115.6683082,-1.57000005245209
115.6839332,-0.910000026226044
115.6995582,-0.280000001192093
115.7151832,0.379999995231628
115.7308082,1.08000004291534
115.7464332,1.64999997615814
115.7620582,1.94000005722046
115.7776832,1.89999997615814
115.7933082,1.62000000476837
115.8089332,1.27999997138977
115.8245582,1.04999995231628
115.8401832,1.01999998092651
115.8558082,1.16999995708466
115.8714332,1.46000003814697
115.8870582,1.91999995708466
115.9026832,2.61999988555908
115.9183082,3.48000001907349
115.9339332,4.23999977111816
115.9495582,4.6399998664856
115.9651832,4.53999996185303
115.9808082,3.95000004768372
115.9964332,2.97000002861023
116.0120582,1.69000005722046
116.0276832,0.25
116.0433082,-1.12000000476837
116.0589332,-2.17000007629395
116.0745582,-2.6800000667572
116.0901832,-2.64000010490417
116.1058082,-2.21000003814697
116.1214332,-1.6599999666214
116.1370582,-1.13999998569489
116.1526832,-0.689999997615814
116.1683082,-0.280000001192093
116.1839332,0.239999994635582
116.1995582,0.930000007152557
116.2151832,1.67999994754791
116.2308082,2.33999991416931
116.2464332,2.83999991416931
116.2620582,3.11999988555908
116.2776832,3.10999989509583
116.2933082,2.88000011444092
116.3089332,2.54999995231628
116.3245582,2.20000004768372
116.3401832,1.85000002384186
116.3558082,1.54999995231628
116.3714332,1.39999997615814
116.3870582,1.47000002861023
116.4026832,1.73000001907349
116.4183082,1.99000000953674
116.4339332,2.05999994277954
116.4495582,1.89999997615814
116.4651832,1.6599999666214
116.4808082,1.48000001907349
116.4964332,1.37999999523163
116.5120582,1.16999995708466
116.5276832,0.550000011920929
116.5433082,-0.589999973773956
116.5589332,-2.13000011444092
116.5745582,-3.70000004768372
116.5901832,-4.90999984741211
116.6058082,-5.5
116.6214332,-5.48999977111816
116.6370582,-5.03000020980835
116.6526832,-4.30000019073486
116.6683082,-3.5
116.6839332,-2.84999990463257
116.6995582,-2.47000002861023
116.7151832,-2.34999990463257
116.7308082,-2.28999996185303
116.7464332,-2.0699999332428
116.7620582,-1.55999994277954
116.7776832,-0.790000021457672
116.7933082,0.0199999995529652
116.8089332,0.639999985694885
116.8245582,0.910000026226044
116.8401832,0.839999973773956
116.8558082,0.600000023841858
116.8714332,0.400000005960464
116.8870582,0.340000003576279
116.9026832,0.419999986886978
116.9183082,0.639999985694885
116.9339332,0.970000028610229
116.9495582,1.36000001430511
116.9651832,1.72000002861023
116.9808082,1.98000001907349
116.9964332,2.14000010490417
117.0120582,2.27999997138977
117.0276832,2.42000007629395
117.0433082,2.5
117.0589332,2.29999995231628
117.0745582,1.66999995708466
117.0901832,0.579999983310699
117.1058082,-0.740000009536743
117.1214332,-2.02999997138977
117.1370582,-2.99000000953674
117.1526832,-3.5
117.1683082,-3.57999992370605
117.1839332,-3.29999995231628
117.1995582,-2.79999995231628
117.2151832,-2.20000004768372
117.2308082,-1.5900000333786
117.2464332,-1.03999996185303
117.2620582,-0.629999995231628
117.2776832,-0.389999985694885
117.2933082,-0.239999994635582
117.3089332,-0.0299999993294477
117.3245582,0.28999999165535
117.3401832,0.639999985694885
117.3558082,0.850000023841858
117.3714332,0.800000011920929
117.3870582,0.509999990463257
117.4026832,0.129999995231628
117.4183082,-0.150000005960464
117.4339332,-0.330000013113022
117.4495582,-0.540000021457672
117.4651832,-0.939999997615814
117.4808082,-1.58000004291534
117.4964332,-2.48000001907349
117.5120582,-3.80999994277954
117.5276832,-5.6100001335144
117.5433082,-7.71999979019165
117.5589332,-9.75
117.5745582,-11.2299995422363
117.5901832,-11.7799997329712
117.6058082,-11.3599996566772
117.6214332,-10.1499996185303
117.6370582,-8.35999965667725
117.6526832,-6.1100001335144
117.6683082,-3.66000008583069
117.6839332,-1.44000005722046
117.6995582,0.200000002980232
117.7151832,1.13999998569489
117.7308082,1.41999995708466
117.7464332,1.25
117.7620582,1.04999995231628
117.7776832,1.26999998092651
117.7933082,2.07999992370605
117.8089332,3.40000009536743
117.8245582,5.03000020980835
117.8401832,6.73000001907349
117.8558082,8.27999973297119
117.8714332,9.4399995803833
117.8870582,10.0
117.9026832,9.96000003814697
117.9183082,9.48999977111816
117.9339332,8.88000011444092
117.9495582,8.4399995803833
117.9651832,8.40999984741211
117.9808082,8.77999973297119
117.9964332,9.34000015258789
118.0120582,9.81999969482422
118.0276832,10.0299997329712
118.0433082,9.97999954223633
118.0589332,9.80000019073486
118.0745582,9.60000038146973
118.0901832,9.44999980926514
118.1058082,9.30000019073486
118.1214332,9.09000015258789
118.1370582,8.80000019073486
118.1526832,8.5
118.1683082,8.18000030517578
118.1839332,7.69999980926514
118.1995582,6.98000001907349
118.2151832,6.1100001335144
118.2308082,5.3600001335144
118.2464332,4.94999980926514
118.2620582,4.90999984741211
118.2776832,5.03999996185303
118.2933082,5.07000017166138
118.3089332,4.80000019073486
118.3245582,4.17000007629395
118.3401832,3.28999996185303
118.3558082,2.16000008583069
118.3714332,0.75
118.3870582,-0.889999985694885
118.4026832,-2.60999989509583
118.4183082,-4.15999984741211
118.4339332,-5.3600001335144
118.4495582,-6.09999990463257
118.4651832,-6.3899998664856
118.4808082,-6.46000003814697
118.4964332,-6.46999979019165
118.5120582,-6.48999977111816
118.5276832,-6.57999992370605
118.5433082,-6.86999988555908
118.5589332,-7.44999980926514
118.5745582,-8.27999973297119
118.5901832,-9.0600004196167
118.6058082,-9.48999977111816
118.6214332,-9.40999984741211
118.6370582,-8.86999988555908
118.6526832,-8.10999965667725
118.6683082,-7.36999988555908
118.6839332,-6.78999996185303
118.6995582,-6.34999990463257
118.7151832,-6.01999998092651
118.7308082,-5.80999994277954
118.7464332,-5.76000022888184
118.7620582,-5.80999994277954
118.7776832,-5.84999990463257
118.7933082,-5.75
118.8089332,-5.44999980926514
118.8245582,-5.0
118.8401832,-4.46999979019165
118.8558082,-3.99000000953674
118.8714332,-3.70000004768372
118.8870582,-3.70000004768372
118.9026832,-3.99000000953674
118.9183082,-4.51999998092651
118.9339332,-5.30000019073486
118.9495582,-6.30999994277954
118.9651832,-7.51999998092651
118.9808082,-8.88000011444092
118.9964332,-10.4200000762939
119.0120582,-12.0500001907349
119.0276832,-13.5500001907349
119.0433082,-14.5900001525879
119.0589332,-14.8000001907349
119.0745582,-13.9399995803833
119.0901832,-12.0200004577637
119.1058082,-9.34000015258789
119.1214332,-6.3600001335144
119.1370582,-3.54999995231628
119.1526832,-1.22000002861023
119.1683082,0.519999980926514
119.1839332,1.87999999523163
119.1995582,3.22000002861023
119.2151832,4.86999988555908
119.2308082,6.82000017166138
119.2464332,8.77000045776367
119.2620582,10.3199996948242
119.2776832,11.1700000762939
119.2933082,11.3000001907349
119.3089332,10.9399995803833
119.3245582,10.3699998855591
119.3401832,9.78999996185303
119.3558082,9.21000003814697
119.3714332,8.64000034332275
119.3870582,8.13000011444092
119.4026832,7.8600001335144
119.4183082,7.92000007629395
119.4339332,8.31999969482422
119.4495582,9.0
119.4651832,9.93000030517578
119.4808082,11.0699996948242
119.4964332,12.3000001907349
119.5120582,13.3299999237061
119.5276832,13.7600002288818
119.5433082,13.2399997711182
119.5589332,11.6700000762939
119.5745582,9.27000045776367
119.5901832,6.59000015258789
119.6058082,4.30000019073486
119.6214332,2.83999991416931
119.6370582,2.20000004768372
119.6526832,2.0699999332428
119.6683082,2.07999992370605
119.6839332,1.96000003814697
119.6995582,1.62999999523163
119.7151832,1.16999995708466
119.7308082,0.810000002384186
119.7464332,0.680000007152557
119.7620582,0.699999988079071
119.7776832,0.730000019073486
119.7933082,0.779999971389771
119.8089332,0.939999997615814
119.8245582,1.16999995708466
119.8401832,1.26999998092651
119.8558082,1.0900000333786
119.8714332,0.600000023841858
119.8870582,-0.180000007152557
119.9026832,-1.29999995231628
119.9183082,-2.6800000667572
119.9339332,-4.1100001335144
119.9495582,-5.21000003814697
119.9651832,-5.69000005722046
119.9808082,-5.48999977111816
119.9964332,-4.8600001335144
120.0120582,-4.15999984741211
120.0276832,-3.75
120.0433082,-3.77999997138977
120.0589332,-4.05999994277954
120.0745582,-4.26000022888184
120.0901832,-4.17000007629395
120.1058082,-3.90000009536743
120.1214332,-3.86999988555908
120.1370582,-4.44000005722046
120.1526832,-5.69000005722046
120.1683082,-7.26999998092651
120.1839332,-8.61999988555908
120.1995582,-9.30000019073486
120.2151832,-9.22999954223633
120.2308082,-8.64000034332275
120.2464332,-7.69999980926514
120.2620582,-6.53999996185303
120.2776832,-5.32999992370605
120.2933082,-4.21999979019165
120.3089332,-3.20000004768372
120.3245582,-2.09999990463257
120.3401832,-0.819999992847443
120.3558082,0.579999983310699
120.3714332,1.94000005722046
120.3870582,3.02999997138977
120.4026832,3.63000011444092
120.4183082,3.67000007629395
120.4339332,3.21000003814697
120.4495582,2.5
120.4651832,1.83000004291534
120.4808082,1.27999997138977
120.4964332,0.699999988079071
120.5120582,-0.239999994635582
120.5276832,-1.89999997615814
120.5433082,-4.46999979019165
120.5589332,-7.75
120.5745582,-11.2700004577637
120.5901832,-14.4700002670288
120.6058082,-16.8600006103516
120.6214332,-18.1599998474121
120.6370582,-18.4300003051758
120.6526832,-18.2199993133545
120.6683082,-18.3999996185303
120.6839332,-19.7099990844727
120.6995582,-22.2800006866455
120.7151832,-25.5900001525879
120.7308082,-28.6200008392334
120.7464332,-30.2399997711182
120.7620582,-29.75
120.7776832,-27.2299995422363
120.7933082,-23.4500007629395
120.8089332,-19.3199996948242
120.8245582,-15.5799999237061
120.8401832,-12.6800003051758
120.8558082,-10.5900001525879
120.8714332,-8.89999961853027
120.8870582,-7.11999988555908
120.9026832,-4.80999994277954
120.9183082,-1.58000004291534
120.9339332,2.74000000953674
120.9495582,7.8899998664856
120.9651832,13.1099996566772
120.9808082,17.6599998474121
120.9964332,21.1700000762939
121.0120582,23.7800006866455
121.0276832,25.8400001525879
121.0433082,27.5799999237061
121.0589332,29.0400009155273
121.0745582,30.0300006866455
121.0901832,30.3099994659424
121.1058082,29.7900009155273
121.1214332,28.6299991607666
121.1370582,27.2099990844727
121.1526832,25.8199996948242
121.1683082,24.2999992370605
121.1839332,22.2600002288818
121.1995582,19.5400009155273
121.2151832,16.5400009155273
121.2308082,13.9700002670288
121.2464332,12.2399997711182
121.2620582,11.25
121.2776832,10.539999961853
121.2933082,9.73999977111816
121.3089332,8.68000030517578
121.3245582,7.23999977111816
121.3401832,5.3600001335144
121.3558082,3.22000002861023
121.3714332,1.29999995231628
121.3870582,0.109999999403954
121.4026832,-0.180000007152557
121.4183082,0.140000000596046
121.4339332,0.720000028610229
121.4495582,1.33000004291534
121.4651832,2.19000005722046
121.4808082,3.71000003814697
121.4964332,6.17000007629395
121.5120582,9.34000015258789
121.5276832,12.6800003051758
121.5433082,15.6599998474121
121.5589332,18.0300006866455
121.5745582,19.8299999237061
121.5901832,21.4300003051758
121.6058082,23.1499996185303
121.6214332,24.9899997711182
121.6370582,26.7000007629395
121.6526832,28.0499992370605
121.6683082,28.9300003051758
121.6839332,29.3199996948242
121.6995582,29.1800003051758
121.7151832,28.4099998474121
121.7308082,27.0
121.7464332,25.0799999237061
121.7620582,22.9699993133545
121.7776832,21.0900001525879
121.7933082,19.7800006866455
121.8089332,19.0400009155273
121.8245582,18.5100002288818
121.8401832,17.7399997711182
121.8558082,16.4899997711182
121.8714332,14.7200002670288
121.8870582,12.460000038147
121.9026832,9.80000019073486
121.9183082,6.84000015258789
121.9339332,3.86999988555908
121.9495582,1.38999998569489
121.9651832,-0.0799999982118607
121.9808082,-0.400000005960464
121.9964332,0.0900000035762787
122.0120582,0.720000028610229
122.0276832,0.800000011920929
122.0433082,0.0
122.0589332,-1.78999996185303
122.0745582,-4.55000019073486
122.0901832,-7.98999977111816
122.1058082,-11.4200000762939
122.1214332,-14.0600004196167
122.1370582,-15.8400001525879
122.1526832,-17.5799999237061
122.1683082,-20.1000003814697
122.1839332,-23.4699993133545
122.1995582,-27.0699996948242
122.2151832,-30.2399997711182
122.2308082,-32.7999992370605
122.2464332,-34.9900016784668
122.2620582,-37.060001373291
122.2776832,-38.9099998474121
122.2933082,-40.2400016784668
122.3089332,-40.8400001525879
122.3245582,-40.810001373291
122.3401832,-40.5900001525879
122.3558082,-40.7200012207031
122.3714332,-41.3199996948242
122.3870582,-41.9000015258789
122.4026832,-41.8400001525879
122.4183082,-40.9199981689453
122.4339332,-39.3499984741211
122.4495582,-37.6599998474121
122.4651832,-36.4599990844727
122.4808082,-36.1300010681152
122.4964332,-36.6100006103516
122.5120582,-37.3400001525879
122.5276832,-37.4500007629395
122.5433082,-36.0299987792969
122.5589332,-32.2799987792969
122.5745582,-25.8700008392334
122.5901832,-17.2000007629395
122.6058082,-7.53999996185303
122.6214332,1.35000002384186
122.6370582,8.02000045776367
122.6526832,12.0
122.6683082,13.8999996185303
122.6839332,14.960000038147
122.6995582,16.2900009155273
122.7151832,18.4500007629395
122.7308082,21.5699996948242
122.7464332,25.6200008392334
122.7620582,30.2800006866455
122.7776832,34.7299995422363
122.7933082,37.9900016784668
122.8089332,39.4500007629395
122.8245582,39.1800003051758
122.8401832,37.6699981689453
122.8558082,35.5400009155273
122.8714332,33.4000015258789
122.8870582,31.7199993133545
122.9026832,30.7700004577637
122.9183082,30.6599998474121
122.9339332,31.3999996185303
122.9495582,32.8499984741211
122.9651832,34.3300018310547
122.9808082,34.4500007629395
122.9964332,31.7199993133545
123.0120582,25.8899993896484
123.0276832,18.5699996948242
123.0433082,12.210000038147
123.0589332,8.18000030517578
123.0745582,5.78999996185303
123.0901832,3.25999999046326
123.1058082,-0.629999995231628
123.1214332,-6.0
123.1370582,-12.3000001907349
123.1526832,-18.6200008392334
123.1683082,-23.7900009155273
123.1839332,-27.3500003814697
123.1995582,-30.4799995422363
123.2151832,-35.2799987792969
123.2308082,-43.1300010681152
123.2464332,-53.5
123.2620582,-63.9300003051758
123.2776832,-72.120002746582
123.2933082,-78.8199996948242
123.3089332,-88.25
123.3245582,-104.540000915527
123.3401832,-127.019996643066
123.3558082,-149.460006713867
123.3714332,-164.910003662109
123.3870582,-170.990005493164
123.4026832,-170.130004882813
123.4183082,-165.339996337891
123.4339332,-157.369995117188
123.4495582,-145.699996948242
123.4651832,-130.559997558594
123.4808082,-113.459999084473
123.4964332,-96.370002746582
123.5120582,-80.1500015258789
123.5276832,-63.8899993896484
123.5433082,-45.7799987792969
123.5589332,-25.0100002288818
123.5745582,-2.75999999046326
123.5901832,18.5499992370605
123.6058082,37.0200004577637
123.6214332,52.2599983215332
123.6370582,65.129997253418
123.6526832,76.8300018310547
123.6683082,87.9499969482422
123.6839332,98.1800003051758
123.6995582,106.900001525879
123.7151832,113.819999694824
123.7308082,119.319999694824
123.7464332,124.139999389648
123.7620582,128.830001831055
123.7776832,133.289993286133
123.7933082,137.059997558594
123.8089332,139.740005493164
123.8245582,141.220001220703
123.8401832,141.759994506836
123.8558082,141.699996948242
123.8714332,141.179992675781
123.8870582,140.080001831055
123.9026832,138.289993286133
123.9183082,135.940002441406
123.9339332,133.440002441406
123.9495582,131.190002441406
123.9651832,129.210006713867
123.9808082,127.199996948242
123.9964332,124.779998779297
124.0120582,121.839996337891
124.0276832,118.389999389648
124.0433082,114.440002441406
124.0589332,109.879997253418
124.0745582,104.599998474121
124.0901832,98.6399993896484
124.1058082,92.370002746582
124.1214332,86.4800033569336
124.1370582,81.6699981689453
124.1526832,78.0100021362305
124.1683082,74.5500030517578
124.1839332,69.7200012207031
124.1995582,62.4700012207031
124.2151832,52.6500015258789
124.2308082,40.6199989318848
124.2464332,26.8700008392334
124.2620582,12.5
124.2776832,-0.680000007152557
124.2933082,-11.25
124.3089332,-19.3999996185303
124.3245582,-26.6299991607666
124.3401832,-34.1199989318848
124.3558082,-41.6100006103516
124.3714332,-47.9099998474121
124.3870582,-52.3899993896484
124.4026832,-55.6199989318848
124.4183082,-58.8499984741211
124.4339332,-63.1199989318848
124.4495582,-68.620002746582
124.4651832,-74.5800018310547
124.4808082,-79.9400024414063
124.4964332,-84.129997253418
124.5120582,-87.25
124.5276832,-89.6900024414063
124.5433082,-91.7799987792969
124.5589332,-93.5699996948242
124.5745582,-95.0800018310547
124.5901832,-96.5599975585938
124.6058082,-98.4199981689453
124.6214332,-100.769996643066
124.6370582,-103.269996643066
124.6526832,-105.470001220703
124.6683082,-106.940002441406
124.6839332,-107.190002441406
124.6995582,-105.629997253418
124.7151832,-102.160003662109
124.7308082,-97.9199981689453
124.7464332,-95.4899978637695
124.7620582,-98.4199981689453
124.7776832,-108.669998168945
124.7933082,-123.550003051758
124.8089332,-137.259994506836
124.8245582,-146.089996337891
124.8401832,-150.619995117188
124.8558082,-153.809997558594
124.8714332,-157.979995727539
124.8870582,-162.910003662109
124.9026832,-166.289993286133
124.9183082,-166.020004272461
124.9339332,-162.070007324219
124.9495582,-156.240005493164
124.9651832,-149.75
124.9808082,-141.470001220703
124.9964332,-128.919998168945
125.0120582,-110.699996948242
125.0276832,-88.3300018310547
125.0433082,-65.8899993896484
125.0589332,-47.3400001525879
125.0745582,-33.9500007629395
125.0901832,-24.4599990844727
125.1058082,-16.6800003051758
125.1214332,-8.76000022888184
125.1370582,0.400000005960464
125.1526832,11.6000003814697
125.1683082,26.0499992370605
125.1839332,45.5499992370605
125.1995582,71.9199981689453
125.2151832,105.949996948242
125.2308082,146.029998779297
125.2464332,187.320007324219
125.2620582,222.75
125.2776832,246.240005493164
125.2933082,255.509994506836
125.3089332,252.699996948242
125.3245582,242.600006103516
125.3401832,230.039993286133
125.3558082,218.050003051758
125.3714332,207.690002441406
125.3870582,198.789993286133
125.4026832,190.699996948242
125.4183082,182.699996948242
125.4339332,174.289993286133
125.4495582,165.289993286133
125.4651832,155.679992675781
125.4808082,145.309997558594
125.4964332,133.940002441406
125.5120582,121.550003051758
125.5276832,108.73999786377
125.5433082,96.3600006103516
125.5589332,84.870002746582
125.5745582,74.1600036621094
125.5901832,63.8899993896484
125.6058082,53.6399993896484
125.6214332,43.0699996948242
125.6370582,32.2799987792969
125.6526832,21.7700004577637
125.6683082,12.1800003051758
125.6839332,3.94000005722046
125.6995582,-2.82999992370605
125.7151832,-8.38000011444092
125.7308082,-13.1400003433228
125.7464332,-17.5
125.7620582,-21.6499996185303
125.7776832,-25.5300006866455
125.7933082,-29.0
