Time(s),Value(%)
581.0083602,-25.6499996185303
581.0239852,-9.84000015258789
581.0396102,4.96000003814697
581.0552352,18.4200000762939
581.0708602,30.2600002288818
581.0864852,40.25
581.1021102,48.2299995422363
581.1177352,54.0900001525879
581.1333602,57.6500015258789
581.1489852,58.7900009155273
581.1646102,57.6599998474121
581.1802352,54.7700004577637
581.1958602,50.810001373291
581.2114852,46.439998626709
581.2271102,42.189998626709
581.2427352,38.3800010681152
581.2583602,35.0800018310547
581.2739852,32.2200012207031
581.2896102,29.6200008392334
581.3052352,27.0699996948242
581.3208602,24.3999996185303
581.3364852,21.5300006866455
581.3521102,18.4799995422363
581.3677352,15.4099998474121
581.3833602,12.5299997329712
581.3989852,9.97999954223633
581.4146102,7.76000022888184
581.4302352,5.8600001335144
581.4458602,4.23000001907349
581.4614852,2.82999992370605
581.4771102,1.67999994754791
581.4927352,1.0
581.5083602,1.05999994277954
581.5239852,1.82000005245209
581.5396102,3.0
581.5552352,4.21000003814697
581.5708602,5.19000005722046
581.5864852,5.84000015258789
581.6021102,6.19999980926514
581.6177352,6.32999992370605
581.6333602,6.3600001335144
581.6489852,6.46999979019165
581.6646102,6.78000020980835
581.6802352,7.5
581.6958602,9.06999969482422
581.7114852,12.1800003051758
581.7271102,17.4400005340576
581.7427352,24.9300003051758
581.7583602,34.1199989318848
581.7739852,43.9799995422363
581.7896102,53.4500007629395
581.8052352,61.75
581.8208602,68.5400009155273
581.8364852,73.6999969482422
581.8521102,77.0100021362305
581.8677352,78.1800003051758
581.8833602,77.2200012207031
581.8989852,74.5100021362305
581.9146102,70.4400024414063
581.9302352,65.2099990844727
581.9458602,58.8499984741211
581.9614852,51.3899993896484
581.9771102,43.0099983215332
581.9927352,34.1599998474121
582.0083602,25.4200000762939
582.0239852,17.2299995422363
582.0396102,9.78999996185303
582.0552352,3.14000010490417
582.0708602,-2.82999992370605
582.0864852,-8.39999961853027
582.1021102,-13.8699998855591
582.1177352,-19.4200000762939
582.1333602,-25.0400009155273
582.1489852,-30.5599994659424
582.1646102,-35.8600006103516
582.1802352,-40.8199996948242
582.1958602,-45.2799987792969
582.2114852,-49.1100006103516
582.2271102,-52.4099998474121
582.2427352,-55.3800010681152
582.2583602,-57.9799995422363
582.2739852,-59.9799995422363
582.2896102,-61.1399993896484
582.3052352,-61.439998626709
582.3208602,-61.0900001525879
582.3364852,-60.2999992370605
582.3521102,-59.0299987792969
582.3677352,-57.0400009155273
582.3833602,-54.2999992370605
582.3989852,-51.1800003051758
582.4146102,-48.1199989318848
582.4302352,-45.3199996948242
582.4458602,-42.6500015258789
582.4614852,-39.8600006103516
582.4771102,-36.689998626709
582.4927352,-32.9099998474121
582.5083602,-28.2700004577637
582.5239852,-22.3799991607666
582.5396102,-14.8400001525879
582.5552352,-5.55000019073486
582.5708602,5.09000015258789
582.5864852,16.2800006866455
582.6021102,27.1000003814697
582.6177352,36.9099998474121
582.6333602,45.6100006103516
582.6489852,53.1800003051758
582.6646102,59.3400001525879
582.6802352,63.5099983215332
582.6958602,65.2200012207031
582.7114852,64.379997253418
582.7271102,61.2799987792969
582.7427352,56.4700012207031
582.7583602,50.4900016784668
582.7739852,43.8499984741211
582.7896102,37.0099983215332
582.8052352,30.3899993896484
582.8208602,24.2900009155273
582.8364852,18.7299995422363
582.8521102,13.5600004196167
582.8677352,8.52999973297119
582.8833602,3.42000007629395
582.8989852,-1.74000000953674
582.9146102,-6.80000019073486
582.9302352,-11.5900001525879
582.9458602,-16.0300006866455
582.9614852,-20.0499992370605
582.9771102,-23.6200008392334
582.9927352,-26.7299995422363
583.0083602,-29.4799995422363
583.0239852,-31.9099998474121
583.0396102,-33.9500007629395
583.0552352,-35.439998626709
583.0708602,-36.2299995422363
583.0864852,-36.2700004577637
583.1021102,-35.7200012207031
583.1177352,-34.9099998474121
583.1333602,-34.1599998474121
583.1489852,-33.560001373291
583.1646102,-32.9099998474121
583.1802352,-31.8799991607666
583.1958602,-30.2600002288818
583.2114852,-28.1000003814697
583.2271102,-25.6900005340576
583.2427352,-23.3099994659424
583.2583602,-20.9799995422363
583.2739852,-18.2900009155273
583.2896102,-14.4899997711182
583.3052352,-8.92000007629395
583.3208602,-1.41999995708466
583.3364852,7.46999979019165
583.3521102,16.6100006103516
583.3677352,24.8099994659424
583.3833602,31.5
583.3989852,36.8300018310547
583.4146102,41.2200012207031
583.4302352,44.810001373291
583.4458602,47.4300003051758
583.4614852,48.7099990844727
583.4771102,48.310001373291
583.4927352,46.1199989318848
583.5083602,42.3800010681152
583.5239852,37.6399993896484
583.5396102,32.6199989318848
583.5552352,27.9200000762939
583.5708602,23.8099994659424
583.5864852,20.2199993133545
583.6021102,16.7999992370605
583.6177352,13.0900001525879
583.6333602,8.72000026702881
583.6489852,3.75999999046326
583.6646102,-1.35000002384186
583.6802352,-6.09000015258789
583.6958602,-10.1700000762939
583.7114852,-13.5900001525879
583.7271102,-16.5100002288818
583.7427352,-19.1299991607666
583.7583602,-21.5900001525879
583.7739852,-23.8899993896484
583.7896102,-25.9400005340576
583.8052352,-27.5699996948242
583.8208602,-28.5599994659424
583.8364852,-28.8299999237061
583.8521102,-28.4899997711182
583.8677352,-27.8199996948242
583.8833602,-27.2099990844727
583.8989852,-27.0400009155273
583.9146102,-27.5900001525879
583.9302352,-28.8299999237061
583.9458602,-30.4099998474121
583.9614852,-31.8199996948242
583.9771102,-32.7000007629395
583.9927352,-33.0
584.0083602,-32.7200012207031
584.0239852,-31.5799999237061
584.0396102,-29.1200008392334
584.0552352,-25.0200004577637
584.0708602,-19.25
584.0864852,-12.0600004196167
584.1021102,-3.94000005722046
584.1177352,4.48000001907349
584.1333602,12.8100004196167
584.1489852,20.7199993133545
584.1646102,27.8299999237061
584.1802352,33.689998626709
584.1958602,37.9000015258789
584.2114852,40.2999992370605
584.2271102,40.9599990844727
584.2427352,40.060001373291
584.2583602,37.7700004577637
584.2739852,34.2900009155273
584.2896102,29.9099998474121
584.3052352,24.9899997711182
584.3208602,19.8199996948242
584.3364852,14.6000003814697
584.3521102,9.4399995803833
584.3677352,4.30000019073486
584.3833602,-0.930000007152557
584.3989852,-6.23000001907349
584.4146102,-11.289999961853
584.4302352,-15.710000038147
584.4458602,-19.1599998474121
584.4614852,-21.5
584.4771102,-22.9500007629395
584.4927352,-24.0499992370605
584.5083602,-25.3400001525879
584.5239852,-26.9300003051758
584.5396102,-28.4899997711182
584.5552352,-29.6100006103516
584.5708602,-30.0400009155273
584.5864852,-29.7099990844727
584.6021102,-28.7299995422363
584.6177352,-27.3299999237061
584.6333602,-25.9500007629395
584.6489852,-24.8700008392334
584.6646102,-23.8700008392334
584.6802352,-22.3700008392334
584.6958602,-19.8600006103516
584.7114852,-16.1499996185303
584.7271102,-11.3800001144409
584.7427352,-5.92000007629395
584.7583602,-0.0299999993294477
584.7739852,6.26999998092651
584.7896102,13.2700004577637
584.8052352,21.3600006103516
584.8208602,30.8299999237061
584.8364852,41.5200004577637
584.8521102,52.8800010681152
584.8677352,64.1900024414063
584.8833602,75.0
584.8989852,85.0699996948242
584.9146102,94.0800018310547
584.9302352,101.620002746582
584.9458602,107.5
584.9614852,111.730003356934
584.9771102,114.410003662109
584.9927352,115.589996337891
585.0083602,115.190002441406
585.0239852,112.940002441406
585.0396102,108.639999389648
585.0552352,102.25
585.0708602,94.0199966430664
585.0864852,84.3899993896484
585.1021102,74.0
585.1177352,63.5499992370605
585.1333602,53.6100006103516
585.1489852,44.4000015258789
585.1646102,35.8499984741211
585.1802352,27.6599998474121
585.1958602,19.4699993133545
585.2114852,11.1099996566772
585.2271102,2.70000004768372
585.2427352,-5.44000005722046
585.2583602,-13.0799999237061
585.2739852,-20.1000003814697
585.2896102,-26.5599994659424
585.3052352,-32.5499992370605
585.3208602,-38.0400009155273
585.3364852,-42.8199996948242
585.3521102,-46.6800003051758
585.3677352,-49.6500015258789
585.3833602,-52.0999984741211
585.3989852,-54.5
585.4146102,-57.0699996948242
585.4302352,-59.6699981689453
585.4458602,-61.7299995422363
585.4614852,-62.5900001525879
585.4771102,-61.9500007629395
585.4927352,-60.3199996948242
585.5083602,-58.9199981689453
585.5239852,-58.8800010681152
585.5396102,-60.25
585.5552352,-61.5
585.5708602,-60.4300003051758
585.5864852,-55.7999992370605
585.6021102,-48.1800003051758
585.6177352,-39.6199989318848
585.6333602,-32.5999984741211
585.6489852,-28.5900001525879
585.6646102,-27.0
585.6802352,-25.8299999237061
585.6958602,-23.3600006103516
585.7114852,-19.1700000762939
585.7271102,-14.0299997329712
585.7427352,-9.38000011444092
585.7583602,-6.59000015258789
585.7739852,-6.28999996185303
585.7896102,-8.11999988555908
585.8052352,-11.1800003051758
585.8208602,-14.5600004196167
585.8364852,-17.8700008392334
585.8521102,-21.2199993133545
585.8677352,-24.9500007629395
585.8833602,-29.1299991607666
585.8989852,-33.3899993896484
585.9146102,-37.0699996948242
585.9302352,-39.7200012207031
585.9458602,-41.3800010681152
585.9614852,-42.5400009155273
585.9771102,-43.8699989318848
585.9927352,-45.8899993896484
586.0083602,-48.560001373291
586.0239852,-51.2700004577637
586.0396102,-53.189998626709
586.0552352,-53.8600006103516
586.0708602,-53.4500007629395
586.0864852,-52.5
586.1021102,-51.6199989318848
586.1177352,-51.1599998474121
586.1333602,-51.0900001525879
586.1489852,-51.0099983215332
586.1646102,-50.4700012207031
586.1802352,-49.3199996948242
586.1958602,-47.7299995422363
586.2114852,-45.8800010681152
586.2271102,-43.6500015258789
586.2427352,-40.5200004577637
586.2583602,-35.7299995422363
586.2739852,-28.6399993896484
586.2896102,-19.25
586.3052352,-8.35000038146973
586.3208602,2.80999994277954
586.3364852,13.0299997329712
586.3521102,21.4099998474121
586.3677352,27.5200004577637
586.3833602,31.4799995422363
586.3989852,33.8699989318848
586.4146102,34.75
586.4302352,33.2000007629395
586.4458602,28.8199996948242
586.4614852,22.75
586.4771102,16.6299991607666
586.4927352,11.3199996948242
586.5083602,6.80000019073486
586.5239852,2.86999988555908
586.5396102,-0.479999989271164
586.5552352,-3.22000002861023
586.5708602,-5.3899998664856
586.5864852,-7.09000015258789
586.6021102,-8.28999996185303
586.6177352,-8.90999984741211
586.6333602,-8.89999961853027
586.6489852,-8.36999988555908
586.6646102,-7.6100001335144
586.6802352,-6.90999984741211
586.6958602,-6.26000022888184
586.7114852,-5.53999996185303
586.7271102,-4.73999977111816
586.7427352,-4.0
586.7583602,-3.25
586.7739852,-2.15000009536743
586.7896102,-0.730000019073486
586.8052352,-0.360000014305115
586.8208602,-2.54999995231628
586.8364852,-6.17000007629395
586.8521102,-7.67000007629395
586.8677352,-4.09999990463257
586.8833602,5.01999998092651
586.8989852,17.6800003051758
586.9146102,30.25
586.9302352,39.3400001525879
586.9458602,43.2200012207031
586.9614852,42.2700004577637
586.9771102,38.4700012207031
586.9927352,34.5200004577637
587.0083602,32.7900009155273
587.0239852,34.439998626709
587.0396102,39.060001373291
587.0552352,45.2099990844727
587.0708602,51.2299995422363
587.0864852,55.9300003051758
587.1021102,58.9199981689453
587.1177352,60.5699996948242
587.1333602,61.5900001525879
587.1489852,62.3199996948242
587.1646102,62.3800010681152
587.1802352,60.7799987792969
587.1958602,56.6199989318848
587.2114852,49.6800003051758
587.2271102,40.6399993896484
587.2427352,30.7800006866455
587.2583602,21.3099994659424
587.2739852,12.8599996566772
587.2896102,5.6399998664856
587.3052352,-0.159999996423721
587.3208602,-4.30000019073486
587.3364852,-6.61999988555908
587.3521102,-7.32999992370605
587.3677352,-6.94999980926514
587.3833602,-5.98999977111816
587.3989852,-4.73000001907349
587.4146102,-3.29999995231628
587.4302352,-1.66999995708466
587.4458602,0.419999986886978
587.4614852,3.25999999046326
587.4771102,6.80999994277954
587.4927352,10.6999998092651
587.5083602,14.4700002670288
587.5239852,17.7199993133545
587.5396102,20.3700008392334
587.5552352,22.6200008392334
587.5708602,24.8400001525879
587.5864852,27.2000007629395
587.6021102,29.6599998474121
587.6177352,32.189998626709
587.6333602,34.7599983215332
587.6489852,37.2000007629395
587.6646102,39.1699981689453
587.6802352,40.5200004577637
587.6958602,41.6199989318848
587.7114852,43.2599983215332
587.7271102,46.1800003051758
587.7427352,50.7099990844727
587.7583602,56.7999992370605
587.7739852,64.2399978637695
587.7896102,72.5899963378906
587.8052352,80.9700012207031
587.8208602,88.25
587.8364852,93.5100021362305
587.8521102,96.3499984741211
587.8677352,96.9400024414063
587.8833602,95.6600036621094
587.8989852,92.8099975585938
587.9146102,88.4400024414063
587.9302352,82.3499984741211
587.9458602,74.3300018310547
587.9614852,64.5199966430664
587.9771102,53.5499992370605
587.9927352,42.1800003051758
588.0083602,31.0100002288818
588.0239852,20.3099994659424
588.0396102,10.0900001525879
588.0552352,0.170000001788139
588.0708602,-9.5600004196167
588.0864852,-19.0599994659424
588.1021102,-28.1499996185303
588.1177352,-36.6399993896484
588.1333602,-44.5200004577637
588.1489852,-51.9500007629395
588.1646102,-59.2900009155273
588.1802352,-66.6600036621094
588.1958602,-73.7300033569336
588.2114852,-80.0199966430664
588.2271102,-85.25
588.2427352,-89.4300003051758
588.2583602,-92.7600021362305
588.2739852,-95.5199966430664
588.2896102,-97.870002746582
588.3052352,-99.8000030517578
588.3208602,-101.209999084473
588.3364852,-101.98999786377
588.3521102,-102.059997558594
588.3677352,-101.440002441406
588.3833602,-100.309997558594
588.3989852,-98.8000030517578
588.4146102,-96.870002746582
588.4302352,-94.2399978637695
588.4458602,-90.629997253418
588.4614852,-85.8499984741211
588.4771102,-79.8000030517578
588.4927352,-72.5100021362305
588.5083602,-64.1399993896484
588.5239852,-54.9500007629395
588.5396102,-45.1699981689453
588.5552352,-35.0
588.5708602,-24.8400001525879
588.5864852,-15.1700000762939
588.6021102,-6.42999982833862
588.6177352,1.17999994754791
588.6333602,7.59000015258789
588.6489852,12.6199998855591
588.6646102,15.9700002670288
588.6802352,17.4699993133545
588.6958602,17.1700000762939
588.7114852,15.3000001907349
588.7271102,12.25
588.7427352,8.55000019073486
588.7583602,4.67000007629395
588.7739852,0.819999992847443
588.7896102,-3.03999996185303
588.8052352,-7.05000019073486
588.8208602,-11.1700000762939
588.8364852,-15.2200002670288
588.8521102,-18.8999996185303
588.8677352,-21.9899997711182
588.8833602,-24.4099998474121
588.8989852,-26.2399997711182
588.9146102,-27.4599990844727
588.9302352,-27.9599990844727
588.9458602,-27.8999996185303
588.9614852,-27.7299995422363
588.9771102,-27.8099994659424
588.9927352,-28.1000003814697
589.0083602,-28.2600002288818
589.0239852,-27.9099998474121
589.0396102,-26.8799991607666
589.0552352,-25.2800006866455
589.0708602,-23.3500003814697
589.0864852,-21.25
589.1021102,-19.0100002288818
589.1177352,-16.5900001525879
589.1333602,-14.0200004577637
589.1489852,-11.3999996185303
589.1646102,-8.85000038146973
589.1802352,-6.46000003814697
589.1958602,-4.23999977111816
589.2114852,-1.91999995708466
589.2271102,1.1599999666214
589.2427352,5.6399998664856
589.2583602,11.7200002670288
589.2739852,18.9899997711182
589.2896102,26.7900009155273
589.3052352,34.5499992370605
589.3208602,42.0299987792969
589.3364852,49.1300010681152
589.3521102,55.7000007629395
589.3677352,61.5400009155273
589.3833602,66.4700012207031
589.3989852,70.3399963378906
589.4146102,72.9499969482422
589.4302352,74.0599975585938
589.4458602,73.5500030517578
589.4614852,71.4800033569336
589.4771102,68.0599975585938
589.4927352,63.5900001525879
589.5083602,58.4900016784668
589.5239852,53.1599998474121
589.5396102,47.8499984741211
589.5552352,42.5299987792969
589.5708602,37.1100006103516
589.5864852,31.5300006866455
589.6021102,25.8199996948242
589.6177352,20.2000007629395
589.6333602,14.9399995803833
589.6489852,10.210000038147
589.6646102,5.98000001907349
589.6802352,2.0
589.6958602,-1.94000005722046
589.7114852,-5.82999992370605
589.7271102,-9.43000030517578
589.7427352,-12.4200000762939
589.7583602,-14.6499996185303
589.7739852,-16.1800003051758
589.7896102,-17.2099990844727
589.8052352,-17.9799995422363
589.8208602,-18.6800003051758
589.8364852,-19.3700008392334
589.8521102,-20.0
589.8677352,-20.4300003051758
589.8833602,-20.4899997711182
589.8989852,-20.0599994659424
589.9146102,-19.1499996185303
589.9302352,-17.7999992370605
589.9458602,-15.8000001907349
589.9614852,-12.6499996185303
589.9771102,-8.01000022888184
589.9927352,-2.03999996185303
590.0083602,4.65999984741211
590.0239852,11.3500003814697
590.0396102,17.5100002288818
590.0552352,23.0200004577637
590.0708602,28.0200004577637
590.0864852,32.5900001525879
590.1021102,36.6800003051758
590.1177352,40.0699996948242
590.1333602,42.439998626709
590.1489852,43.439998626709
590.1646102,42.9599990844727
590.1802352,41.1699981689453
590.1958602,38.4500007629395
590.2114852,35.2599983215332
590.2271102,31.9400005340576
590.2427352,28.6499996185303
590.2583602,25.2999992370605
590.2739852,21.6499996185303
590.2896102,17.5799999237061
590.3052352,13.1700000762939
590.3208602,8.65999984741211
590.3364852,4.23000001907349
590.3521102,-0.100000001490116
590.3677352,-4.42999982833862
590.3833602,-8.77999973297119
590.3989852,-13.0699996948242
590.4146102,-17.2000007629395
590.4302352,-21.1399993896484
590.4458602,-24.8700008392334
590.4614852,-28.3500003814697
590.4771102,-31.4899997711182
590.4927352,-34.2599983215332
590.5083602,-36.5800018310547
590.5239852,-38.4000015258789
590.5396102,-39.9500007629395
590.5552352,-41.8400001525879
590.5708602,-44.6599998474121
590.5864852,-48.4700012207031
590.6021102,-52.6800003051758
590.6177352,-56.3699989318848
590.6333602,-58.7700004577637
590.6489852,-59.4700012207031
590.6646102,-58.4099998474121
590.6802352,-55.5299987792969
590.6958602,-50.6500015258789
590.7114852,-43.7000007629395
590.7271102,-34.9099998474121
590.7427352,-24.8899993896484
590.7583602,-14.4499998092651
590.7739852,-4.3899998664856
590.7896102,4.63000011444092
590.8052352,12.3100004196167
590.8208602,18.5799999237061
590.8364852,23.4500007629395
590.8521102,26.6499996185303
590.8677352,27.5
590.8833602,25.1700000762939
590.8989852,19.2999992370605
590.9146102,10.3299999237061
590.9302352,-0.680000007152557
590.9458602,-12.4899997711182
590.9614852,-23.8400001525879
590.9771102,-33.4099998474121
590.9927352,-39.7799987792969
591.0083602,-41.9799995422363
591.0239852,-40.2799987792969
591.0396102,-36.3499984741211
591.0552352,-32.3899993896484
591.0708602,-29.6399993896484
591.0864852,-27.3500003814697
591.1021102,-23.7199993133545
591.1177352,-17.7399997711182
591.1333602,-9.92000007629395
591.1489852,-1.24000000953674
591.1646102,7.65000009536743
591.1802352,15.75
591.1958602,20.7099990844727
591.2114852,18.6700000762939
591.2271102,4.40000009536743
591.2427352,-25.2399997711182
591.2583602,-65.2799987792969
591.2739852,-102.089996337891
591.2896102,-121.199996948242
591.3052352,-114.980003356934
591.3208602,-85.5100021362305
591.3364852,-43.2000007629395
591.3521102,-2.67000007629395
591.3677352,22.4599990844727
591.3833602,24.8199996948242
591.3989852,6.59000015258789
591.4146102,-21.4699993133545
591.4302352,-45.689998626709
591.4458602,-56.1300010681152
591.4614852,-50.2900009155273
591.4771102,-32.0499992370605
591.4927352,-8.0600004196167
591.5083602,15.5799999237061
591.5239852,35.3300018310547
591.5396102,50.5
591.5552352,62.2299995422363
591.5708602,71.9199981689453
591.5864852,80.2799987792969
591.6021102,87.4199981689453
591.6177352,93.2300033569336
591.6333602,97.629997253418
591.6489852,100.690002441406
591.6646102,102.559997558594
591.6802352,103.440002441406
591.6958602,103.51000213623
591.7114852,102.790000915527
591.7271102,101.059997558594
591.7427352,97.9899978637695
591.7583602,93.3600006103516
591.7739852,87.2099990844727
591.7896102,79.8199996948242
