Time(s),Value(%)
1087.0137919,-2.65000009536743
1087.0294169,-7.82999992370605
1087.0450419,-12.3500003814697
1087.0606669,-16.3700008392334
1087.0762919,-19.5499992370605
1087.0919169,-21.4899997711182
1087.1075419,-22.0100002288818
1087.1231669,-21.2900009155273
1087.1387919,-19.8999996185303
1087.1544169,-18.7700004577637
1087.1700419,-18.5400009155273
1087.1856669,-19.0699996948242
1087.2012919,-19.7299995422363
1087.2169169,-20.2800006866455
1087.2325419,-21.0499992370605
1087.2481669,-22.5300006866455
1087.2637919,-24.7999992370605
1087.2794169,-27.25
1087.2950419,-29.0699996948242
1087.3106669,-29.8600006103516
1087.3262919,-29.8700008392334
1087.3419169,-29.7299995422363
1087.3575419,-30.1000003814697
1087.3731669,-31.0900001525879
1087.3887919,-32.1199989318848
1087.4044169,-32.2200012207031
1087.4200419,-30.2299995422363
1087.4356669,-24.8600006103516
1087.4512919,-14.8800001144409
1087.4669169,0.159999996423721
1087.4825419,19.1700000762939
1087.4981669,39.3800010681152
1087.5137919,57.2799987792969
1087.5294169,69.9700012207031
1087.5450419,76.2300033569336
1087.5606669,76.6900024414063
1087.5762919,73.1600036621094
1087.5919169,67.4300003051758
1087.6075419,60.7400016784668
1087.6231669,53.7400016784668
1087.6387919,46.7700004577637
1087.6544169,40.0999984741211
1087.6700419,33.9300003051758
1087.6856669,28.2600002288818
1087.7012919,23.0100002288818
1087.7169169,18.4699993133545
1087.7325419,15.1800003051758
1087.7481669,13.3599996566772
1087.7637919,12.5900001525879
1087.7794169,11.9399995803833
1087.7950419,10.5100002288818
1087.8106669,7.67999982833862
1087.8262919,3.35999989509583
1087.8419169,-2.13000011444092
1087.8575419,-8.22999954223633
1087.8731669,-14.3100004196167
1087.8887919,-19.8199996948242
1087.9044169,-24.5900001525879
1087.9200419,-28.8500003814697
1087.9356669,-32.7999992370605
1087.9512919,-36.4700012207031
1087.9669169,-39.8600006103516
1087.9825419,-43.0
1087.9981669,-45.6399993896484
1088.0137919,-47.2400016784668
1088.0294169,-47.4300003051758
1088.0450419,-46.4500007629395
1088.0606669,-44.8300018310547
1088.0762919,-43.0200004577637
1088.0919169,-41.25
1088.1075419,-39.5999984741211
1088.1231669,-38.0900001525879
1088.1387919,-36.4900016784668
1088.1544169,-33.9799995422363
1088.1700419,-29.1200008392334
1088.1856669,-20.2700004577637
1088.2012919,-6.55000019073486
1088.2169169,11.0900001525879
1088.2325419,29.6399993896484
1088.2481669,45.2099990844727
1088.2637919,55.0999984741211
1088.2794169,58.9599990844727
1088.2950419,58.1399993896484
1088.3106669,54.4000015258789
1088.3262919,49.0200004577637
1088.3419169,42.7999992370605
1088.3575419,36.2400016784668
1088.3731669,29.5699996948242
1088.3887919,22.5100002288818
1088.4044169,14.4899997711182
1088.4200419,5.28999996185303
1088.4356669,-4.19999980926514
1088.4512919,-12.3000001907349
1088.4669169,-17.6000003814697
1088.4825419,-19.8600006103516
1088.4981669,-20.1000003814697
1088.5137919,-19.7299995422363
1088.5294169,-19.5599994659424
1088.5450419,-19.3400001525879
1088.5606669,-18.5300006866455
1088.5762919,-17.3299999237061
1088.5919169,-16.7299995422363
1088.6075419,-17.3899993896484
1088.6231669,-18.9899997711182
1088.6387919,-20.6499996185303
1088.6544169,-21.6900005340576
1088.6700419,-21.9200000762939
1088.6856669,-21.5900001525879
1088.7012919,-21.2099990844727
1088.7169169,-21.2099990844727
1088.7325419,-21.5900001525879
1088.7481669,-22.0100002288818
1088.7637919,-22.0400009155273
1088.7794169,-21.3799991607666
1088.7950419,-20.1000003814697
1088.8106669,-18.5499992370605
1088.8262919,-17.0400009155273
1088.8419169,-15.7299995422363
1088.8575419,-14.7200002670288
1088.8731669,-14.0100002288818
1088.8887919,-12.9200000762939
1088.9044169,-9.72000026702881
1088.9200419,-2.25
1088.9356669,10.6300001144409
1088.9512919,27.9300003051758
1088.9669169,46.3899993896484
1088.9825419,62.0
1088.9981669,72.0199966430664
1089.0137919,76.0400009155273
1089.0294169,75.4599990844727
1089.0450419,72.2099990844727
1089.0606669,67.8000030517578
1089.0762919,62.9300003051758
1089.0919169,57.8199996948242
1089.1075419,52.6399993896484
1089.1231669,47.3400001525879
1089.1387919,41.3400001525879
1089.1544169,33.7599983215332
1089.1700419,24.5200004577637
1089.1856669,14.8400001525879
1089.2012919,6.57000017166138
1089.2169169,0.839999973773956
1089.2325419,-2.6800000667572
1089.2481669,-5.15999984741211
1089.2637919,-7.48000001907349
1089.2794169,-9.69999980926514
1089.2950419,-11.5200004577637
1089.3106669,-12.789999961853
1089.3262919,-13.8500003814697
1089.3419169,-15.3599996566772
1089.3575419,-17.8400001525879
1089.3731669,-21.2999992370605
1089.3887919,-25.3400001525879
1089.4044169,-29.3500003814697
1089.4200419,-32.6500015258789
1089.4356669,-34.5999984741211
1089.4512919,-34.8499984741211
1089.4669169,-33.5999984741211
1089.4825419,-31.3700008392334
1089.4981669,-28.7900009155273
1089.5137919,-26.6499996185303
1089.5294169,-25.6299991607666
1089.5450419,-25.6599998474121
1089.5606669,-25.7800006866455
1089.5762919,-24.8099994659424
1089.5919169,-22.25
1089.6075419,-18.6200008392334
1089.6231669,-15.039999961853
1089.6387919,-11.960000038147
1089.6544169,-8.25
1089.6700419,-1.62000000476837
1089.6856669,9.51000022888184
1089.7012919,24.5400009155273
1089.7169169,40.7599983215332
1089.7325419,54.6800003051758
1089.7481669,63.7299995422363
1089.7637919,67.2099990844727
1089.7794169,66.1500015258789
1089.7950419,62.439998626709
1089.8106669,57.8600006103516
1089.8262919,53.3600006103516
1089.8419169,48.6100006103516
1089.8575419,42.689998626709
1089.8731669,34.9700012207031
1089.8887919,25.4799995422363
1089.9044169,14.7799997329712
1089.9200419,3.75999999046326
1089.9356669,-6.42000007629395
1089.9512919,-14.5
1089.9669169,-19.6299991607666
1089.9825419,-21.7900009155273
1089.9981669,-21.7999992370605
1090.0137919,-20.8199996948242
1090.0294169,-19.9200000762939
1090.0450419,-19.7600002288818
1090.0606669,-20.4400005340576
1090.0762919,-21.4300003051758
1090.0919169,-21.7600002288818
1090.1075419,-20.7999992370605
1090.1231669,-18.8400001525879
1090.1387919,-17.1800003051758
1090.1544169,-17.3500003814697
1090.1700419,-20.1399993896484
1090.1856669,-25.0300006866455
1090.2012919,-30.3700008392334
1090.2169169,-34.2700004577637
1090.2325419,-35.5499992370605
1090.2481669,-34.0699996948242
1090.2637919,-30.6299991607666
1090.2794169,-26.5799999237061
1090.2950419,-23.2600002288818
1090.3106669,-21.5200004577637
1090.3262919,-21.4200000762939
1090.3419169,-22.3899993896484
1090.3575419,-23.4799995422363
1090.3731669,-23.3500003814697
1090.3887919,-20.0599994659424
1090.4044169,-11.6899995803833
1090.4200419,2.32999992370605
1090.4356669,20.3600006103516
1090.4512919,38.8899993896484
1090.4669169,53.9500007629395
1090.4825419,62.560001373291
1090.4981669,63.6699981689453
1090.5137919,58.2900009155273
1090.5294169,48.9500007629395
1090.5450419,38.7200012207031
1090.5606669,30.1599998474121
1090.5762919,24.5699996948242
1090.5919169,21.4500007629395
1090.6075419,18.8600006103516
1090.6231669,14.7399997711182
1090.6387919,8.10000038146973
1090.6544169,-0.569999992847443
1090.6700419,-9.69999980926514
1090.6856669,-17.2099990844727
1090.7012919,-21.4599990844727
1090.7169169,-22.2999992370605
1090.7325419,-21.1599998474121
1090.7481669,-19.8700008392334
1090.7637919,-19.4500007629395
1090.7794169,-19.7600002288818
1090.7950419,-20.2000007629395
1090.8106669,-20.5400009155273
1090.8262919,-21.1499996185303
1090.8419169,-22.4200000762939
1090.8575419,-24.1100006103516
1090.8731669,-25.5499992370605
1090.8887919,-26.2099990844727
1090.9044169,-26.1100006103516
1090.9200419,-25.7600002288818
1090.9356669,-25.7800006866455
1090.9512919,-26.3700008392334
1090.9669169,-27.25
1090.9825419,-27.8999996185303
1090.9981669,-27.8199996948242
1091.0137919,-26.8400001525879
1091.0294169,-25.2199993133545
1091.0450419,-23.3600006103516
1091.0606669,-21.5
1091.0762919,-19.5799999237061
1091.0919169,-17.3299999237061
1091.1075419,-14.1999998092651
1091.1231669,-8.97000026702881
1091.1387919,-0.0900000035762787
1091.1544169,13.0900001525879
1091.1700419,29.25
1091.1856669,45.25
1091.2012919,57.7999992370605
1091.2169169,64.9400024414063
1091.2325419,66.5500030517578
1091.2481669,63.6599998474121
1091.2637919,57.7599983215332
1091.2794169,50.2999992370605
1091.2950419,42.4300003051758
1091.3106669,34.8699989318848
1091.3262919,27.9699993133545
1091.3419169,21.8299999237061
1091.3575419,16.4699993133545
1091.3731669,11.8100004196167
1091.3887919,7.67000007629395
1091.4044169,3.71000003814697
1091.4200419,-0.259999990463257
1091.4356669,-4.11999988555908
1091.4512919,-7.65000009536743
1091.4669169,-10.6700000762939
1091.4825419,-12.9099998474121
1091.4981669,-14.1499996185303
1091.5137919,-14.6400003433228
1091.5294169,-15.0200004577637
1091.5450419,-16.0300006866455
1091.5606669,-18.0699996948242
1091.5762919,-21.0300006866455
1091.5919169,-24.3899993896484
1091.6075419,-27.3199996948242
1091.6231669,-28.9899997711182
1091.6387919,-29.0599994659424
1091.6544169,-27.8099994659424
1091.6700419,-25.9400005340576
1091.6856669,-24.1100006103516
1091.7012919,-22.5599994659424
1091.7169169,-21.3400001525879
1091.7325419,-20.5799999237061
1091.7481669,-20.4300003051758
1091.7637919,-20.7000007629395
1091.7794169,-20.9200000762939
1091.7950419,-20.9099998474121
1091.8106669,-20.9400005340576
1091.8262919,-21.3199996948242
1091.8419169,-21.6900005340576
1091.8575419,-20.8500003814697
1091.8731669,-16.9500007629395
1091.8887919,-8.64000034332275
1091.9044169,3.77999997138977
1091.9200419,18.25
1091.9356669,31.7700004577637
1091.9512919,41.9599990844727
1091.9669169,47.9199981689453
1091.9825419,50.2299995422363
1091.9981669,50.2999992370605
1092.0137919,49.5
1092.0294169,48.3899993896484
1092.0450419,46.4599990844727
1092.0606669,42.7299995422363
1092.0762919,36.5499992370605
1092.0919169,28.1700000762939
1092.1075419,18.5499992370605
1092.1231669,8.86999988555908
1092.1387919,0.129999995231628
1092.1544169,-6.8899998664856
1092.1700419,-11.7600002288818
1092.1856669,-14.539999961853
1092.2012919,-15.6899995803833
1092.2169169,-15.8800001144409
1092.2325419,-15.9099998474121
1092.2481669,-16.5799999237061
1092.2637919,-18.3899993896484
1092.2794169,-21.0599994659424
1092.2950419,-23.7199993133545
1092.3106669,-25.6299991607666
1092.3262919,-26.7199993133545
1092.3419169,-27.6000003814697
1092.3575419,-28.9099998474121
1092.3731669,-30.8299999237061
1092.3887919,-32.9700012207031
1092.4044169,-34.6100006103516
1092.4200419,-35.1199989318848
1092.4356669,-34.1599998474121
1092.4512919,-31.7700004577637
1092.4669169,-28.3600006103516
1092.4825419,-24.7399997711182
1092.4981669,-21.8199996948242
1092.5137919,-20.2800006866455
1092.5294169,-20.3199996948242
1092.5450419,-21.6299991607666
1092.5606669,-23.3999996185303
1092.5762919,-24.5699996948242
1092.5919169,-24.2999992370605
1092.6075419,-22.3099994659424
1092.6231669,-18.7299995422363
1092.6387919,-13.6099996566772
1092.6544169,-6.44999980926514
1092.6700419,3.16000008583069
1092.6856669,14.6899995803833
1092.7012919,26.4599990844727
1092.7169169,36.3800010681152
1092.7325419,42.7999992370605
1092.7481669,45.0900001525879
1092.7637919,43.7900009155273
1092.7794169,40.439998626709
1092.7950419,37.0200004577637
1092.8106669,35.1100006103516
1092.8262919,35.0499992370605
1092.8419169,35.810001373291
1092.8575419,35.6800003051758
1092.8731669,33.2700004577637
1092.8887919,28.2199993133545
1092.9044169,21.3999996185303
1092.9200419,14.3900003433228
1092.9356669,8.60999965667725
1092.9512919,4.90999984741211
1092.9669169,3.27999997138977
1092.9825419,2.99000000953674
1092.9981669,2.83999991416931
1093.0137919,1.62999999523163
1093.0294169,-1.27999997138977
1093.0450419,-5.5
1093.0606669,-9.89999961853027
1093.0762919,-13.3100004196167
1093.0919169,-15.1899995803833
1093.1075419,-15.710000038147
1093.1231669,-15.1899995803833
1093.1387919,-13.8800001144409
1093.1544169,-12.1099996566772
1093.1700419,-10.4099998474121
1093.1856669,-9.28999996185303
1093.2012919,-9.0
1093.2169169,-9.32999992370605
1093.2325419,-9.82999992370605
1093.2481669,-10.25
1093.2637919,-10.789999961853
1093.2794169,-11.8199996948242
1093.2950419,-13.25
1093.3106669,-14.3500003814697
1093.3262919,-14.1899995803833
1093.3419169,-12.5500001907349
1093.3575419,-9.67000007629395
1093.3731669,-5.23000001907349
1093.3887919,1.88999998569489
1093.4044169,12.710000038147
1093.4200419,26.8299999237061
1093.4356669,42.1500015258789
1093.4512919,55.7999992370605
1093.4669169,65.3199996948242
1093.4825419,69.4000015258789
1093.4981669,68.25
1093.5137919,63.3899993896484
1093.5294169,56.7099990844727
1093.5450419,49.5999984741211
1093.5606669,42.5200004577637
1093.5762919,35.3300018310547
1093.5919169,28.0799999237061
1093.6075419,21.3899993896484
1093.6231669,15.75
1093.6387919,10.6599998474121
1093.6544169,4.98999977111816
1093.6700419,-1.83000004291534
1093.6856669,-9.13000011444092
1093.7012919,-15.1899995803833
1093.7169169,-18.3700008392334
1093.7325419,-18.0599994659424
1093.7481669,-15.2299995422363
1093.7637919,-12.039999961853
1093.7794169,-10.4200000762939
1093.7950419,-10.9200000762939
1093.8106669,-12.7700004577637
1093.8262919,-14.9499998092651
1093.8419169,-17.0200004577637
1093.8575419,-19.2600002288818
1093.8731669,-21.9500007629395
1093.8887919,-24.7600002288818
1093.9044169,-26.8099994659424
1093.9200419,-27.3500003814697
1093.9356669,-26.3999996185303
1093.9512919,-24.8500003814697
1093.9669169,-23.5900001525879
1093.9825419,-22.9899997711182
1093.9981669,-22.9400005340576
1094.0137919,-23.2099990844727
1094.0294169,-23.7700004577637
1094.0450419,-24.6399993896484
1094.0606669,-25.5900001525879
1094.0762919,-26.1800003051758
1094.0919169,-25.7399997711182
1094.1075419,-23.3700008392334
1094.1231669,-17.9599990844727
1094.1387919,-8.69999980926514
1094.1544169,4.19000005722046
1094.1700419,19.1399993896484
1094.1856669,33.5800018310547
1094.2012919,45.1199989318848
1094.2169169,52.5299987792969
1094.2325419,55.9599990844727
1094.2481669,56.2700004577637
1094.2637919,54.4000015258789
1094.2794169,51.1500015258789
1094.2950419,46.8699989318848
1094.3106669,41.4500007629395
1094.3262919,34.7099990844727
1094.3419169,26.7399997711182
1094.3575419,17.8899993896484
1094.3731669,9.05000019073486
1094.3887919,1.41999995708466
1094.4044169,-4.13000011444092
1094.4200419,-7.6399998664856
1094.4356669,-9.8100004196167
1094.4512919,-11.3999996185303
1094.4669169,-12.8800001144409
1094.4825419,-14.3299999237061
1094.4981669,-15.539999961853
1094.5137919,-16.2999992370605
1094.5294169,-16.6700000762939
1094.5450419,-17.2600002288818
1094.5606669,-19.1200008392334
1094.5762919,-23.0599994659424
1094.5919169,-28.5499992370605
1094.6075419,-33.7400016784668
1094.6231669,-36.5099983215332
1094.6387919,-35.8499984741211
1094.6544169,-32.4799995422363
1094.6700419,-28.2900009155273
1094.6856669,-25.1299991607666
1094.7012919,-23.7800006866455
1094.7169169,-23.6000003814697
1094.7325419,-23.2399997711182
1094.7481669,-21.9799995422363
1094.7637919,-20.3099994659424
1094.7794169,-19.2700004577637
1094.7950419,-19.6700000762939
1094.8106669,-21.4699993133545
1094.8262919,-23.6599998474121
1094.8419169,-24.6800003051758
1094.8575419,-23.2199993133545
1094.8731669,-18.4300003051758
1094.8887919,-9.85000038146973
1094.9044169,2.1800000667572
1094.9200419,16.0499992370605
1094.9356669,29.0799999237061
1094.9512919,38.8199996948242
1094.9669169,44.189998626709
1094.9825419,45.689998626709
1094.9981669,44.6500015258789
1095.0137919,42.4900016784668
1095.0294169,40.2999992370605
1095.0450419,38.5800018310547
1095.0606669,36.8699989318848
1095.0762919,33.9799995422363
1095.0919169,28.8199996948242
1095.1075419,21.2299995422363
1095.1231669,12.0299997329712
1095.1387919,2.79999995231628
1095.1544169,-4.55999994277954
1095.1700419,-8.56999969482422
1095.1856669,-8.92000007629395
1095.2012919,-6.76000022888184
1095.2169169,-4.28999996185303
1095.2325419,-3.73000001907349
1095.2481669,-6.23000001907349
1095.2637919,-11.1300001144409
1095.2794169,-16.3700008392334
1095.2950419,-20.0300006866455
1095.3106669,-21.7800006866455
1095.3262919,-22.5900001525879
1095.3419169,-23.1700000762939
1095.3575419,-23.4200000762939
1095.3731669,-23.3999996185303
1095.3887919,-23.9699993133545
1095.4044169,-26.0900001525879
1095.4200419,-29.6200008392334
1095.4356669,-32.9500007629395
1095.4512919,-34.0400009155273
1095.4669169,-31.9799995422363
1095.4825419,-27.6100006103516
1095.4981669,-22.7900009155273
1095.5137919,-19.1599998474121
1095.5294169,-17.2000007629395
1095.5450419,-16.4200000762939
1095.5606669,-16.3400001525879
1095.5762919,-16.9500007629395
1095.5919169,-18.0599994659424
1095.6075419,-18.6200008392334
1095.6231669,-17.0900001525879
1095.6387919,-12.4799995422363
1095.6544169,-4.84000015258789
1095.6700419,4.57999992370605
1095.6856669,14.039999961853
1095.7012919,22.0599994659424
1095.7169169,28.0
1095.7325419,31.9200000762939
1095.7481669,34.1599998474121
1095.7637919,35.0200004577637
1095.7794169,34.6699981689453
1095.7950419,33.1500015258789
1095.8106669,30.4799995422363
1095.8262919,26.6900005340576
1095.8419169,22.0499992370605
1095.8575419,17.1399993896484
1095.8731669,12.5100002288818
1095.8887919,8.27000045776367
1095.9044169,4.26000022888184
1095.9200419,0.5
1095.9356669,-2.51999998092651
1095.9512919,-4.32999992370605
1095.9669169,-4.80000019073486
1095.9825419,-4.05000019073486
1095.9981669,-2.36999988555908
1096.0137919,-0.5
1096.0294169,0.409999996423721
1096.0450419,-0.449999988079071
1096.0606669,-2.98000001907349
1096.0762919,-6.1399998664856
1096.0919169,-8.80000019073486
1096.1075419,-10.6199998855591
1096.1231669,-12.289999961853
1096.1387919,-14.8900003433228
1096.1544169,-18.7299995422363
1096.1700419,-22.9799995422363
1096.1856669,-26.2099990844727
1096.2012919,-27.1900005340576
1096.2169169,-25.4899997711182
1096.2325419,-21.6599998474121
1096.2481669,-16.9799995422363
1096.2637919,-12.9099998474121
1096.2794169,-10.3999996185303
1096.2950419,-9.51000022888184
1096.3106669,-9.57999992370605
1096.3262919,-9.39999961853027
1096.3419169,-7.19000005722046
1096.3575419,-1.26999998092651
1096.3731669,8.72999954223633
1096.3887919,21.4200000762939
1096.4044169,34.3600006103516
1096.4200419,45.2299995422363
1096.4356669,52.6199989318848
1096.4512919,56.1800003051758
1096.4669169,56.3400001525879
1096.4825419,54.1699981689453
1096.4981669,50.8899993896484
1096.5137919,47.4599990844727
1096.5294169,44.1100006103516
1096.5450419,40.310001373291
1096.5606669,35.2299995422363
1096.5762919,28.4599990844727
1096.5919169,20.3799991607666
1096.6075419,11.9700002670288
1096.6231669,4.42000007629395
1096.6387919,-1.30999994277954
1096.6544169,-5.09999990463257
1096.6700419,-7.69000005722046
1096.6856669,-9.92000007629395
1096.7012919,-12.1300001144409
1096.7169169,-14.1899995803833
1096.7325419,-15.9700002670288
1096.7481669,-17.5599994659424
1096.7637919,-19.1200008392334
1096.7794169,-20.7000007629395
1096.7950419,-22.0300006866455
1096.8106669,-22.9099998474121
1096.8262919,-23.6599998474121
1096.8419169,-24.8500003814697
1096.8575419,-26.6399993896484
1096.8731669,-28.4899997711182
1096.8887919,-29.8400001525879
1096.9044169,-30.4599990844727
1096.9200419,-30.2700004577637
1096.9356669,-29.1599998474121
1096.9512919,-27.1800003051758
1096.9669169,-24.6800003051758
1096.9825419,-22.3600006103516
1096.9981669,-20.8400001525879
1097.0137919,-20.1000003814697
1097.0294169,-19.1499996185303
1097.0450419,-16.1900005340576
1097.0606669,-9.4399995803833
1097.0762919,1.69000005722046
1097.0919169,16.0599994659424
1097.1075419,31.2299995422363
1097.1231669,44.5299987792969
1097.1387919,54.1199989318848
1097.1544169,59.5
1097.1700419,61.2099990844727
1097.1856669,60.3400001525879
1097.2012919,57.9300003051758
1097.2169169,54.7299995422363
1097.2325419,51.0999984741211
1097.2481669,47.0
1097.2637919,42.060001373291
1097.2794169,35.8400001525879
1097.2950419,28.2000007629395
1097.3106669,19.4699993133545
1097.3262919,10.3199996948242
1097.3419169,1.58000004291534
