Time(s),Value(%)
1087.0137919,-47.9300003051758
1087.0294169,-49.8400001525879
1087.0450419,-50.3699989318848
1087.0606669,-49.5999984741211
1087.0762919,-47.5999984741211
1087.0919169,-44.1199989318848
1087.1075419,-38.7900009155273
1087.1231669,-31.6100006103516
1087.1387919,-23.3400001525879
1087.1544169,-15.1800003051758
1087.1700419,-8.10999965667725
1087.1856669,-2.49000000953674
1087.2012919,1.88999998569489
1087.2169169,5.51999998092651
1087.2325419,8.77999973297119
1087.2481669,11.8599996566772
1087.2637919,14.7600002288818
1087.2794169,17.5
1087.2950419,20.1599998474121
1087.3106669,22.8600006103516
1087.3262919,25.5900001525879
1087.3419169,28.0100002288818
1087.3575419,29.3999996185303
1087.3731669,29.1700000762939
1087.3887919,27.2299995422363
1087.4044169,24.0599994659424
1087.4200419,20.2800006866455
1087.4356669,16.3700008392334
1087.4512919,12.5900001525879
1087.4669169,9.02000045776367
1087.4825419,5.59000015258789
1087.4981669,2.16000008583069
1087.5137919,-1.50999999046326
1087.5294169,-5.65000009536743
1087.5450419,-10.2700004577637
1087.5606669,-15.2799997329712
1087.5762919,-20.5900001525879
1087.5919169,-26.1800003051758
1087.6075419,-31.9200000762939
1087.6231669,-37.560001373291
1087.6387919,-42.7599983215332
1087.6544169,-47.2999992370605
1087.6700419,-51.2400016784668
1087.6856669,-54.7700004577637
1087.7012919,-57.9300003051758
1087.7169169,-60.6300010681152
1087.7325419,-62.7400016784668
1087.7481669,-64.2900009155273
1087.7637919,-65.3199996948242
1087.7794169,-65.5
1087.7950419,-64.0
1087.8106669,-59.9900016784668
1087.8262919,-53.2999992370605
1087.8419169,-44.4300003051758
1087.8575419,-33.9900016784668
1087.8731669,-22.4799995422363
1087.8887919,-10.4700002670288
1087.9044169,1.07000005245209
1087.9200419,10.8699998855591
1087.9356669,18.0100002288818
1087.9512919,22.5400009155273
1087.9669169,25.2000007629395
1087.9825419,26.5900001525879
1087.9981669,26.8799991607666
1088.0137919,26.1200008392334
1088.0294169,24.5100002288818
1088.0450419,22.3899993896484
1088.0606669,20.1100006103516
1088.0762919,17.9099998474121
1088.0919169,15.8199996948242
1088.1075419,13.8100004196167
1088.1231669,11.8199996948242
1088.1387919,9.81999969482422
1088.1544169,7.82000017166138
1088.1700419,5.80999994277954
1088.1856669,3.70000004768372
1088.2012919,1.20000004768372
1088.2169169,-2.0
1088.2325419,-6.07999992370605
1088.2481669,-10.8999996185303
1088.2637919,-16.1499996185303
1088.2794169,-21.5
1088.2950419,-26.8500003814697
1088.3106669,-32.2599983215332
1088.3262919,-37.7299995422363
1088.3419169,-43.1399993896484
1088.3575419,-48.2099990844727
1088.3731669,-52.75
1088.3887919,-56.8300018310547
1088.4044169,-60.6199989318848
1088.4200419,-64.1399993896484
1088.4356669,-67.2099990844727
1088.4512919,-69.6699981689453
1088.4669169,-71.5
1088.4825419,-72.7200012207031
1088.4981669,-73.0699996948242
1088.5137919,-71.8000030517578
1088.5294169,-68.1500015258789
1088.5450419,-61.9700012207031
1088.5606669,-53.6199989318848
1088.5762919,-43.5
1088.5919169,-31.9200000762939
1088.6075419,-19.3799991607666
1088.6231669,-6.8899998664856
1088.6387919,4.19999980926514
1088.6544169,13.0799999237061
1088.6700419,19.9899997711182
1088.6856669,25.7299995422363
1088.7012919,30.7000007629395
1088.7169169,34.6500015258789
1088.7325419,37.25
1088.7481669,38.4799995422363
1088.7637919,38.7200012207031
1088.7794169,38.3699989318848
1088.7950419,37.6199989318848
1088.8106669,36.4199981689453
1088.8262919,34.75
1088.8419169,32.7099990844727
1088.8575419,30.5499992370605
1088.8731669,28.5100002288818
1088.8887919,26.7000007629395
1088.9044169,24.9400005340576
1088.9200419,22.7800006866455
1088.9356669,19.7199993133545
1088.9512919,15.5799999237061
1088.9669169,10.5200004577637
1088.9825419,4.96000003814697
1088.9981669,-0.649999976158142
1089.0137919,-5.98000001907349
1089.0294169,-10.8599996566772
1089.0450419,-15.3199996948242
1089.0606669,-19.5400009155273
1089.0762919,-23.7999992370605
1089.0919169,-28.3700008392334
1089.1075419,-33.2900009155273
1089.1231669,-38.4799995422363
1089.1387919,-43.8600006103516
1089.1544169,-49.3800010681152
1089.1700419,-54.9000015258789
1089.1856669,-60.1199989318848
1089.2012919,-64.4800033569336
1089.2169169,-67.3300018310547
1089.2325419,-68.0400009155273
1089.2481669,-66.3399963378906
1089.2637919,-62.4099998474121
1089.2794169,-56.9000015258789
1089.2950419,-50.6300010681152
1089.3106669,-44.3699989318848
1089.3262919,-38.5200004577637
1089.3419169,-32.9300003051758
1089.3575419,-26.9799995422363
1089.3731669,-20.0
1089.3887919,-11.7799997329712
1089.4044169,-2.55999994277954
1089.4200419,7.21999979019165
1089.4356669,17.2000007629395
1089.4512919,26.9799995422363
1089.4669169,35.7599983215332
1089.4825419,42.3400001525879
1089.4981669,45.7299995422363
1089.5137919,45.9000015258789
1089.5294169,43.7099990844727
1089.5450419,40.2900009155273
1089.5606669,36.4799995422363
1089.5762919,32.7400016784668
1089.5919169,29.2099990844727
1089.6075419,25.8799991607666
1089.6231669,22.5900001525879
1089.6387919,19.1399993896484
1089.6544169,15.3500003814697
1089.6700419,11.2200002670288
1089.6856669,6.94000005722046
1089.7012919,2.74000000953674
1089.7169169,-1.16999995708466
1089.7325419,-4.73999977111816
1089.7481669,-8.14000034332275
1089.7637919,-11.710000038147
1089.7794169,-15.8100004196167
1089.7950419,-20.5400009155273
1089.8106669,-25.8099994659424
1089.8262919,-31.5699996948242
1089.8419169,-37.7799987792969
1089.8575419,-44.2400016784668
1089.8731669,-50.4900016784668
1089.8887919,-55.8499984741211
1089.9044169,-59.8499984741211
1089.9200419,-62.5499992370605
1089.9356669,-64.3499984741211
1089.9512919,-65.4800033569336
1089.9669169,-65.6800003051758
1089.9825419,-64.3499984741211
1089.9981669,-61.0499992370605
1090.0137919,-55.8800010681152
1090.0294169,-49.3899993896484
1090.0450419,-42.1500015258789
1090.0606669,-34.3199996948242
1090.0762919,-25.6399993896484
1090.0919169,-16.0
1090.1075419,-5.96999979019165
1090.1231669,3.39000010490417
1090.1387919,11.2799997329712
1090.1544169,17.5200004577637
1090.1700419,22.4500007629395
1090.1856669,26.5599994659424
1090.2012919,30.0400009155273
1090.2169169,32.8699989318848
1090.2325419,34.9799995422363
1090.2481669,36.4900016784668
1090.2637919,37.6500015258789
1090.2794169,38.7200012207031
1090.2950419,39.8300018310547
1090.3106669,40.8699989318848
1090.3262919,41.439998626709
1090.3419169,41.1100006103516
1090.3575419,39.689998626709
1090.3731669,37.2900009155273
1090.3887919,34.2999992370605
1090.4044169,31.1399993896484
1090.4200419,28.1200008392334
1090.4356669,25.4099998474121
1090.4512919,22.9899997711182
1090.4669169,20.6399993896484
1090.4825419,17.9899997711182
1090.4981669,14.7200002670288
1090.5137919,10.75
1090.5294169,6.11999988555908
1090.5450419,0.769999980926514
1090.5606669,-5.3600001335144
1090.5762919,-12.1300001144409
1090.5919169,-18.9799995422363
1090.6075419,-25.0799999237061
1090.6231669,-29.8600006103516
1090.6387919,-33.4099998474121
1090.6544169,-36.1599998474121
1090.6700419,-38.310001373291
1090.6856669,-39.7400016784668
1090.7012919,-40.2799987792969
1090.7169169,-39.9599990844727
1090.7325419,-38.9300003051758
1090.7481669,-37.0
1090.7637919,-33.3800010681152
1090.7794169,-27.25
1090.7950419,-18.4400005340576
1090.8106669,-7.61999988555908
1090.8262919,4.26000022888184
1090.8419169,16.3999996185303
1090.8575419,28.1599998474121
1090.8731669,38.9000015258789
1090.8887919,47.7700004577637
1090.9044169,54.1399993896484
1090.9200419,57.9300003051758
1090.9356669,59.6300010681152
1090.9512919,59.8699989318848
1090.9669169,59.1599998474121
1090.9825419,57.8499984741211
1090.9981669,56.2099990844727
1091.0137919,54.4500007629395
1091.0294169,52.7299995422363
1091.0450419,51.1100006103516
1091.0606669,49.5200004577637
1091.0762919,47.7000007629395
1091.0919169,45.4599990844727
1091.1075419,42.7599983215332
1091.1231669,39.7900009155273
1091.1387919,36.7999992370605
1091.1544169,34.0299987792969
1091.1700419,31.5200004577637
1091.1856669,29.1100006103516
1091.2012919,26.4400005340576
1091.2169169,23.1599998474121
1091.2325419,19.1800003051758
1091.2481669,14.5
1091.2637919,9.06999969482422
1091.2794169,2.8199999332428
1091.2950419,-4.05999994277954
1091.3106669,-10.9700002670288
1091.3262919,-16.9699993133545
1091.3419169,-21.4400005340576
1091.3575419,-24.5200004577637
1091.3731669,-26.7900009155273
1091.3887919,-28.5900001525879
1091.4044169,-29.8700008392334
1091.4200419,-30.4300003051758
1091.4356669,-30.2399997711182
1091.4512919,-29.3799991607666
1091.4669169,-27.6700000762939
1091.4825419,-24.4500007629395
1091.4981669,-18.9899997711182
1091.5137919,-11.1599998474121
1091.5294169,-1.49000000953674
1091.5450419,9.28999996185303
1091.5606669,20.6100006103516
1091.5762919,31.9300003051758
1091.5919169,42.5999984741211
1091.6075419,51.8199996948242
1091.6231669,59.0200004577637
1091.6387919,64.1500015258789
1091.6544169,67.5699996948242
1091.6700419,69.6500015258789
1091.6856669,70.5899963378906
1091.7012919,70.5699996948242
1091.7169169,69.8899993896484
1091.7325419,68.8499984741211
1091.7481669,67.629997253418
1091.7637919,66.2099990844727
1091.7794169,64.4400024414063
1091.7950419,62.25
1091.8106669,59.5800018310547
1091.8262919,56.4099998474121
1091.8419169,52.7000007629395
1091.8575419,48.5699996948242
1091.8731669,44.2700004577637
1091.8887919,40.1100006103516
1091.9044169,36.2000007629395
1091.9200419,32.2799987792969
1091.9356669,28.0499992370605
1091.9512919,23.5
1091.9669169,18.9899997711182
1091.9825419,14.9099998474121
1091.9981669,11.460000038147
1092.0137919,8.5600004196167
1092.0294169,5.80000019073486
1092.0450419,2.64000010490417
1092.0606669,-1.39999997615814
1092.0762919,-6.44000005722046
1092.0919169,-12.3299999237061
1092.1075419,-18.9899997711182
1092.1231669,-26.3700008392334
1092.1387919,-34.2299995422363
1092.1544169,-41.8300018310547
1092.1700419,-47.9900016784668
1092.1856669,-51.5699996948242
1092.2012919,-52.1199989318848
1092.2169169,-49.8499984741211
1092.2325419,-45.3600006103516
1092.2481669,-39.3600006103516
1092.2637919,-32.5499992370605
1092.2794169,-25.5699996948242
1092.2950419,-18.8700008392334
1092.3106669,-12.5299997329712
1092.3262919,-6.26999998092651
1092.3419169,0.239999994635582
1092.3575419,7.17000007629395
1092.3731669,14.3500003814697
1092.3887919,21.4500007629395
1092.4044169,28.1599998474121
1092.4200419,34.25
1092.4356669,39.4500007629395
1092.4512919,43.3300018310547
1092.4669169,45.4700012207031
1092.4825419,45.75
1092.4981669,44.4599990844727
1092.5137919,42.2000007629395
1092.5294169,39.6399993896484
1092.5450419,37.2200012207031
1092.5606669,35.1399993896484
1092.5762919,33.3400001525879
1092.5919169,31.5300006866455
1092.6075419,29.3299999237061
1092.6231669,26.4099998474121
1092.6387919,22.7299995422363
1092.6544169,18.3400001525879
1092.6700419,13.2399997711182
1092.6856669,7.38000011444092
1092.7012919,0.920000016689301
1092.7169169,-5.59000015258789
1092.7325419,-11.3699998855591
1092.7481669,-15.9700002670288
1092.7637919,-19.6299991607666
1092.7794169,-22.9899997711182
1092.7950419,-26.3500003814697
1092.8106669,-29.5
1092.8262919,-32.0699996948242
1092.8419169,-33.8499984741211
1092.8575419,-34.9799995422363
1092.8731669,-35.8199996948242
1092.8887919,-36.8600006103516
1092.9044169,-38.4500007629395
1092.9200419,-40.6599998474121
1092.9356669,-43.2200012207031
1092.9512919,-45.7700004577637
1092.9669169,-48.0
1092.9825419,-49.7200012207031
1092.9981669,-50.5699996948242
1093.0137919,-49.9500007629395
1093.0294169,-47.1800003051758
1093.0450419,-42.0200004577637
1093.0606669,-34.8800010681152
1093.0762919,-26.6599998474121
1093.0919169,-18.3099994659424
1093.1075419,-10.4399995803833
1093.1231669,-3.25
1093.1387919,3.3199999332428
1093.1544169,9.34000015258789
1093.1700419,14.6700000762939
1093.1856669,19.0300006866455
1093.2012919,22.2099990844727
1093.2169169,24.1800003051758
1093.2325419,25.1100006103516
1093.2481669,25.3600006103516
1093.2637919,25.25
1093.2794169,25.0799999237061
1093.2950419,24.9400005340576
1093.3106669,24.7299995422363
1093.3262919,24.1499996185303
1093.3419169,22.9099998474121
1093.3575419,20.8999996185303
1093.3731669,18.1700000762939
1093.3887919,14.7399997711182
1093.4044169,10.6099996566772
1093.4200419,5.94000005722046
1093.4356669,1.23000001907349
1093.4512919,-2.79999995231628
1093.4669169,-5.78000020980835
1093.4825419,-7.98999977111816
1093.4981669,-10.0600004196167
1093.5137919,-12.3100004196167
1093.5294169,-14.5699996948242
1093.5450419,-16.4799995422363
1093.5606669,-17.7999992370605
1093.5762919,-18.5799999237061
1093.5919169,-19.1599998474121
1093.6075419,-20.0499992370605
1093.6231669,-21.6599998474121
1093.6387919,-24.0400009155273
1093.6544169,-27.0
1093.6700419,-30.2199993133545
1093.6856669,-33.4500007629395
1093.7012919,-36.4599990844727
1093.7169169,-38.7599983215332
1093.7325419,-39.5800018310547
1093.7481669,-38.1399993896484
1093.7637919,-34.25
1093.7794169,-28.3899993896484
1093.7950419,-21.4300003051758
1093.8106669,-14.2200002670288
1093.8262919,-7.36999988555908
1093.8419169,-1.12000000476837
1093.8575419,4.5
1093.8731669,9.48999977111816
1093.8887919,13.710000038147
1093.9044169,16.9799995422363
1093.9200419,19.2399997711182
1093.9356669,20.5900001525879
1093.9512919,21.0799999237061
1093.9669169,20.7800006866455
1093.9825419,19.8500003814697
1093.9981669,18.6000003814697
1094.0137919,17.4300003051758
1094.0294169,16.5499992370605
1094.0450419,15.7799997329712
1094.0606669,14.8400001525879
1094.0762919,13.710000038147
1094.0919169,12.6599998474121
1094.1075419,12.0
1094.1231669,11.8400001525879
1094.1387919,12.0200004577637
1094.1544169,12.1499996185303
1094.1700419,11.710000038147
1094.1856669,10.2700004577637
1094.2012919,7.76999998092651
1094.2169169,4.30999994277954
1094.2325419,-0.0900000035762787
1094.2481669,-5.46000003814697
1094.2637919,-11.5900001525879
1094.2794169,-17.75
1094.2950419,-22.8700008392334
1094.3106669,-26.2800006866455
1094.3262919,-28.3199996948242
1094.3419169,-29.8999996185303
1094.3575419,-31.5599994659424
1094.3731669,-33.1599998474121
1094.3887919,-34.2700004577637
1094.4044169,-34.6300010681152
1094.4200419,-34.2599983215332
1094.4356669,-33.2299995422363
1094.4512919,-31.4799995422363
1094.4669169,-28.8500003814697
1094.4825419,-25.3700008392334
1094.4981669,-21.3199996948242
1094.5137919,-17.1299991607666
1094.5294169,-13.1800003051758
1094.5450419,-9.64000034332275
1094.5606669,-6.34999990463257
1094.5762919,-2.96000003814697
1094.5919169,0.819999992847443
1094.6075419,4.98999977111816
1094.6231669,9.23999977111816
1094.6387919,13.210000038147
1094.6544169,16.7099990844727
1094.6700419,19.7800006866455
1094.6856669,22.5100002288818
1094.7012919,25.0200004577637
1094.7169169,27.2399997711182
1094.7325419,28.8799991607666
1094.7481669,29.6599998474121
1094.7637919,29.4699993133545
1094.7794169,28.3999996185303
1094.7950419,26.5
1094.8106669,23.8299999237061
1094.8262919,20.5799999237061
1094.8419169,17.2600002288818
1094.8575419,14.5799999237061
1094.8731669,12.960000038147
1094.8887919,12.1800003051758
1094.9044169,11.6400003433228
1094.9200419,10.9899997711182
1094.9356669,10.3000001907349
1094.9512919,9.85000038146973
1094.9669169,9.81999969482422
1094.9825419,10.1300001144409
1094.9981669,10.460000038147
1095.0137919,10.3199996948242
1095.0294169,9.28999996185303
1095.0450419,7.26999998092651
1095.0606669,4.30999994277954
1095.0762919,0.360000014305115
1095.0919169,-4.63000011444092
1095.1075419,-10.4799995422363
1095.1231669,-16.3899993896484
1095.1387919,-21.1399993896484
1095.1544169,-23.7800006866455
1095.1700419,-24.2099990844727
1095.1856669,-23.0100002288818
1095.2012919,-20.7600002288818
1095.2169169,-17.7399997711182
1095.2325419,-14.1000003814697
1095.2481669,-10.039999961853
1095.2637919,-5.82000017166138
1095.2794169,-1.58000004291534
1095.2950419,2.73000001907349
1095.3106669,7.30000019073486
1095.3262919,12.1599998474121
1095.3419169,17.1200008392334
1095.3575419,21.7800006866455
1095.3731669,25.7600002288818
1095.3887919,28.9200000762939
1095.4044169,31.3700008392334
1095.4200419,33.3199996948242
1095.4356669,34.8699989318848
1095.4512919,35.8899993896484
1095.4669169,36.2299995422363
1095.4825419,35.9599990844727
1095.4981669,35.2099990844727
1095.5137919,33.9799995422363
1095.5294169,32.1100006103516
1095.5450419,29.5900001525879
1095.5606669,26.7099990844727
1095.5762919,24.0200004577637
1095.5919169,21.8899993896484
1095.6075419,20.1800003051758
1095.6231669,18.4899997711182
1095.6387919,16.7399997711182
1095.6544169,15.1800003051758
1095.6700419,14.1099996566772
1095.6856669,13.6400003433228
1095.7012919,13.6000003814697
1095.7169169,13.5799999237061
1095.7325419,13.0799999237061
1095.7481669,11.75
1095.7637919,9.5
1095.7794169,6.34999990463257
1095.7950419,2.19000005722046
1095.8106669,-3.13000011444092
1095.8262919,-9.44999980926514
1095.8419169,-15.9899997711182
1095.8575419,-21.5499992370605
1095.8731669,-25.2900009155273
1095.8887919,-27.3199996948242
1095.9044169,-28.3899993896484
1095.9200419,-28.9899997711182
1095.9356669,-29.0900001525879
1095.9512919,-28.5
1095.9669169,-27.1800003051758
1095.9825419,-25.2999992370605
1095.9981669,-22.9200000762939
1096.0137919,-19.8500003814697
1096.0294169,-15.789999961853
1096.0450419,-10.6800003051758
1096.0606669,-4.88000011444092
1096.0762919,1.03999996185303
1096.0919169,6.61999988555908
1096.1075419,11.5699996948242
1096.1231669,15.8800001144409
1096.1387919,19.6700000762939
1096.1544169,23.0499992370605
1096.1700419,26.0100002288818
1096.1856669,28.4799995422363
1096.2012919,30.4599990844727
1096.2169169,32.0299987792969
1096.2325419,33.3300018310547
1096.2481669,34.4900016784668
1096.2637919,35.5499992370605
1096.2794169,36.4300003051758
1096.2950419,36.9900016784668
1096.3106669,37.0499992370605
1096.3262919,36.5699996948242
1096.3419169,35.5299987792969
1096.3575419,33.8800010681152
1096.3731669,31.5599994659424
1096.3887919,28.6499996185303
1096.4044169,25.5200004577637
1096.4200419,22.6900005340576
1096.4356669,20.4599990844727
1096.4512919,18.6700000762939
1096.4669169,16.9099998474121
1096.4825419,14.9899997711182
1096.4981669,13.0900001525879
1096.5137919,11.4499998092651
1096.5294169,10.2299995422363
1096.5450419,9.34000015258789
1096.5606669,8.52999973297119
1096.5762919,7.42000007629395
1096.5919169,5.73999977111816
1096.6075419,3.45000004768372
1096.6231669,0.759999990463257
1096.6387919,-2.00999999046326
1096.6544169,-4.6100001335144
1096.6700419,-6.8600001335144
1096.6856669,-8.51000022888184
1096.7012919,-9.09000015258789
1096.7169169,-8.10000038146973
1096.7325419,-5.32999992370605
1096.7481669,-1.02999997138977
1096.7637919,4.1399998664856
1096.7794169,9.43000030517578
1096.7950419,14.2600002288818
1096.8106669,18.3999996185303
1096.8262919,21.8799991607666
1096.8419169,24.8099994659424
1096.8575419,27.2199993133545
1096.8731669,29.1000003814697
1096.8887919,30.4500007629395
1096.9044169,31.3600006103516
1096.9200419,31.9899997711182
1096.9356669,32.4799995422363
1096.9512919,32.9199981689453
1096.9669169,33.2599983215332
1096.9825419,33.3800010681152
1096.9981669,33.1199989318848
1097.0137919,32.3499984741211
1097.0294169,31.0599994659424
1097.0450419,29.3400001525879
1097.0606669,27.3799991607666
1097.0762919,25.3199996948242
1097.0919169,23.2900009155273
1097.1075419,21.3099994659424
1097.1231669,19.2399997711182
1097.1387919,16.8099994659424
1097.1544169,13.7700004577637
1097.1700419,10.039999961853
1097.1856669,5.6100001335144
1097.2012919,0.389999985694885
1097.2169169,-5.71999979019165
1097.2325419,-12.6000003814697
1097.2481669,-19.7099990844727
1097.2637919,-26.2900009155273
1097.2794169,-31.8899993896484
1097.2950419,-36.6800003051758
1097.3106669,-41.1500015258789
1097.3262919,-45.4500007629395
1097.3419169,-49.2799987792969
1097.3575419,-52.2999992370605
1097.3731669,-54.4199981689453
1097.3887919,-55.7700004577637
1097.4044169,-56.3499984741211
1097.4200419,-55.8199996948242
1097.4356669,-53.75
1097.4512919,-50.0800018310547
