Time(s),Value(%)
295.0047644,55.6699981689453
295.0203894,51.1199989318848
295.0360144,46.2900009155273
295.0516394,41.1399993896484
295.0672644,35.4000015258789
295.0828894,28.7299995422363
295.0985144,21.0300006866455
295.1141394,12.6599998474121
295.1297644,4.3600001335144
295.1453894,-3.0699999332428
295.1610144,-9.01000022888184
295.1766394,-13.3800001144409
295.1922644,-16.7299995422363
295.2078894,-19.8600006103516
295.2235144,-23.1700000762939
295.2391394,-26.4899997711182
295.2547644,-29.4899997711182
295.2703894,-32.0400009155273
295.2860144,-34.189998626709
295.3016394,-35.939998626709
295.3172644,-37.1100006103516
295.3328894,-37.5099983215332
295.3485144,-37.0499992370605
295.3641394,-35.9300003051758
295.3797644,-34.4300003051758
295.3953894,-32.7700004577637
295.4110144,-31.0900001525879
295.4266394,-29.4599990844727
295.4422644,-27.6000003814697
295.4578894,-24.6200008392334
295.4735144,-19.1499996185303
295.4891394,-10.2399997711182
295.5047644,1.75999999046326
295.5203894,15.1999998092651
295.5360144,27.8799991607666
295.5516394,38.0299987792969
295.5672644,44.8199996948242
295.5828894,48.3800010681152
295.5985144,49.3699989318848
295.6141394,48.5200004577637
295.6297644,46.2799987792969
295.6453894,42.7900009155273
295.6610144,37.8699989318848
295.6766394,31.3099994659424
295.6922644,23.2900009155273
295.7078894,14.6000003814697
295.7235144,6.57999992370605
295.7391394,0.389999985694885
295.7547644,-3.58999991416931
295.7703894,-5.86999988555908
295.7860144,-7.44000005722046
295.8016394,-9.34000015258789
295.8172644,-12.2700004577637
295.8328894,-16.0100002288818
295.8485144,-19.7299995422363
295.8641394,-22.6800003051758
295.8797644,-24.7999992370605
295.8953894,-26.5400009155273
295.9110144,-28.2800006866455
295.9266394,-29.7999992370605
295.9422644,-30.3500003814697
295.9578894,-29.25
295.9735144,-26.5799999237061
295.9891394,-23.2900009155273
296.0047644,-20.4500007629395
296.0203894,-18.4899997711182
296.0360144,-17.4500007629395
296.0516394,-17.2199993133545
296.0672644,-17.2099990844727
296.0828894,-16.0300006866455
296.0985144,-12.0500001907349
296.1141394,-4.44000005722046
296.1297644,6.03000020980835
296.1453894,17.1900005340576
296.1610144,26.5200004577637
296.1766394,32.5099983215332
296.1922644,35.2900009155273
296.2078894,36.1100006103516
296.2235144,36.2299995422363
296.2391394,36.2599983215332
296.2547644,36.0400009155273
296.2703894,34.8499984741211
296.2860144,31.8700008392334
296.3016394,26.5599994659424
296.3172644,19.0400009155273
296.3328894,10.1300001144409
296.3485144,1.32000005245209
296.3641394,-5.71999979019165
296.3797644,-9.97999954223633
296.3953894,-11.5299997329712
296.4110144,-11.3199996948242
296.4266394,-10.5200004577637
296.4422644,-10.1599998474121
296.4578894,-10.8699998855591
296.4735144,-12.6000003814697
296.4891394,-14.6800003051758
296.5047644,-16.3099994659424
296.5203894,-17.0799999237061
296.5360144,-17.1299991607666
296.5516394,-17.0200004577637
296.5672644,-17.2999992370605
296.5828894,-18.0900001525879
296.5985144,-19.1700000762939
296.6141394,-20.3600006103516
296.6297644,-21.6100006103516
296.6453894,-22.7700004577637
296.6610144,-23.4500007629395
296.6766394,-23.0
296.6922644,-20.5499992370605
296.7078894,-15.2200002670288
296.7235144,-6.55000019073486
296.7391394,4.80999994277954
296.7547644,17.0300006866455
296.7703894,27.8199996948242
296.7860144,35.4500007629395
296.8016394,39.2999992370605
296.8172644,39.7599983215332
296.8328894,37.9300003051758
296.8485144,35.2200012207031
296.8641394,32.9099998474121
296.8797644,31.6100006103516
296.8953894,30.9200000762939
296.9110144,29.6299991607666
296.9266394,26.4099998474121
296.9422644,20.5200004577637
296.9578894,12.1800003051758
296.9735144,2.70000004768372
296.9891394,-6.01000022888184
297.0047644,-12.4099998474121
297.0203894,-16.0300006866455
297.0360144,-17.7399997711182
297.0516394,-19.1000003814697
297.0672644,-21.4799995422363
297.0828894,-25.2099990844727
297.0985144,-29.5799999237061
297.1141394,-33.2599983215332
297.1297644,-35.0699996948242
297.1453894,-34.6800003051758
297.1610144,-32.5
297.1766394,-29.2800006866455
297.1922644,-25.9500007629395
297.2078894,-23.4899997711182
297.2235144,-22.6399993896484
297.2391394,-23.4599990844727
297.2547644,-25.3799991607666
297.2703894,-27.4500007629395
297.2860144,-28.5300006866455
297.3016394,-27.0900001525879
297.3172644,-21.5100002288818
297.3328894,-11.0600004196167
297.3485144,3.07999992370605
297.3641394,18.1000003814697
297.3797644,30.8199996948242
297.3953894,39.1599998474121
297.4110144,42.9099998474121
297.4266394,43.4199981689453
297.4422644,42.5299987792969
297.4578894,41.5400009155273
297.4735144,40.5999984741211
297.4891394,39.0699996948242
297.5047644,36.1399993896484
297.5203894,31.3199996948242
297.5360144,24.5900001525879
297.5516394,16.2800006866455
297.5672644,7.26999998092651
297.5828894,-1.23000001907349
297.5985144,-8.01000022888184
297.6141394,-12.3199996948242
297.6297644,-14.2799997329712
297.6453894,-14.8699998855591
297.6610144,-15.2600002288818
297.6766394,-16.1499996185303
297.6922644,-17.5499992370605
297.7078894,-18.9699993133545
297.7235144,-19.7099990844727
297.7391394,-19.4699993133545
297.7547644,-18.6399993896484
297.7703894,-17.9300003051758
297.7860144,-17.8700008392334
297.8016394,-18.4400005340576
297.8172644,-19.3099994659424
297.8328894,-20.0300006866455
297.8485144,-20.3099994659424
297.8641394,-20.0200004577637
297.8797644,-19.0400009155273
297.8953894,-16.9699993133545
297.9110144,-12.9899997711182
297.9266394,-6.11999988555908
297.9422644,3.96000003814697
297.9578894,16.2800006866455
297.9735144,28.5900001525879
297.9891394,38.4099998474121
298.0047644,44.3199996948242
298.0203894,46.310001373291
298.0360144,45.2700004577637
298.0516394,42.2999992370605
298.0672644,38.4000015258789
298.0828894,34.2299995422363
298.0985144,30.1399993896484
298.1141394,26.0900001525879
298.1297644,21.6399993896484
298.1453894,16.2199993133545
298.1610144,9.75
298.1766394,2.85999989509583
298.1922644,-3.5
298.2078894,-8.71000003814697
298.2235144,-12.5699996948242
298.2391394,-15.1700000762939
298.2547644,-16.9699993133545
298.2703894,-18.6100006103516
298.2860144,-20.5300006866455
298.3016394,-22.6200008392334
298.3172644,-24.3799991607666
298.3328894,-25.3400001525879
298.3485144,-25.4500007629395
298.3641394,-25.0900001525879
298.3797644,-24.7000007629395
298.3953894,-24.4799995422363
298.4110144,-24.4799995422363
298.4266394,-24.8899993896484
298.4422644,-25.8500003814697
298.4578894,-27.1200008392334
298.4735144,-27.8400001525879
298.4891394,-26.7099990844727
298.5047644,-22.3500003814697
298.5203894,-13.8100004196167
298.5360144,-1.25
298.5516394,13.5699996948242
298.5672644,27.8400001525879
298.5828894,38.7700004577637
298.5985144,44.9000015258789
298.6141394,46.5
298.6297644,45.0800018310547
298.6453894,42.4099998474121
298.6610144,39.7999992370605
298.6766394,37.6599998474121
298.6922644,35.5099983215332
298.7078894,32.439998626709
298.7235144,27.7199993133545
298.7391394,21.2900009155273
298.7547644,13.8299999237061
298.7703894,6.5
298.7860144,0.310000002384186
298.8016394,-4.19999980926514
298.8172644,-7.19000005722046
298.8328894,-9.25
298.8485144,-11.0600004196167
298.8641394,-13.0
298.8797644,-15.0600004196167
298.8953894,-16.9400005340576
298.9110144,-18.3199996948242
298.9266394,-19.0100002288818
298.9422644,-19.2600002288818
298.9578894,-19.7399997711182
298.9735144,-21.1299991607666
298.9891394,-23.7800006866455
299.0047644,-27.5300006866455
299.0203894,-31.6200008392334
299.0360144,-34.9099998474121
299.0516394,-36.2700004577637
299.0672644,-34.7799987792969
299.0828894,-29.7099990844727
299.0985144,-20.75
299.1141394,-8.57999992370605
299.1297644,5.01000022888184
299.1453894,17.7700004577637
299.1610144,27.9899997711182
299.1766394,35.1199989318848
299.1922644,39.4799995422363
299.2078894,41.6599998474121
299.2235144,42.189998626709
299.2391394,41.5400009155273
299.2547644,39.8699989318848
299.2703894,37.0200004577637
299.2860144,32.7200012207031
299.3016394,26.7700004577637
299.3172644,19.25
299.3328894,10.5500001907349
299.3485144,1.48000001907349
299.3641394,-6.8899998664856
299.3797644,-13.6400003433228
299.3953894,-18.2299995422363
299.4110144,-20.7399997711182
299.4266394,-21.8299999237061
299.4422644,-22.4599990844727
299.4578894,-23.3299999237061
299.4735144,-24.5
299.4891394,-25.5900001525879
299.5047644,-26.2999992370605
299.5203894,-26.7700004577637
299.5360144,-27.3799991607666
299.5516394,-28.3400001525879
299.5672644,-29.5200004577637
299.5828894,-30.5300006866455
299.5985144,-30.9099998474121
299.6141394,-30.2999992370605
299.6297644,-28.5200004577637
299.6453894,-25.3799991607666
299.6610144,-20.5400009155273
299.6766394,-13.7200002670288
299.6922644,-5.03999996185303
299.7078894,5.0
299.7235144,15.7299995422363
299.7391394,26.1700000762939
299.7547644,35.060001373291
299.7703894,41.0999984741211
299.7860144,43.6199989318848
299.8016394,43.0400009155273
299.8172644,40.5499992370605
299.8328894,37.3699989318848
299.8485144,34.0299987792969
299.8641394,30.1599998474121
299.8797644,24.8799991607666
299.8953894,17.4899997711182
299.9110144,8.27999973297119
299.9266394,-1.20000004768372
299.9422644,-9.02999973297119
299.9578894,-14.0799999237061
299.9735144,-16.5799999237061
299.9891394,-17.6900005340576
300.0047644,-18.4500007629395
300.0203894,-19.3500003814697
300.0360144,-20.3299999237061
300.0516394,-21.2299995422363
300.0672644,-22.0100002288818
300.0828894,-22.9300003051758
300.0985144,-24.3500003814697
300.1141394,-26.4899997711182
300.1297644,-29.1499996185303
300.1453894,-31.75
300.1610144,-33.7700004577637
300.1766394,-34.9500007629395
300.1922644,-35.2900009155273
300.2078894,-34.6300010681152
300.2235144,-32.2900009155273
300.2391394,-26.9699993133545
300.2547644,-17.5799999237061
300.2703894,-4.13000011444092
300.2860144,11.9799995422363
300.3016394,28.3500003814697
300.3172644,42.1199989318848
300.3328894,51.060001373291
300.3485144,54.4099998474121
300.3641394,53.1300010681152
300.3797644,49.2099990844727
300.3953894,44.5
300.4110144,39.8499984741211
300.4266394,34.8400001525879
300.4422644,28.4099998474121
300.4578894,19.8899993896484
300.4735144,9.81999969482422
300.4891394,-0.0900000035762787
300.5047644,-7.92999982833862
300.5203894,-12.6000003814697
300.5360144,-14.3400001525879
300.5516394,-14.1700000762939
300.5672644,-13.2200002670288
300.5828894,-12.4700002670288
300.5985144,-12.8000001907349
300.6141394,-14.6099996566772
300.6297644,-17.4400005340576
300.6453894,-20.2299995422363
300.6610144,-22.2099990844727
300.6766394,-23.3400001525879
300.6922644,-23.8600006103516
300.7078894,-23.9300003051758
300.7235144,-23.5499992370605
300.7391394,-22.7700004577637
300.7547644,-21.6599998474121
300.7703894,-19.9099998474121
300.7860144,-16.3500003814697
300.8016394,-9.5
300.8172644,1.23000001907349
300.8328894,14.75
300.8485144,28.7800006866455
300.8641394,40.8300018310547
300.8797644,49.0400009155273
300.8953894,52.6599998474121
300.9110144,52.2700004577637
300.9266394,49.5200004577637
300.9422644,46.189998626709
300.9578894,43.4000015258789
300.9735144,41.0499992370605
300.9891394,38.1800003051758
301.0047644,33.6599998474121
301.0203894,26.9300003051758
301.0360144,18.3099994659424
301.0516394,8.90999984741211
301.0672644,0.400000005960464
301.0828894,-5.63000011444092
301.0985144,-8.60000038146973
301.1141394,-9.22000026702881
301.1297644,-9.18000030517578
301.1453894,-10.1700000762939
301.1610144,-13.1499996185303
301.1766394,-17.9699993133545
301.1922644,-23.7099990844727
301.2078894,-29.0
301.2235144,-32.2999992370605
301.2391394,-32.5999984741211
301.2547644,-30.3199996948242
301.2703894,-27.1499996185303
301.2860144,-24.7000007629395
301.3016394,-23.3500003814697
301.3172644,-22.0799999237061
301.3328894,-19.1399993896484
301.3485144,-12.9899997711182
301.3641394,-3.1800000667572
301.3797644,9.09000015258789
301.3953894,21.5100002288818
301.4110144,31.7900009155273
301.4266394,38.8800010681152
301.4422644,43.0699996948242
301.4578894,45.2999992370605
301.4735144,46.2700004577637
301.4891394,46.0200004577637
301.5047644,43.9900016784668
301.5203894,39.6800003051758
301.5360144,33.060001373291
301.5516394,24.5100002288818
301.5672644,14.4799995422363
301.5828894,3.45000004768372
301.5985144,-7.65999984741211
301.6141394,-17.5
301.6297644,-24.7099990844727
301.6453894,-28.6800003051758
301.6610144,-29.9099998474121
301.6766394,-29.7700004577637
301.6922644,-29.7700004577637
301.7078894,-30.7600002288818
301.7235144,-32.6500015258789
301.7391394,-34.75
301.7547644,-36.310001373291
301.7703894,-37.0999984741211
301.7860144,-37.5299987792969
301.8016394,-38.2799987792969
301.8172644,-39.7700004577637
301.8328894,-41.7099990844727
301.8485144,-43.2799987792969
301.8641394,-43.4700012207031
301.8797644,-41.2400016784668
301.8953894,-35.5999984741211
301.9110144,-25.9799995422363
301.9266394,-12.8100004196167
301.9422644,2.35999989509583
301.9578894,17.3400001525879
301.9735144,30.0599994659424
301.9891394,39.2999992370605
302.0047644,44.8499984741211
302.0203894,47.4300003051758
302.0360144,48.1100006103516
302.0516394,47.5299987792969
302.0672644,45.5999984741211
302.0828894,41.8400001525879
302.0985144,35.9900016784668
302.1141394,28.0499992370605
302.1297644,18.3500003814697
302.1453894,7.6100001335144
302.1610144,-2.99000000953674
302.1766394,-12.1199998855591
302.1922644,-18.8199996948242
302.2078894,-22.9400005340576
302.2235144,-25.2199993133545
302.2391394,-26.7199993133545
302.2547644,-28.0200004577637
302.2703894,-28.9599990844727
302.2860144,-29.0
302.3016394,-28.0499992370605
302.3172644,-26.8400001525879
302.3328894,-26.5799999237061
302.3485144,-28.1200008392334
302.3641394,-31.2099990844727
302.3797644,-34.7400016784668
302.3953894,-37.6199989318848
302.4110144,-39.3600006103516
302.4266394,-39.6500015258789
302.4422644,-37.8899993896484
302.4578894,-33.0499992370605
302.4735144,-24.3099994659424
302.4891394,-11.8900003433228
302.5047644,2.47000002861023
302.5203894,16.2900009155273
302.5360144,27.4899997711182
302.5516394,35.2099990844727
302.5672644,39.6500015258789
302.5828894,41.4599990844727
302.5985144,41.4099998474121
302.6141394,40.2299995422363
302.6297644,38.3699989318848
302.6453894,35.8699989318848
302.6610144,32.3899993896484
302.6766394,27.3700008392334
302.6922644,20.3400001525879
302.7078894,11.5
302.7235144,2.05999994277954
302.7391394,-6.05000019073486
302.7547644,-11.0
302.7703894,-12.0100002288818
302.7860144,-9.94999980926514
302.8016394,-7.01000022888184
302.8172644,-5.53000020980835
302.8328894,-6.6100001335144
302.8485144,-9.71000003814697
302.8641394,-13.4700002670288
302.8797644,-17.0100002288818
302.8953894,-20.2600002288818
302.9110144,-23.2900009155273
302.9266394,-25.7000007629395
302.9422644,-26.8099994659424
302.9578894,-26.2199993133545
302.9735144,-24.0400009155273
302.9891394,-20.5900001525879
303.0047644,-15.8699998855591
303.0203894,-9.53999996185303
303.0360144,-1.37999999523163
303.0516394,8.44999980926514
303.0672644,19.3299999237061
303.0828894,30.3199996948242
303.0985144,40.2400016784668
303.1141394,47.9599990844727
303.1297644,52.810001373291
303.1453894,54.8199996948242
303.1610144,54.4900016784668
303.1766394,52.3699989318848
303.1922644,48.6500015258789
303.2078894,43.1800003051758
303.2235144,35.7700004577637
303.2391394,26.5699996948242
303.2547644,16.3999996185303
303.2703894,6.61999988555908
303.2860144,-1.28999996185303
303.3016394,-6.46999979019165
303.3172644,-9.17000007629395
303.3328894,-10.6099996566772
303.3485144,-12.1599998474121
303.3641394,-14.6400003433228
303.3797644,-18.0400009155273
303.3953894,-21.7299995422363
303.4110144,-24.8099994659424
303.4266394,-26.6200008392334
303.4422644,-27.0400009155273
303.4578894,-26.4699993133545
303.4735144,-25.6200008392334
303.4891394,-25.0699996948242
303.5047644,-24.9200000762939
303.5203894,-24.9500007629395
303.5360144,-24.7299995422363
303.5516394,-23.6399993896484
303.5672644,-20.5400009155273
303.5828894,-14.0900001525879
303.5985144,-3.82999992370605
303.6141394,9.05000019073486
303.6297644,22.0799999237061
303.6453894,32.8499984741211
303.6610144,40.2299995422363
303.6766394,44.5800018310547
303.6922644,47.1100006103516
303.7078894,48.9900016784668
303.7235144,50.689998626709
303.7391394,51.7799987792969
303.7547644,51.2099990844727
303.7703894,48.0699996948242
303.7860144,42.0999984741211
303.8016394,33.7299995422363
303.8172644,23.8299999237061
303.8328894,13.4300003051758
303.8485144,3.48000001907349
303.8641394,-5.13000011444092
303.8797644,-11.6599998474121
303.8953894,-15.4899997711182
303.9110144,-16.4300003051758
303.9266394,-15.1400003433228
303.9422644,-13.1599998474121
303.9578894,-12.2299995422363
303.9735144,-13.1499996185303
303.9891394,-15.3500003814697
304.0047644,-17.6700000762939
304.0203894,-19.2900009155273
304.0360144,-20.0699996948242
304.0516394,-20.3999996185303
304.0672644,-20.7700004577637
304.0828894,-21.5900001525879
304.0985144,-22.8099994659424
304.1141394,-23.6299991607666
304.1297644,-22.5499992370605
304.1453894,-18.1200008392334
304.1610144,-9.94999980926514
304.1766394,0.800000011920929
304.1922644,12.1300001144409
304.2078894,22.1700000762939
304.2235144,30.0200004577637
304.2391394,35.7799987792969
304.2547644,40.1300010681152
304.2703894,43.5699996948242
304.2860144,45.939998626709
304.3016394,46.5699996948242
304.3172644,44.7799987792969
304.3328894,40.2799987792969
304.3485144,33.189998626709
304.3641394,24.1700000762939
304.3797644,14.3900003433228
304.3953894,5.19000005722046
304.4110144,-2.44000005722046
304.4266394,-8.22000026702881
304.4422644,-12.3699998855591
304.4578894,-15.5200004577637
304.4735144,-18.2600002288818
304.4891394,-20.8600006103516
304.5047644,-23.3099994659424
304.5203894,-25.4799995422363
304.5360144,-27.2299995422363
304.5516394,-28.4599990844727
304.5672644,-29.1599998474121
304.5828894,-29.3299999237061
304.5985144,-28.9899997711182
304.6141394,-28.2999992370605
304.6297644,-27.6599998474121
304.6453894,-27.4599990844727
304.6610144,-27.7600002288818
304.6766394,-28.3799991607666
304.6922644,-28.9200000762939
304.7078894,-28.4699993133545
304.7235144,-25.4899997711182
304.7391394,-18.7399997711182
304.7547644,-8.38000011444092
304.7703894,3.95000004768372
304.7860144,15.9899997711182
304.8016394,25.7700004577637
304.8172644,32.1399993896484
304.8328894,34.8699989318848
304.8485144,34.7000007629395
304.8641394,33.0
304.8797644,30.9300003051758
304.8953894,28.8899993896484
304.9110144,26.7199993133545
304.9266394,24.1000003814697
304.9422644,20.7600002288818
304.9578894,16.5499992370605
304.9735144,11.6000003814697
304.9891394,6.44000005722046
305.0047644,1.91999995708466
305.0203894,-1.25999999046326
305.0360144,-3.03999996185303
305.0516394,-4.07999992370605
305.0672644,-5.42000007629395
305.0828894,-7.78000020980835
305.0985144,-11.2399997711182
305.1141394,-15.3400001525879
305.1297644,-19.4599990844727
305.1453894,-23.1000003814697
305.1610144,-25.9200000762939
305.1766394,-27.7299995422363
305.1922644,-28.6200008392334
305.2078894,-28.9799995422363
305.2235144,-29.2299995422363
305.2391394,-29.5300006866455
305.2547644,-29.7900009155273
305.2703894,-29.6800003051758
305.2860144,-28.5400009155273
305.3016394,-25.5699996948242
305.3172644,-20.1900005340576
305.3328894,-12.5100002288818
305.3485144,-3.4300000667572
305.3641394,5.6399998664856
305.3797644,13.460000038147
305.3953894,19.5300006866455
305.4110144,24.2399997711182
305.4266394,28.25
305.4422644,31.4899997711182
305.4578894,33.0699996948242
305.4735144,32.0800018310547
305.4891394,28.4200000762939
305.5047644,22.7800006866455
305.5203894,16.1299991607666
305.5360144,9.35000038146973
305.5516394,3.13000011444092
305.5672644,-2.13000011444092
305.5828894,-6.30000019073486
305.5985144,-9.43000030517578
305.6141394,-11.6700000762939
305.6297644,-13.289999961853
305.6453894,-14.6800003051758
305.6610144,-16.2600002288818
305.6766394,-18.3099994659424
305.6922644,-20.7299995422363
305.7078894,-23.0900001525879
