Time(s),Value(%)
678.0066864,-20.2199993133545
678.0223114,-21.1100006103516
678.0379364,-19.6599998474121
678.0535614,-14.4499998092651
678.0691864,-5.21000003814697
678.0848114,7.34000015258789
678.1004364,22.3600006103516
678.1160614,39.1800003051758
678.1316864,56.8800010681152
678.1473114,73.7099990844727
678.1629364,87.1800003051758
678.1785614,95.3899993896484
678.1941864,98.2900009155273
678.2098114,97.1800003051758
678.2254364,93.3399963378906
678.2410614,87.3899993896484
678.2566864,79.7099990844727
678.2723114,70.370002746582
678.2879364,60.5800018310547
678.3035614,50.9700012207031
678.3191864,41.9300003051758
678.3348114,33.5699996948242
678.3504364,25.7999992370605
678.3660614,18.3799991607666
678.3816864,11.0799999237061
678.3973114,3.75
678.4129364,-3.66000008583069
678.4285614,-11.3000001907349
678.4441864,-19.5100002288818
678.4598114,-28.7600002288818
678.4754364,-39.3499984741211
678.4910614,-51.1800003051758
678.5066864,-63.6399993896484
678.5223114,-75.9300003051758
678.5379364,-87.4100036621094
678.5535614,-97.7900009155273
678.5691864,-107.139999389648
678.5848114,-115.709999084473
678.6004364,-123.800003051758
678.6160614,-131.619995117188
678.6316864,-139.179992675781
678.6473114,-146.309997558594
678.6629364,-152.720001220703
678.6785614,-158.169998168945
678.6941864,-162.570007324219
678.7098114,-165.910003662109
678.7254364,-168.070007324219
678.7410614,-168.970001220703
678.7566864,-168.770004272461
678.7723114,-167.949996948242
678.7879364,-167.089996337891
678.8035614,-166.679992675781
678.8191864,-166.820007324219
678.8348114,-167.320007324219
678.8504364,-167.889999389648
678.8660614,-168.369995117188
678.8816864,-168.910003662109
678.8973114,-169.740005493164
678.9129364,-170.979995727539
678.9285614,-172.550003051758
678.9441864,-174.199996948242
678.9598114,-175.740005493164
678.9754364,-176.960006713867
678.9910614,-177.630004882813
679.0066864,-177.429992675781
679.0223114,-176.050003051758
679.0379364,-173.429992675781
679.0535614,-169.770004272461
679.0691864,-165.440002441406
679.0848114,-160.789993286133
679.1004364,-156.080001831055
679.1160614,-151.440002441406
679.1316864,-146.889999389648
679.1473114,-142.330001831055
679.1629364,-137.600006103516
679.1785614,-132.539993286133
679.1941864,-127.089996337891
679.2098114,-121.129997253418
679.2254364,-114.339996337891
679.2410614,-106.410003662109
679.2566864,-97.3899993896484
679.2723114,-87.6999969482422
679.2879364,-78.2399978637695
679.3035614,-69.5599975585938
679.3191864,-61.7099990844727
679.3348114,-54.5400009155273
679.3504364,-48.1399993896484
679.3660614,-42.9799995422363
679.3816864,-39.5400009155273
679.3973114,-37.9599990844727
679.4129364,-37.8800010681152
679.4285614,-38.7099990844727
679.4441864,-40.060001373291
679.4598114,-42.0200004577637
679.4754364,-45.0800018310547
679.4910614,-49.5099983215332
679.5066864,-54.9099998474121
679.5223114,-60.3400001525879
679.5379364,-64.8899993896484
679.5535614,-68.1699981689453
679.5691864,-70.3399963378906
679.5848114,-72.0299987792969
679.6004364,-74.0999984741211
679.6160614,-77.1999969482422
679.6316864,-81.4800033569336
679.6473114,-86.8399963378906
679.6629364,-93.3399963378906
679.6785614,-101.059997558594
679.6941864,-109.709999084473
679.7098114,-118.160003662109
679.7254364,-124.639999389648
679.7410614,-127.790000915527
679.7566864,-127.599998474121
679.7723114,-125.029998779297
679.7879364,-120.959999084473
679.8035614,-115.720001220703
679.8191864,-109.389999389648
679.8348114,-102.180000305176
679.8504364,-94.379997253418
679.8660614,-86.0599975585938
679.8816864,-76.8199996948242
679.8973114,-66.1399993896484
679.9129364,-53.939998626709
679.9285614,-40.8400001525879
679.9441864,-27.8199996948242
679.9598114,-15.8000001907349
679.9754364,-5.21000003814697
679.9910614,3.96000003814697
680.0066864,11.8500003814697
680.0223114,18.4799995422363
680.0379364,23.7399997711182
680.0535614,27.6499996185303
680.0691864,30.6100006103516
680.0848114,33.2700004577637
680.1004364,36.189998626709
680.1160614,39.5800018310547
680.1316864,43.3199996948242
680.1473114,46.9700012207031
680.1629364,49.9599990844727
680.1785614,51.8300018310547
680.1941864,52.4700012207031
680.2098114,51.9500007629395
680.2254364,50.1500015258789
680.2410614,46.9300003051758
680.2566864,42.5099983215332
680.2723114,37.6100006103516
680.2879364,33.7999992370605
680.3035614,32.0299987792969
680.3191864,32.2599983215332
680.3348114,33.7700004577637
680.3504364,36.0499992370605
680.3660614,39.060001373291
680.3816864,42.8899993896484
680.3973114,47.439998626709
680.4129364,52.5
680.4285614,58.2200012207031
680.4441864,65.3899993896484
680.4598114,74.8899993896484
680.4754364,86.8499984741211
680.4910614,100.599998474121
680.5066864,115.150001525879
680.5223114,129.660003662109
680.5379364,143.5
680.5535614,156.020004272461
680.5691864,166.479995727539
680.5848114,174.25
680.6004364,179.25
680.6160614,181.899993896484
680.6316864,182.789993286133
680.6473114,182.449996948242
680.6629364,181.309997558594
680.6785614,179.75
680.6941864,178.009994506836
680.7098114,176.279998779297
680.7254364,174.610000610352
680.7410614,173.029998779297
680.7566864,171.470001220703
680.7723114,169.860000610352
680.7879364,168.070007324219
680.8035614,166.020004272461
680.8191864,163.720001220703
680.8348114,161.220001220703
680.8504364,158.630004882813
680.8660614,156.009994506836
680.8816864,153.360000610352
680.8973114,150.630004882813
680.9129364,147.809997558594
680.9285614,144.940002441406
680.9441864,142.089996337891
680.9598114,139.270004272461
680.9754364,136.520004272461
680.9910614,134.130004882813
681.0066864,132.649993896484
681.0223114,132.630004882813
681.0379364,134.149993896484
681.0535614,136.839996337891
681.0691864,140.199996948242
681.0848114,143.809997558594
681.1004364,147.309997558594
681.1160614,150.199996948242
681.1316864,151.75
681.1473114,151.270004272461
681.1629364,148.470001220703
681.1785614,143.529998779297
681.1941864,136.940002441406
681.2098114,129.270004272461
681.2254364,121.110000610352
681.2410614,112.910003662109
681.2566864,104.919998168945
681.2723114,96.370002746582
681.2879364,87.3000030517578
681.3035614,77.0500030517578
681.3191864,65.4300003051758
681.3348114,52.5800018310547
681.3504364,38.6100006103516
681.3660614,23.5699996948242
681.3816864,7.84999990463257
681.3973114,-7.53000020980835
681.4129364,-21.2299995422363
681.4285614,-32.4599990844727
681.4441864,-41.8199996948242
681.4598114,-50.560001373291
681.4754364,-59.2799987792969
681.4910614,-67.6399993896484
681.5066864,-74.9300003051758
681.5223114,-80.75
681.5379364,-85.25
681.5535614,-89.0299987792969
681.5691864,-92.9300003051758
681.5848114,-97.5400009155273
681.6004364,-103.0
681.6160614,-109.059997558594
681.6316864,-115.379997253418
681.6473114,-121.709999084473
681.6629364,-127.75
681.6785614,-132.679992675781
681.6941864,-135.160003662109
681.7098114,-134.100006103516
681.7254364,-129.669998168945
681.7410614,-123.129997253418
681.7566864,-116.01000213623
681.7723114,-109.480003356934
681.7879364,-104.339996337891
681.8035614,-100.910003662109
681.8191864,-98.9599990844727
681.8348114,-97.7399978637695
681.8504364,-96.3000030517578
681.8660614,-94.1999969482422
681.8816864,-91.7699966430664
681.8973114,-89.6500015258789
681.9129364,-87.9700012207031
681.9285614,-86.2699966430664
681.9441864,-83.9599990844727
681.9598114,-80.7900009155273
681.9754364,-76.9499969482422
681.9910614,-72.879997253418
682.0066864,-69.0500030517578
682.0223114,-65.7799987792969
682.0379364,-63.1199989318848
682.0535614,-61.0900001525879
682.0691864,-59.7900009155273
682.0848114,-59.3800010681152
682.1004364,-59.7400016784668
682.1160614,-60.2000007629395
682.1316864,-59.6300010681152
682.1473114,-57.0200004577637
682.1629364,-52.0800018310547
682.1785614,-45.2200012207031
682.1941864,-37.0900001525879
682.2098114,-28.2700004577637
682.2254364,-19.2099990844727
682.2410614,-10.2700004577637
682.2566864,-1.62999999523163
682.2723114,6.86999988555908
682.2879364,15.8400001525879
682.3035614,25.9400005340576
682.3191864,37.2999992370605
682.3348114,49.5400009155273
682.3504364,62.0699996948242
682.3660614,74.4300003051758
682.3816864,86.2099990844727
682.3973114,96.8399963378906
682.4129364,105.540000915527
682.4285614,111.669998168945
682.4441864,115.25
682.4598114,116.830001831055
682.4754364,117.089996337891
682.4910614,116.519996643066
682.5066864,115.410003662109
682.5223114,113.98999786377
682.5379364,112.339996337891
682.5535614,110.449996948242
682.5691864,108.150001525879
682.5848114,105.23999786377
682.6004364,101.690002441406
682.6160614,97.5599975585938
682.6316864,92.9400024414063
682.6473114,87.879997253418
682.6629364,82.5199966430664
682.6785614,77.0999984741211
682.6941864,71.9499969482422
682.7098114,67.2300033569336
682.7254364,62.7299995422363
682.7410614,58.1699981689453
682.7566864,53.4599990844727
682.7723114,48.7999992370605
682.7879364,44.4500007629395
682.8035614,40.5499992370605
682.8191864,37.060001373291
682.8348114,33.8400001525879
682.8504364,30.7399997711182
682.8660614,27.6700000762939
682.8816864,24.5499992370605
682.8973114,21.0599994659424
682.9129364,16.6200008392334
682.9285614,10.6499996185303
682.9441864,3.13000011444092
682.9598114,-5.23000001907349
682.9754364,-13.4499998092651
682.9910614,-20.9400005340576
683.0066864,-28.0100002288818
683.0223114,-35.2799987792969
683.0379364,-42.7099990844727
683.0535614,-49.5900001525879
683.0691864,-55.1800003051758
683.0848114,-59.2299995422363
683.1004364,-62.1199989318848
683.1160614,-64.8899993896484
683.1316864,-68.9599990844727
683.1473114,-75.4400024414063
683.1629364,-84.5699996948242
683.1785614,-96.1399993896484
683.1941864,-110.220001220703
683.2098114,-127.029998779297
683.2254364,-145.970001220703
683.2410614,-165.009994506836
683.2566864,-181.190002441406
683.2723114,-191.320007324219
683.2879364,-198.449996948242
683.3035614,-205.490005493164
683.3191864,-213.759994506836
683.3348114,-222.25
683.3504364,-229.080001831055
683.3660614,-233.100006103516
683.3816864,-234.490005493164
683.3973114,-234.820007324219
683.4129364,-236.470001220703
683.4285614,-241.369995117188
683.4441864,-249.940002441406
683.4598114,-261.649993896484
683.4754364,-275.950012207031
683.4910614,-292.529998779297
683.5066864,-310.359985351563
683.5223114,-326.470001220703
683.5379364,-327.679992675781
683.5535614,-327.679992675781
683.5691864,-325.720001220703
683.5848114,-308.859985351563
683.6004364,-288.75
683.6160614,-267.350006103516
683.6316864,-245.440002441406
683.6473114,-223.279998779297
683.6629364,-201.139999389648
683.6785614,-179.300003051758
683.6941864,-157.929992675781
683.7098114,-137.089996337891
683.7254364,-116.839996337891
683.7410614,-97.5
683.7566864,-79.6699981689453
683.7723114,-63.8699989318848
683.7879364,-50.1199989318848
683.8035614,-37.5699996948242
683.8191864,-24.7999992370605
683.8348114,-10.8599996566772
683.8504364,3.97000002861023
683.8660614,18.6700000762939
683.8816864,32.5099983215332
683.8973114,45.5400009155273
683.9129364,58.1800003051758
683.9285614,70.75
683.9441864,83.25
683.9598114,95.3399963378906
683.9754364,106.470001220703
683.9910614,116.209999084473
684.0066864,124.5
684.0223114,131.669998168945
684.0379364,138.220001220703
684.0535614,144.589996337891
684.0691864,151.089996337891
684.0848114,158.130004882813
684.1004364,166.520004272461
684.1160614,177.050003051758
684.1316864,189.919998168945
684.1473114,204.479995727539
684.1629364,219.479995727539
684.1785614,233.720001220703
684.1941864,246.5
684.2098114,257.75
684.2254364,267.730010986328
684.2410614,276.640014648438
684.2566864,284.510009765625
684.2723114,296.480010986328
684.2879364,307.140014648438
684.3035614,316.589996337891
684.3191864,324.970001220703
684.3348114,327.670013427734
684.3504364,327.670013427734
684.3660614,327.670013427734
684.3816864,327.670013427734
684.3973114,327.670013427734
684.4129364,327.670013427734
684.4285614,327.670013427734
684.4441864,327.670013427734
684.4598114,327.670013427734
684.4754364,327.670013427734
684.4910614,327.670013427734
684.5066864,327.670013427734
684.5223114,327.670013427734
684.5379364,327.670013427734
684.5535614,327.670013427734
684.5691864,327.670013427734
684.5848114,327.670013427734
684.6004364,327.670013427734
684.6160614,327.670013427734
684.6316864,327.670013427734
684.6473114,327.670013427734
684.6629364,327.529998779297
684.6785614,322.269989013672
684.6941864,317.160003662109
684.7098114,312.75
684.7254364,309.170013427734
684.7410614,306.260009765625
684.7566864,303.779998779297
684.7723114,301.549987792969
684.7879364,299.299987792969
684.8035614,296.359985351563
684.8191864,291.709991455078
684.8348114,284.619995117188
684.8504364,275.230010986328
684.8660614,264.369995117188
684.8816864,252.830001831055
684.8973114,240.970001220703
684.9129364,228.839996337891
684.9285614,216.399993896484
684.9441864,203.690002441406
684.9598114,190.839996337891
684.9754364,178.020004272461
684.9910614,165.369995117188
685.0066864,152.929992675781
685.0223114,140.779998779297
685.0379364,128.979995727539
685.0535614,117.639999389648
685.0691864,106.709999084473
685.0848114,95.870002746582
685.1004364,84.629997253418
685.1160614,72.629997253418
685.1316864,60.0099983215332
685.1473114,47.25
685.1629364,34.7400016784668
685.1785614,22.5799999237061
685.1941864,10.6700000762939
685.2098114,-1.10000002384186
685.2254364,-12.75
685.2410614,-23.9699993133545
685.2566864,-34.1300010681152
685.2723114,-43.310001373291
685.2879364,-50.9000015258789
685.3035614,-57.0800018310547
685.3191864,-62.1500015258789
685.3348114,-66.3499984741211
685.3504364,-70.0199966430664
685.3660614,-73.9300003051758
685.3816864,-79.2699966430664
685.3973114,-86.9199981689453
685.4129364,-96.8000030517578
685.4285614,-108.040000915527
685.4441864,-119.809997558594
685.4598114,-131.699996948242
685.4754364,-143.660003662109
685.4910614,-155.669998168945
685.5066864,-167.660003662109
685.5223114,-179.369995117188
685.5379364,-190.539993286133
685.5535614,-200.910003662109
685.5691864,-210.440002441406
685.5848114,-219.139999389648
685.6004364,-227.039993286133
685.6160614,-234.149993896484
685.6316864,-240.570007324219
685.6473114,-246.729995727539
685.6629364,-253.330001831055
685.6785614,-260.859985351563
685.6941864,-269.239990234375
685.7098114,-277.929992675781
685.7254364,-286.369995117188
685.7410614,-294.339996337891
685.7566864,-301.839996337891
685.7723114,-308.959991455078
685.7879364,-315.679992675781
685.8035614,-321.679992675781
685.8191864,-326.299987792969
685.8348114,-327.679992675781
685.8504364,-327.679992675781
685.8660614,-327.679992675781
685.8816864,-327.320007324219
685.8973114,-326.440002441406
685.9129364,-326.450012207031
685.9285614,-327.640014648438
685.9441864,-327.679992675781
685.9598114,-327.679992675781
685.9754364,-327.679992675781
685.9910614,-327.679992675781
686.0066864,-327.679992675781
686.0223114,-327.679992675781
686.0379364,-327.679992675781
686.0535614,-327.679992675781
686.0691864,-327.679992675781
686.0848114,-327.679992675781
686.1004364,-327.679992675781
686.1160614,-327.679992675781
686.1316864,-327.679992675781
686.1473114,-327.679992675781
686.1629364,-327.679992675781
686.1785614,-327.679992675781
686.1941864,-327.679992675781
686.2098114,-327.679992675781
686.2254364,-327.679992675781
686.2410614,-327.679992675781
686.2566864,-327.679992675781
686.2723114,-327.679992675781
686.2879364,-327.679992675781
686.3035614,-327.679992675781
686.3191864,-327.679992675781
686.3348114,-327.679992675781
686.3504364,-327.679992675781
686.3660614,-327.679992675781
686.3816864,-327.679992675781
686.3973114,-327.679992675781
686.4129364,-327.679992675781
686.4285614,-327.679992675781
686.4441864,-327.679992675781
686.4598114,-327.679992675781
686.4754364,-327.679992675781
686.4910614,-327.679992675781
686.5066864,-327.679992675781
686.5223114,-327.679992675781
686.5379364,-327.679992675781
686.5535614,-327.679992675781
686.5691864,-327.679992675781
686.5848114,-327.679992675781
686.6004364,-327.679992675781
686.6160614,-327.679992675781
686.6316864,-327.679992675781
686.6473114,-327.679992675781
686.6629364,-327.679992675781
686.6785614,-327.679992675781
686.6941864,-327.679992675781
686.7098114,-327.679992675781
686.7254364,-327.679992675781
686.7410614,-327.679992675781
686.7566864,-327.679992675781
686.7723114,-327.679992675781
686.7879364,-327.679992675781
686.8035614,-305.649993896484
686.8191864,-281.760009765625
686.8348114,-259.309997558594
686.8504364,-238.559997558594
686.8660614,-219.25
686.8816864,-201.059997558594
686.8973114,-183.789993286133
686.9129364,-166.929992675781
686.9285614,-148.720001220703
686.9441864,-125.910003662109
686.9598114,-95.4899978637695
686.9754364,-56.810001373291
686.9910614,-11.9499998092651
687.0066864,35.6800003051758
687.0223114,82.9899978637695
687.0379364,128.039993286133
687.0535614,170.149993896484
687.0691864,209.539993286133
687.0848114,246.830001831055
687.1004364,282.579986572266
687.1160614,317.130004882813
687.1316864,327.670013427734
687.1473114,327.670013427734
687.1629364,327.670013427734
687.1785614,327.670013427734
687.1941864,327.670013427734
687.2098114,327.670013427734
687.2254364,327.670013427734
687.2410614,327.670013427734
687.2566864,327.670013427734
687.2723114,327.670013427734
687.2879364,327.670013427734
687.3035614,327.670013427734
687.3191864,327.670013427734
687.3348114,327.670013427734
687.3504364,327.670013427734
687.3660614,327.670013427734
687.3816864,327.670013427734
687.3973114,327.670013427734
687.4129364,327.670013427734
687.4285614,327.670013427734
687.4441864,327.670013427734
687.4598114,327.670013427734
687.4754364,327.670013427734
687.4910614,327.670013427734
687.5066864,327.670013427734
687.5223114,327.670013427734
687.5379364,327.670013427734
687.5535614,327.670013427734
687.5691864,327.670013427734
687.5848114,327.670013427734
687.6004364,327.670013427734
687.6160614,327.670013427734
687.6316864,327.670013427734
687.6473114,327.670013427734
687.6629364,327.670013427734
687.6785614,327.670013427734
687.6941864,327.670013427734
687.7098114,327.670013427734
687.7254364,327.670013427734
687.7410614,327.670013427734
687.7566864,327.670013427734
687.7723114,327.670013427734
687.7879364,327.670013427734
687.8035614,327.670013427734
687.8191864,327.670013427734
687.8348114,327.670013427734
687.8504364,327.670013427734
687.8660614,327.670013427734
687.8816864,327.670013427734
687.8973114,327.670013427734
687.9129364,327.670013427734
687.9285614,327.670013427734
687.9441864,327.670013427734
687.9598114,327.670013427734
687.9754364,327.670013427734
687.9910614,327.670013427734
688.0066864,327.670013427734
688.0223114,293.010009765625
688.0379364,255.5
688.0535614,220.899993896484
688.0691864,188.949996948242
688.0848114,159.289993286133
688.1004364,131.330001831055
688.1160614,103.830001831055
688.1316864,74.7600021362305
688.1473114,42.3899993896484
688.1629364,6.63000011444092
688.1785614,-30.3700008392334
688.1941864,-65.3000030517578
688.2098114,-96.2399978637695
688.2254364,-124.319999694824
688.2410614,-152.020004272461
688.2566864,-180.380004882813
688.2723114,-209.020004272461
688.2879364,-237.970001220703
688.3035614,-268.109985351563
688.3191864,-299.75
688.3348114,-327.679992675781
688.3504364,-327.679992675781
688.3660614,-327.679992675781
688.3816864,-327.679992675781
688.3973114,-327.679992675781
688.4129364,-327.679992675781
688.4285614,-327.679992675781
688.4441864,-327.679992675781
688.4598114,-327.679992675781
688.4754364,-327.679992675781
688.4910614,-327.679992675781
688.5066864,-327.679992675781
688.5223114,-327.679992675781
688.5379364,-327.679992675781
688.5535614,-327.679992675781
688.5691864,-327.679992675781
688.5848114,-327.679992675781
688.6004364,-327.679992675781
688.6160614,-327.679992675781
688.6316864,-327.679992675781
688.6473114,-327.679992675781
688.6629364,-327.679992675781
688.6785614,-327.679992675781
688.6941864,-327.679992675781
688.7098114,-313.850006103516
