Time(s),Value(℃)
678.0066864,150.440002441406
678.0223114,151.410003662109
678.0379364,152.300003051758
678.0535614,153.100006103516
678.0691864,153.820007324219
678.0848114,154.449996948242
678.1004364,154.979995727539
678.1160614,155.440002441406
678.1316864,155.820007324219
678.1473114,156.149993896484
678.1629364,156.429992675781
678.1785614,156.669998168945
678.1941864,156.880004882813
678.2098114,157.070007324219
678.2254364,157.25
678.2410614,157.410003662109
678.2566864,157.559997558594
678.2723114,157.699996948242
678.2879364,157.830001831055
678.3035614,157.949996948242
678.3191864,158.070007324219
678.3348114,158.190002441406
678.3504364,158.289993286133
678.3660614,158.399993896484
678.3816864,158.5
678.3973114,158.589996337891
678.4129364,158.690002441406
678.4285614,158.779998779297
678.4441864,158.869995117188
678.4598114,158.949996948242
678.4754364,159.029998779297
678.4910614,159.110000610352
678.5066864,159.190002441406
678.5223114,159.270004272461
678.5379364,159.339996337891
678.5535614,159.410003662109
678.5691864,159.479995727539
678.5848114,159.550003051758
678.6004364,159.619995117188
678.6160614,159.679992675781
678.6316864,159.75
678.6473114,159.809997558594
678.6629364,159.869995117188
678.6785614,159.929992675781
678.6941864,159.990005493164
678.7098114,160.050003051758
678.7254364,160.100006103516
678.7410614,160.160003662109
678.7566864,160.210006713867
678.7723114,160.259994506836
678.7879364,160.309997558594
678.8035614,160.360000610352
678.8191864,160.410003662109
678.8348114,160.460006713867
678.8504364,160.5
678.8660614,160.550003051758
678.8816864,160.600006103516
678.8973114,160.639999389648
678.9129364,160.690002441406
678.9285614,160.740005493164
678.9441864,160.779998779297
678.9598114,160.830001831055
678.9754364,160.869995117188
678.9910614,160.919998168945
679.0066864,160.960006713867
679.0223114,161.0
679.0379364,161.050003051758
679.0535614,161.089996337891
679.0691864,161.130004882813
679.0848114,161.169998168945
679.1004364,161.210006713867
679.1160614,161.25
679.1316864,161.289993286133
679.1473114,161.330001831055
679.1629364,161.369995117188
679.1785614,161.410003662109
679.1941864,161.449996948242
679.2098114,161.490005493164
679.2254364,161.529998779297
679.2410614,161.570007324219
679.2566864,161.600006103516
679.2723114,161.639999389648
679.2879364,161.679992675781
679.3035614,161.710006713867
679.3191864,161.75
679.3348114,161.789993286133
679.3504364,161.820007324219
679.3660614,161.860000610352
679.3816864,161.889999389648
679.3973114,161.929992675781
679.4129364,161.960006713867
679.4285614,162.0
679.4441864,162.029998779297
679.4598114,162.070007324219
679.4754364,162.100006103516
679.4910614,162.139999389648
679.5066864,162.169998168945
679.5223114,162.210006713867
679.5379364,162.240005493164
679.5535614,162.270004272461
679.5691864,162.309997558594
679.5848114,162.339996337891
679.6004364,162.380004882813
679.6160614,162.410003662109
679.6316864,162.449996948242
679.6473114,162.479995727539
679.6629364,162.509994506836
679.6785614,162.550003051758
679.6941864,162.580001831055
679.7098114,162.610000610352
679.7254364,162.639999389648
679.7410614,162.669998168945
679.7566864,162.710006713867
679.7723114,162.740005493164
679.7879364,162.770004272461
679.8035614,162.800003051758
679.8191864,162.830001831055
679.8348114,162.850006103516
679.8504364,162.880004882813
679.8660614,162.910003662109
679.8816864,162.940002441406
679.8973114,162.960006713867
679.9129364,162.990005493164
679.9285614,163.020004272461
679.9441864,163.039993286133
679.9598114,163.070007324219
679.9754364,163.089996337891
679.9910614,163.119995117188
680.0066864,163.139999389648
680.0223114,163.160003662109
680.0379364,163.190002441406
680.0535614,163.210006713867
680.0691864,163.240005493164
680.0848114,163.259994506836
680.1004364,163.279998779297
680.1160614,163.309997558594
680.1316864,163.330001831055
680.1473114,163.350006103516
680.1629364,163.369995117188
680.1785614,163.389999389648
680.1941864,163.410003662109
680.2098114,163.440002441406
680.2254364,163.460006713867
680.2410614,163.479995727539
680.2566864,163.5
680.2723114,163.529998779297
680.2879364,163.550003051758
680.3035614,163.570007324219
680.3191864,163.589996337891
680.3348114,163.610000610352
680.3504364,163.630004882813
680.3660614,163.649993896484
680.3816864,163.669998168945
680.3973114,163.690002441406
680.4129364,163.710006713867
680.4285614,163.729995727539
680.4441864,163.75
680.4598114,163.759994506836
680.4754364,163.779998779297
680.4910614,163.800003051758
680.5066864,163.820007324219
680.5223114,163.830001831055
680.5379364,163.850006103516
680.5535614,163.869995117188
680.5691864,163.880004882813
680.5848114,163.899993896484
680.6004364,163.919998168945
680.6160614,163.940002441406
680.6316864,163.949996948242
680.6473114,163.970001220703
680.6629364,163.979995727539
680.6785614,164.0
680.6941864,164.020004272461
680.7098114,164.039993286133
680.7254364,164.050003051758
680.7410614,164.070007324219
680.7566864,164.089996337891
680.7723114,164.110000610352
680.7879364,164.119995117188
680.8035614,164.139999389648
680.8191864,164.160003662109
680.8348114,164.169998168945
680.8504364,164.190002441406
680.8660614,164.210006713867
680.8816864,164.229995727539
680.8973114,164.240005493164
680.9129364,164.259994506836
680.9285614,164.279998779297
680.9441864,164.289993286133
680.9598114,164.309997558594
680.9754364,164.330001831055
680.9910614,164.350006103516
681.0066864,164.369995117188
681.0223114,164.380004882813
681.0379364,164.399993896484
681.0535614,164.419998168945
681.0691864,164.440002441406
681.0848114,164.460006713867
681.1004364,164.479995727539
681.1160614,164.5
681.1316864,164.509994506836
681.1473114,164.529998779297
681.1629364,164.550003051758
681.1785614,164.570007324219
681.1941864,164.580001831055
681.2098114,164.600006103516
681.2254364,164.619995117188
681.2410614,164.639999389648
681.2566864,164.660003662109
681.2723114,164.679992675781
681.2879364,164.690002441406
681.3035614,164.710006713867
681.3191864,164.729995727539
681.3348114,164.75
681.3504364,164.770004272461
681.3660614,164.779998779297
681.3816864,164.800003051758
681.3973114,164.820007324219
681.4129364,164.839996337891
681.4285614,164.860000610352
681.4441864,164.880004882813
681.4598114,164.899993896484
681.4754364,164.929992675781
681.4910614,164.949996948242
681.5066864,164.970001220703
681.5223114,164.990005493164
681.5379364,165.009994506836
681.5535614,165.029998779297
681.5691864,165.050003051758
681.5848114,165.070007324219
681.6004364,165.089996337891
681.6160614,165.110000610352
681.6316864,165.130004882813
681.6473114,165.149993896484
681.6629364,165.169998168945
681.6785614,165.190002441406
681.6941864,165.210006713867
681.7098114,165.229995727539
681.7254364,165.25
681.7410614,165.270004272461
681.7566864,165.289993286133
681.7723114,165.309997558594
681.7879364,165.330001831055
681.8035614,165.350006103516
681.8191864,165.369995117188
681.8348114,165.389999389648
681.8504364,165.410003662109
681.8660614,165.429992675781
681.8816864,165.449996948242
681.8973114,165.470001220703
681.9129364,165.490005493164
681.9285614,165.509994506836
681.9441864,165.529998779297
681.9598114,165.550003051758
681.9754364,165.559997558594
681.9910614,165.580001831055
682.0066864,165.600006103516
682.0223114,165.619995117188
682.0379364,165.639999389648
682.0535614,165.660003662109
682.0691864,165.679992675781
682.0848114,165.699996948242
682.1004364,165.710006713867
682.1160614,165.729995727539
682.1316864,165.75
682.1473114,165.770004272461
682.1629364,165.789993286133
682.1785614,165.809997558594
682.1941864,165.830001831055
682.2098114,165.850006103516
682.2254364,165.880004882813
682.2410614,165.899993896484
682.2566864,165.919998168945
682.2723114,165.940002441406
682.2879364,165.960006713867
682.3035614,165.979995727539
682.3191864,166.0
682.3348114,166.029998779297
682.3504364,166.050003051758
682.3660614,166.070007324219
682.3816864,166.089996337891
682.3973114,166.110000610352
682.4129364,166.130004882813
682.4285614,166.149993896484
682.4441864,166.169998168945
682.4598114,166.190002441406
682.4754364,166.210006713867
682.4910614,166.229995727539
682.5066864,166.25
682.5223114,166.270004272461
682.5379364,166.289993286133
682.5535614,166.320007324219
682.5691864,166.339996337891
682.5848114,166.360000610352
682.6004364,166.380004882813
682.6160614,166.399993896484
682.6316864,166.419998168945
682.6473114,166.440002441406
682.6629364,166.460006713867
682.6785614,166.479995727539
682.6941864,166.5
682.7098114,166.520004272461
682.7254364,166.539993286133
682.7410614,166.559997558594
682.7566864,166.580001831055
682.7723114,166.600006103516
682.7879364,166.619995117188
682.8035614,166.639999389648
682.8191864,166.660003662109
682.8348114,166.679992675781
682.8504364,166.710006713867
682.8660614,166.729995727539
682.8816864,166.75
682.8973114,166.770004272461
682.9129364,166.800003051758
682.9285614,166.820007324219
682.9441864,166.839996337891
682.9598114,166.860000610352
682.9754364,166.880004882813
682.9910614,166.899993896484
683.0066864,166.919998168945
683.0223114,166.940002441406
683.0379364,166.960006713867
683.0535614,166.979995727539
683.0691864,166.990005493164
683.0848114,167.0
683.1004364,167.020004272461
683.1160614,167.029998779297
683.1316864,167.039993286133
683.1473114,167.050003051758
683.1629364,167.070007324219
683.1785614,167.080001831055
683.1941864,167.100006103516
683.2098114,167.110000610352
683.2254364,167.130004882813
683.2410614,167.139999389648
683.2566864,167.160003662109
683.2723114,167.179992675781
683.2879364,167.190002441406
683.3035614,167.210006713867
683.3191864,167.220001220703
683.3348114,167.240005493164
683.3504364,167.25
683.3660614,167.270004272461
683.3816864,167.279998779297
683.3973114,167.300003051758
683.4129364,167.309997558594
683.4285614,167.320007324219
683.4441864,167.339996337891
683.4598114,167.350006103516
683.4754364,167.369995117188
683.4910614,167.380004882813
683.5066864,167.389999389648
683.5223114,167.410003662109
683.5379364,167.419998168945
683.5535614,167.429992675781
683.5691864,167.449996948242
683.5848114,167.460006713867
683.6004364,167.479995727539
683.6160614,167.490005493164
683.6316864,167.509994506836
683.6473114,167.520004272461
683.6629364,167.539993286133
683.6785614,167.559997558594
683.6941864,167.580001831055
683.7098114,167.589996337891
683.7254364,167.610000610352
683.7410614,167.619995117188
683.7566864,167.639999389648
683.7723114,167.649993896484
683.7879364,167.669998168945
683.8035614,167.679992675781
683.8191864,167.699996948242
683.8348114,167.710006713867
683.8504364,167.729995727539
683.8660614,167.740005493164
683.8816864,167.759994506836
683.8973114,167.770004272461
683.9129364,167.789993286133
683.9285614,167.800003051758
683.9441864,167.820007324219
683.9598114,167.839996337891
683.9754364,167.860000610352
683.9910614,167.880004882813
684.0066864,167.899993896484
684.0223114,167.919998168945
684.0379364,167.940002441406
684.0535614,167.970001220703
684.0691864,167.990005493164
684.0848114,168.009994506836
684.1004364,168.020004272461
684.1160614,168.039993286133
684.1316864,168.059997558594
684.1473114,168.070007324219
684.1629364,168.089996337891
684.1785614,168.110000610352
684.1941864,168.119995117188
684.2098114,168.139999389648
684.2254364,168.149993896484
684.2410614,168.169998168945
684.2566864,168.179992675781
684.2723114,168.199996948242
684.2879364,168.220001220703
684.3035614,168.229995727539
684.3191864,168.25
684.3348114,168.259994506836
684.3504364,168.279998779297
684.3660614,168.300003051758
684.3816864,168.309997558594
684.3973114,168.330001831055
684.4129364,168.339996337891
684.4285614,168.360000610352
684.4441864,168.380004882813
684.4598114,168.389999389648
684.4754364,168.410003662109
684.4910614,168.419998168945
684.5066864,168.440002441406
684.5223114,168.460006713867
684.5379364,168.470001220703
684.5535614,168.490005493164
684.5691864,168.5
684.5848114,168.520004272461
684.6004364,168.529998779297
684.6160614,168.550003051758
684.6316864,168.559997558594
684.6473114,168.580001831055
684.6629364,168.589996337891
684.6785614,168.610000610352
684.6941864,168.619995117188
684.7098114,168.639999389648
684.7254364,168.649993896484
684.7410614,168.669998168945
684.7566864,168.679992675781
684.7723114,168.699996948242
684.7879364,168.710006713867
684.8035614,168.729995727539
684.8191864,168.740005493164
684.8348114,168.759994506836
684.8504364,168.779998779297
684.8660614,168.789993286133
684.8816864,168.800003051758
684.8973114,168.820007324219
684.9129364,168.830001831055
684.9285614,168.850006103516
684.9441864,168.869995117188
684.9598114,168.880004882813
684.9754364,168.899993896484
684.9910614,168.919998168945
685.0066864,168.929992675781
685.0223114,168.949996948242
685.0379364,168.970001220703
685.0535614,168.979995727539
685.0691864,169.0
685.0848114,169.020004272461
685.1004364,169.029998779297
685.1160614,169.050003051758
685.1316864,169.070007324219
685.1473114,169.080001831055
685.1629364,169.100006103516
685.1785614,169.119995117188
685.1941864,169.130004882813
685.2098114,169.149993896484
685.2254364,169.169998168945
685.2410614,169.179992675781
685.2566864,169.199996948242
685.2723114,169.220001220703
685.2879364,169.229995727539
685.3035614,169.25
685.3191864,169.270004272461
685.3348114,169.279998779297
685.3504364,169.300003051758
685.3660614,169.320007324219
685.3816864,169.330001831055
685.3973114,169.350006103516
685.4129364,169.360000610352
685.4285614,169.380004882813
685.4441864,169.389999389648
685.4598114,169.410003662109
685.4754364,169.419998168945
685.4910614,169.440002441406
685.5066864,169.449996948242
685.5223114,169.470001220703
685.5379364,169.479995727539
685.5535614,169.5
685.5691864,169.509994506836
685.5848114,169.529998779297
685.6004364,169.539993286133
685.6160614,169.550003051758
685.6316864,169.570007324219
685.6473114,169.580001831055
685.6629364,169.600006103516
685.6785614,169.610000610352
685.6941864,169.619995117188
685.7098114,169.639999389648
685.7254364,169.649993896484
685.7410614,169.660003662109
685.7566864,169.679992675781
685.7723114,169.690002441406
685.7879364,169.710006713867
685.8035614,169.720001220703
685.8191864,169.740005493164
685.8348114,169.75
685.8504364,169.770004272461
685.8660614,169.779998779297
685.8816864,169.789993286133
685.8973114,169.800003051758
685.9129364,169.820007324219
685.9285614,169.830001831055
685.9441864,169.839996337891
685.9598114,169.850006103516
685.9754364,169.869995117188
685.9910614,169.880004882813
686.0066864,169.889999389648
686.0223114,169.899993896484
686.0379364,169.919998168945
686.0535614,169.929992675781
686.0691864,169.940002441406
686.0848114,169.960006713867
686.1004364,169.970001220703
686.1160614,169.990005493164
686.1316864,170.0
686.1473114,170.020004272461
686.1629364,170.029998779297
686.1785614,170.039993286133
686.1941864,170.059997558594
686.2098114,170.070007324219
686.2254364,170.089996337891
686.2410614,170.100006103516
686.2566864,170.110000610352
686.2723114,170.130004882813
686.2879364,170.139999389648
686.3035614,170.160003662109
686.3191864,170.169998168945
686.3348114,170.179992675781
686.3504364,170.199996948242
686.3660614,170.210006713867
686.3816864,170.229995727539
686.3973114,170.240005493164
686.4129364,170.25
686.4285614,170.270004272461
686.4441864,170.279998779297
686.4598114,170.300003051758
686.4754364,170.309997558594
686.4910614,170.320007324219
686.5066864,170.339996337891
686.5223114,170.350006103516
686.5379364,170.369995117188
686.5535614,170.380004882813
686.5691864,170.399993896484
686.5848114,170.410003662109
686.6004364,170.429992675781
686.6160614,170.440002441406
686.6316864,170.460006713867
686.6473114,170.479995727539
686.6629364,170.490005493164
686.6785614,170.509994506836
686.6941864,170.520004272461
686.7098114,170.529998779297
686.7254364,170.550003051758
686.7410614,170.559997558594
686.7566864,170.570007324219
686.7723114,170.589996337891
686.7879364,170.600006103516
686.8035614,170.610000610352
686.8191864,170.630004882813
686.8348114,170.639999389648
686.8504364,170.660003662109
686.8660614,170.669998168945
686.8816864,170.679992675781
686.8973114,170.699996948242
686.9129364,170.710006713867
686.9285614,170.729995727539
686.9441864,170.740005493164
686.9598114,170.75
686.9754364,170.770004272461
686.9910614,170.779998779297
687.0066864,170.789993286133
687.0223114,170.800003051758
687.0379364,170.809997558594
687.0535614,170.820007324219
687.0691864,170.830001831055
687.0848114,170.850006103516
687.1004364,170.860000610352
687.1160614,170.869995117188
687.1316864,170.880004882813
687.1473114,170.889999389648
687.1629364,170.899993896484
687.1785614,170.910003662109
687.1941864,170.919998168945
687.2098114,170.929992675781
687.2254364,170.940002441406
687.2410614,170.949996948242
687.2566864,170.960006713867
687.2723114,170.970001220703
687.2879364,170.979995727539
687.3035614,170.990005493164
687.3191864,171.0
687.3348114,171.009994506836
687.3504364,171.020004272461
687.3660614,171.039993286133
687.3816864,171.050003051758
687.3973114,171.059997558594
687.4129364,171.070007324219
687.4285614,171.080001831055
687.4441864,171.089996337891
687.4598114,171.100006103516
687.4754364,171.110000610352
687.4910614,171.119995117188
687.5066864,171.130004882813
687.5223114,171.139999389648
687.5379364,171.149993896484
687.5535614,171.160003662109
687.5691864,171.169998168945
687.5848114,171.179992675781
687.6004364,171.190002441406
687.6160614,171.199996948242
687.6316864,171.210006713867
687.6473114,171.220001220703
687.6629364,171.229995727539
687.6785614,171.240005493164
687.6941864,171.25
687.7098114,171.25
687.7254364,171.259994506836
687.7410614,171.270004272461
687.7566864,171.279998779297
687.7723114,171.289993286133
687.7879364,171.300003051758
687.8035614,171.309997558594
687.8191864,171.320007324219
687.8348114,171.330001831055
687.8504364,171.339996337891
687.8660614,171.350006103516
687.8816864,171.350006103516
687.8973114,171.360000610352
687.9129364,171.369995117188
687.9285614,171.380004882813
687.9441864,171.389999389648
687.9598114,171.399993896484
687.9754364,171.410003662109
687.9910614,171.429992675781
688.0066864,171.440002441406
688.0223114,171.449996948242
688.0379364,171.460006713867
688.0535614,171.470001220703
688.0691864,171.479995727539
688.0848114,171.490005493164
688.1004364,171.509994506836
688.1160614,171.520004272461
688.1316864,171.529998779297
688.1473114,171.539993286133
688.1629364,171.550003051758
688.1785614,171.559997558594
688.1941864,171.570007324219
688.2098114,171.580001831055
688.2254364,171.589996337891
688.2410614,171.600006103516
688.2566864,171.610000610352
688.2723114,171.619995117188
688.2879364,171.619995117188
688.3035614,171.630004882813
688.3191864,171.639999389648
688.3348114,171.649993896484
688.3504364,171.649993896484
688.3660614,171.660003662109
688.3816864,171.669998168945
688.3973114,171.679992675781
688.4129364,171.679992675781
688.4285614,171.690002441406
688.4441864,171.699996948242
688.4598114,171.710006713867
688.4754364,171.710006713867
688.4910614,171.720001220703
688.5066864,171.729995727539
688.5223114,171.729995727539
688.5379364,171.740005493164
688.5535614,171.75
688.5691864,171.75
688.5848114,171.759994506836
688.6004364,171.770004272461
688.6160614,171.779998779297
688.6316864,171.779998779297
688.6473114,171.789993286133
688.6629364,171.800003051758
688.6785614,171.809997558594
688.6941864,171.809997558594
688.7098114,171.820007324219
688.7254364,171.830001831055
688.7410614,171.839996337891
688.7566864,171.850006103516
688.7723114,171.860000610352
688.7879364,171.869995117188
688.8035614,171.880004882813
688.8191864,171.889999389648
688.8348114,171.899993896484
688.8504364,171.899993896484
688.8660614,171.910003662109
688.8816864,171.919998168945
688.8973114,171.929992675781
688.9129364,171.940002441406
688.9285614,171.940002441406
688.9441864,171.949996948242
