Time(s),Value(%)
710.0022828,-28.6599998474121
710.0179078,-24.2600002288818
710.0335328,-20.4599990844727
710.0491578,-16.4099998474121
710.0647828,-9.81999969482422
710.0804078,3.25999999046326
710.0960328,26.3500003814697
710.1116578,59.3300018310547
710.1272828,97.629997253418
710.1429078,134.419998168945
710.1585328,163.759994506836
710.1741578,182.449996948242
710.1897828,190.179992675781
710.2054078,188.320007324219
710.2210328,178.910003662109
710.2366578,164.339996337891
710.2522828,146.949996948242
710.2679078,128.470001220703
710.2835328,109.849998474121
710.2991578,91.4300003051758
710.3147828,73.2200012207031
710.3304078,55.25
710.3460328,37.8600006103516
710.3616578,21.7700004577637
710.3772828,7.92999982833862
710.3929078,-2.90000009536743
710.4085328,-10.6000003814697
710.4241578,-15.7399997711182
710.4397828,-19.3500003814697
710.4554078,-22.5499992370605
710.4710328,-26.25
710.4866578,-30.9400005340576
710.5022828,-36.6500015258789
710.5179078,-43.1100006103516
710.5335328,-49.9500007629395
710.5491578,-56.8600006103516
710.5647828,-63.6500015258789
710.5804078,-70.370002746582
710.5960328,-77.2300033569336
710.6116578,-84.1900024414063
710.6272828,-90.7399978637695
710.6429078,-96.1699981689453
710.6585328,-99.879997253418
710.6741578,-101.589996337891
710.6897828,-101.419998168945
710.7054078,-99.7300033569336
710.7210328,-96.9499969482422
710.7366578,-93.4899978637695
710.7522828,-89.5999984741211
710.7679078,-85.2099990844727
710.7835328,-80.0800018310547
710.7991578,-74.0699996948242
710.8147828,-67.4100036621094
710.8304078,-60.5499992370605
710.8460328,-53.9599990844727
710.8616578,-47.8600006103516
710.8772828,-42.2599983215332
710.8929078,-37.1100006103516
710.9085328,-32.4099998474121
710.9241578,-28.1599998474121
710.9397828,-24.1200008392334
710.9554078,-19.3700008392334
710.9710328,-11.3599996566772
710.9866578,4.3600001335144
711.0022828,31.4899997711182
711.0179078,69.2399978637695
711.0335328,111.660003662109
711.0491578,150.649993896484
711.0647828,179.720001220703
711.0804078,196.050003051758
711.0960328,200.300003051758
711.1116578,194.979995727539
711.1272828,182.800003051758
711.1429078,165.869995117188
711.1585328,145.809997558594
711.1741578,124.050003051758
711.1897828,101.849998474121
711.2054078,80.1800003051758
711.2210328,59.7099990844727
711.2366578,40.939998626709
711.2522828,24.4699993133545
711.2679078,11.0299997329712
711.2835328,1.10000002384186
711.2991578,-5.46000003814697
711.3147828,-9.39000034332275
711.3304078,-11.8599996566772
711.3460328,-14.1700000762939
711.3616578,-17.3400001525879
711.3772828,-21.8400001525879
711.3929078,-27.5400009155273
711.4085328,-33.9900016784668
711.4241578,-40.8400001525879
711.4397828,-47.9900016784668
711.4554078,-55.439998626709
711.4710328,-63.0699996948242
711.4866578,-70.5699996948242
711.5022828,-77.5400009155273
711.5179078,-83.4300003051758
711.5335328,-87.8300018310547
711.5491578,-90.5299987792969
711.5647828,-91.5699996948242
711.5804078,-91.0599975585938
711.5960328,-89.1399993896484
711.6116578,-85.9899978637695
711.6272828,-81.7300033569336
711.6429078,-76.4899978637695
711.6585328,-70.5
711.6741578,-64.1900024414063
711.6897828,-58.0
711.7054078,-52.2400016784668
711.7210328,-47.0900001525879
711.7366578,-42.6599998474121
711.7522828,-38.9000015258789
711.7679078,-35.6300010681152
711.7835328,-32.6100006103516
711.7991578,-29.6900005340576
711.8147828,-26.6100006103516
711.8304078,-22.3500003814697
711.8460328,-14.3599996566772
711.8616578,1.03999996185303
711.8772828,26.6200008392334
711.8929078,61.7200012207031
711.9085328,101.480003356934
711.9241578,138.710006713867
711.9397828,167.100006103516
711.9554078,183.259994506836
711.9710328,186.990005493164
711.9866578,180.309997558594
712.0022828,166.149993896484
712.0179078,147.25
712.0335328,125.669998168945
712.0491578,102.860000610352
712.0647828,79.8300018310547
712.0804078,57.310001373291
712.0960328,35.9000015258789
712.1116578,16.4099998474121
712.1272828,-0.0099999997764825
712.1429078,-12.2700004577637
712.1585328,-19.8700008392334
712.1741578,-23.2800006866455
712.1897828,-23.8400001525879
712.2054078,-23.2299995422363
712.2210328,-23.0799999237061
712.2366578,-24.5499992370605
712.2522828,-28.1000003814697
712.2679078,-33.4700012207031
712.2835328,-40.0200004577637
712.2991578,-47.0800018310547
712.3147828,-54.2700004577637
712.3304078,-61.439998626709
712.3460328,-68.5999984741211
712.3616578,-75.6100006103516
712.3772828,-82.0299987792969
712.3929078,-87.2799987792969
712.4085328,-91.0
712.4241578,-93.129997253418
712.4397828,-93.8099975585938
712.4554078,-93.2099990844727
712.4710328,-91.4800033569336
712.4866578,-88.9199981689453
712.5022828,-85.8099975585938
712.5179078,-82.129997253418
712.5335328,-77.6900024414063
712.5491578,-72.4000015258789
712.5647828,-66.4199981689453
712.5804078,-60.1100006103516
712.5960328,-53.9000015258789
712.6116578,-48.0299987792969
712.6272828,-42.4300003051758
712.6429078,-36.9199981689453
712.6585328,-31.3899993896484
712.6741578,-25.9899997711182
712.6897828,-20.9799995422363
712.7054078,-16.5799999237061
712.7210328,-12.6400003433228
712.7366578,-8.10999965667725
712.7522828,-0.550000011920929
712.7679078,14.1000003814697
712.7835328,39.7700004577637
712.7991578,76.9800033569336
712.8147828,121.110000610352
712.8304078,164.100006103516
712.8460328,198.350006103516
712.8616578,219.380004882813
712.8772828,226.179992675781
712.8929078,220.440002441406
712.9085328,205.470001220703
712.9241578,184.919998168945
712.9397828,161.720001220703
712.9554078,137.779998779297
712.9710328,114.089996337891
712.9866578,91.2099990844727
713.0022828,69.6900024414063
713.0179078,49.9700012207031
713.0335328,32.1500015258789
713.0491578,16.2099990844727
713.0647828,2.39000010490417
713.0804078,-8.8100004196167
713.0960328,-16.9899997711182
713.1116578,-22.2299995422363
713.1272828,-25.3199996948242
713.1429078,-27.4799995422363
713.1585328,-29.9300003051758
713.1741578,-33.5
713.1897828,-38.5800018310547
713.2054078,-45.2400016784668
713.2210328,-53.25
713.2366578,-62.2200012207031
713.2522828,-71.7600021362305
713.2679078,-81.3899993896484
713.2835328,-90.5299987792969
713.2991578,-98.5500030517578
713.3147828,-105.029998779297
713.3304078,-109.690002441406
713.3460328,-112.569999694824
713.3616578,-114.019996643066
713.3772828,-114.419998168945
713.3929078,-113.800003051758
713.4085328,-111.959999084473
713.4241578,-108.650001525879
713.4397828,-103.75
713.4554078,-97.379997253418
713.4710328,-89.9100036621094
713.4866578,-81.9199981689453
713.5022828,-74.0800018310547
713.5179078,-66.8000030517578
713.5335328,-60.0200004577637
713.5491578,-53.4599990844727
713.5647828,-46.9799995422363
713.5804078,-40.7099990844727
713.5960328,-34.9799995422363
713.6116578,-30.1700000762939
713.6272828,-26.3799991607666
713.6429078,-23.0900001525879
713.6585328,-19.1299991607666
713.6741578,-12.460000038147
713.6897828,0.219999998807907
713.7054078,22.9300003051758
713.7210328,57.4799995422363
713.7366578,99.620002746582
713.7522828,140.550003051758
713.7679078,173.210006713867
713.7835328,195.330001831055
713.7991578,207.559997558594
713.8147828,211.220001220703
713.8304078,207.389999389648
713.8460328,196.869995117188
713.8616578,180.490005493164
713.8772828,159.309997558594
713.8929078,134.860000610352
713.9085328,109.120002746582
713.9241578,83.9199981689453
713.9397828,60.5200004577637
713.9554078,39.5499992370605
713.9710328,21.3199996948242
713.9866578,6.09999990463257
714.0022828,-5.82000017166138
714.0179078,-14.1800003051758
714.0335328,-19.1399993896484
714.0491578,-21.5599994659424
714.0647828,-22.8799991607666
714.0804078,-24.4899997711182
714.0960328,-27.2999992370605
714.1116578,-31.7299995422363
714.1272828,-37.8600006103516
714.1429078,-45.439998626709
714.1585328,-53.9199981689453
714.1741578,-62.6100006103516
714.1897828,-70.9700012207031
714.2054078,-78.6900024414063
714.2210328,-85.6600036621094
714.2366578,-91.7900009155273
714.2522828,-96.9400024414063
714.2679078,-101.110000610352
714.2835328,-104.290000915527
714.2991578,-106.23999786377
714.3147828,-106.580001831055
714.3304078,-105.110000610352
714.3460328,-101.900001525879
714.3616578,-97.2600021362305
714.3772828,-91.6399993896484
714.3929078,-85.4100036621094
714.4085328,-78.6999969482422
714.4241578,-71.5800018310547
714.4397828,-64.129997253418
714.4554078,-56.5299987792969
714.4710328,-48.9799995422363
714.4866578,-41.6599998474121
714.5022828,-34.810001373291
714.5179078,-28.7000007629395
714.5335328,-23.5
714.5491578,-19.1700000762939
714.5647828,-15.539999961853
714.5804078,-12.4099998474121
714.5960328,-9.35999965667725
714.6116578,-4.86999988555908
714.6272828,4.65999984741211
714.6429078,24.0799999237061
714.6585328,56.3899993896484
714.6741578,99.6100006103516
714.6897828,146.130004882813
714.7054078,186.039993286133
714.7210328,211.779998779297
714.7366578,220.929992675781
714.7522828,215.699996948242
714.7679078,200.570007324219
714.7835328,179.940002441406
714.7991578,156.809997558594
714.8147828,132.759994506836
714.8304078,108.5
714.8460328,84.4300003051758
714.8616578,61.0299987792969
714.8772828,39.0400009155273
714.8929078,19.5100002288818
714.9085328,3.73000001907349
714.9241578,-7.28999996185303
714.9397828,-13.3199996948242
714.9554078,-15.0600004196167
714.9710328,-13.8800001144409
714.9866578,-11.6300001144409
715.0022828,-10.3000001907349
715.0179078,-11.4499998092651
715.0335328,-15.789999961853
715.0491578,-23.1299991607666
715.0647828,-32.6300010681152
715.0804078,-43.1100006103516
715.0960328,-53.2999992370605
715.1116578,-62.4000015258789
715.1272828,-70.4899978637695
715.1429078,-78.0899963378906
715.1585328,-85.4599990844727
715.1741578,-92.1900024414063
715.1897828,-97.4700012207031
715.2054078,-100.589996337891
715.2210328,-101.129997253418
715.2366578,-99.120002746582
715.2522828,-95.0599975585938
715.2679078,-89.879997253418
715.2835328,-84.5100021362305
715.2991578,-79.3499984741211
715.3147828,-74.2399978637695
715.3304078,-68.9000015258789
715.3460328,-63.2999992370605
715.3616578,-57.6800003051758
715.3772828,-52.5099983215332
715.3929078,-48.2599983215332
715.4085328,-45.1699981689453
715.4241578,-43.060001373291
715.4397828,-41.310001373291
715.4554078,-39.1399993896484
715.4710328,-35.5900001525879
715.4866578,-28.75
715.5022828,-14.5600004196167
715.5179078,12.0699996948242
715.5335328,52.4500007629395
715.5491578,100.319999694824
715.5647828,144.419998168945
715.5804078,174.75
715.5960328,187.0
715.6116578,182.940002441406
715.6272828,167.759994506836
715.6429078,147.0
715.6585328,124.629997253418
715.6741578,102.48999786377
715.6897828,80.9199981689453
715.7054078,59.75
715.7210328,38.9700012207031
715.7366578,19.1299991607666
715.7522828,1.23000001907349
715.7679078,-13.5200004577637
715.7835328,-24.2600002288818
715.7991578,-30.6900005340576
715.8147828,-33.1599998474121
715.8304078,-32.5099983215332
715.8460328,-29.8299999237061
715.8616578,-26.3899993896484
715.8772828,-23.5699996948242
715.8929078,-22.5400009155273
715.9085328,-23.8799991607666
715.9241578,-27.4200000762939
715.9397828,-32.6100006103516
715.9554078,-38.7599983215332
715.9710328,-45.3800010681152
715.9866578,-52.1699981689453
716.0022828,-59.0
716.0179078,-65.7799987792969
716.0335328,-72.120002746582
716.0491578,-77.2099990844727
716.0647828,-80.2699966430664
716.0804078,-80.9700012207031
716.0960328,-79.4499969482422
716.1116578,-76.1600036621094
716.1272828,-71.5899963378906
716.1429078,-66.0999984741211
716.1585328,-59.7799987792969
716.1741578,-52.560001373291
716.1897828,-44.5699996948242
716.2054078,-36.2000007629395
716.2210328,-27.9599990844727
716.2366578,-20.3199996948242
716.2522828,-13.6999998092651
716.2679078,-8.46000003814697
716.2835328,-4.65999984741211
716.2991578,-1.78999996185303
716.3147828,1.39999997615814
716.3304078,7.42000007629395
716.3460328,20.0
716.3616578,43.2099990844727
716.3772828,79.0199966430664
716.3929078,123.970001220703
716.4085328,168.910003662109
716.4241578,203.550003051758
716.4397828,221.559997558594
716.4554078,222.470001220703
716.4710328,210.110000610352
716.4866578,189.800003051758
716.5022828,166.100006103516
716.5179078,141.970001220703
716.5335328,118.870002746582
716.5491578,97.1800003051758
716.5647828,76.5599975585938
716.5804078,56.5299987792969
716.5960328,36.9500007629395
716.6116578,18.1200008392334
716.6272828,0.769999980926514
716.6429078,-14.1899995803833
716.6585328,-25.9599990844727
716.6741578,-34.1300010681152
716.6897828,-38.9099998474121
716.7054078,-41.2099990844727
716.7210328,-42.3499984741211
716.7366578,-43.6800003051758
716.7522828,-46.2200012207031
716.7679078,-50.5499992370605
716.7835328,-56.7700004577637
716.7991578,-64.5100021362305
716.8147828,-73.0400009155273
716.8304078,-81.5800018310547
716.8460328,-89.5100021362305
716.8616578,-96.5199966430664
716.8772828,-102.519996643066
716.8929078,-107.639999389648
716.9085328,-112.0
716.9241578,-115.48999786377
716.9397828,-117.730003356934
716.9554078,-118.360000610352
716.9710328,-117.180000305176
716.9866578,-114.26000213623
717.0022828,-109.819999694824
717.0179078,-103.940002441406
717.0335328,-96.7099990844727
717.0491578,-88.5100021362305
717.0647828,-80.0199966430664
717.0804078,-71.8000030517578
717.0960328,-64.1100006103516
717.1116578,-56.9700012207031
717.1272828,-50.310001373291
717.1429078,-44.1599998474121
717.1585328,-38.6699981689453
717.1741578,-33.8699989318848
717.1897828,-29.2299995422363
717.2054078,-23.2600002288818
717.2210328,-12.9700002670288
717.2366578,5.6399998664856
717.2522828,35.4099998474121
717.2679078,75.1500015258789
717.2835328,118.819999694824
717.2991578,158.089996337891
717.3147828,186.009994506836
717.3304078,199.020004272461
717.3460328,197.509994506836
717.3616578,184.850006103516
717.3772828,165.429992675781
717.3929078,142.940002441406
717.4085328,119.599998474121
717.4241578,96.4400024414063
717.4397828,74.0699996948242
717.4554078,53.0699996948242
717.4710328,34.0999984741211
717.4866578,17.75
717.5022828,4.55000019073486
717.5179078,-5.0
717.5335328,-10.6599998474121
717.5491578,-12.6899995803833
717.5647828,-12.0
717.5804078,-10.1300001144409
717.5960328,-8.76000022888184
717.6116578,-9.25
717.6272828,-12.2200002670288
717.6429078,-17.5599994659424
717.6585328,-24.7299995422363
717.6741578,-33.1300010681152
717.6897828,-42.1100006103516
717.7054078,-51.0400009155273
717.7210328,-59.2599983215332
717.7366578,-66.25
717.7522828,-71.7799987792969
717.7679078,-75.9300003051758
717.7835328,-79.0299987792969
717.7991578,-81.5
717.8147828,-83.4599990844727
717.8304078,-84.5100021362305
717.8460328,-84.0500030517578
717.8616578,-81.8199996948242
717.8772828,-78.0100021362305
717.8929078,-73.1800003051758
717.9085328,-68.0
717.9241578,-62.9000015258789
717.9397828,-57.9700012207031
717.9554078,-53.0999984741211
717.9710328,-48.1699981689453
717.9866578,-42.9900016784668
718.0022828,-37.2000007629395
718.0179078,-29.5799999237061
718.0335328,-17.0200004577637
718.0491578,5.11999988555908
718.0647828,39.310001373291
718.0804078,82.0199966430664
718.0960328,124.76000213623
718.1116578,158.559997558594
718.1272828,178.100006103516
718.1429078,182.889999389648
718.1585328,175.949996948242
718.1741578,161.520004272461
718.1897828,143.149993896484
718.2054078,123.0
718.2210328,102.160003662109
718.2366578,81.2300033569336
718.2522828,60.7099990844727
718.2679078,41.2099990844727
718.2835328,23.3899993896484
718.2991578,7.84000015258789
718.3147828,-4.82000017166138
718.3304078,-14.0200004577637
718.3460328,-19.4400005340576
718.3616578,-21.4899997711182
718.3772828,-21.3500003814697
718.3929078,-20.5599994659424
718.4085328,-20.5599994659424
718.4241578,-22.3099994659424
718.4397828,-26.1499996185303
718.4554078,-31.8099994659424
718.4710328,-38.6199989318848
718.4866578,-45.9599990844727
718.5022828,-53.3899993896484
718.5179078,-60.6500015258789
718.5335328,-67.5100021362305
718.5491578,-73.8399963378906
718.5647828,-79.4899978637695
718.5804078,-84.0800018310547
718.5960328,-87.1699981689453
718.6116578,-88.4899978637695
718.6272828,-88.0800018310547
718.6429078,-86.2600021362305
718.6585328,-83.4499969482422
718.6741578,-79.9199981689453
718.6897828,-75.6399993896484
718.7054078,-70.4100036621094
718.7210328,-64.1800003051758
718.7366578,-57.1599998474121
718.7522828,-49.8499984741211
718.7679078,-42.7900009155273
718.7835328,-36.4500007629395
718.7991578,-31.0799999237061
718.8147828,-26.5200004577637
718.8304078,-21.7199993133545
718.8460328,-14.3800001144409
718.8616578,-0.819999992847443
718.8772828,22.7399997711182
718.8929078,57.3800010681152
718.9085328,99.6399993896484
718.9241578,142.100006103516
718.9397828,176.149993896484
718.9554078,195.850006103516
718.9710328,200.009994506836
718.9866578,191.369995117188
719.0022828,174.440002441406
719.0179078,153.520004272461
719.0335328,131.5
719.0491578,109.660003662109
719.0647828,88.3199996948242
719.0804078,67.6900024414063
719.0960328,48.1500015258789
719.1116578,30.2000007629395
719.1272828,14.3400001525879
719.1429078,1.11000001430511
719.1585328,-9.02000045776367
719.1741578,-15.9700002670288
719.1897828,-20.1299991607666
719.2054078,-22.4099998474121
719.2210328,-23.9500007629395
719.2366578,-25.7600002288818
719.2522828,-28.5
719.2679078,-32.4700012207031
719.2835328,-37.7000007629395
719.2991578,-44.0800018310547
719.3147828,-51.3400001525879
719.3304078,-58.9599990844727
719.3460328,-66.3899993896484
719.3616578,-73.1500015258789
719.3772828,-78.9199981689453
719.3929078,-83.620002746582
719.4085328,-87.4599990844727
719.4241578,-90.620002746582
719.4397828,-92.9199981689453
719.4554078,-94.0
719.4710328,-93.5999984741211
719.4866578,-91.620002746582
719.5022828,-88.1100006103516
719.5179078,-83.3199996948242
719.5335328,-77.6500015258789
719.5491578,-71.5599975585938
719.5647828,-65.379997253418
719.5804078,-59.25
719.5960328,-53.1800003051758
719.6116578,-47.1800003051758
719.6272828,-41.2999992370605
719.6429078,-35.6399993896484
719.6585328,-30.1399993896484
719.6741578,-23.7600002288818
719.6897828,-13.4899997711182
719.7054078,4.90999984741211
719.7210328,34.0999984741211
719.7366578,72.2600021362305
719.7522828,113.019996643066
719.7679078,148.309997558594
719.7835328,172.0
719.7991578,181.75
719.8147828,178.839996337891
719.8304078,166.949996948242
719.8460328,150.279998779297
719.8616578,131.839996337891
719.8772828,112.949996948242
719.8929078,93.7799987792969
719.9085328,74.1699981689453
719.9241578,54.2299995422363
719.9397828,34.6399993896484
719.9554078,16.5599994659424
719.9710328,1.22000002861023
719.9866578,-10.4399995803833
720.0022828,-17.9099998474121
720.0179078,-21.2999992370605
720.0335328,-21.4699993133545
720.0491578,-19.9200000762939
720.0647828,-18.3400001525879
720.0804078,-18.1299991607666
720.0960328,-20.0
720.1116578,-24.0400009155273
720.1272828,-29.8799991607666
720.1429078,-36.9500007629395
720.1585328,-44.6100006103516
720.1741578,-52.4700012207031
720.1897828,-60.25
720.2054078,-67.5599975585938
720.2210328,-73.870002746582
720.2366578,-78.75
720.2522828,-82.0899963378906
720.2679078,-83.9899978637695
720.2835328,-84.4899978637695
720.2991578,-83.5199966430664
720.3147828,-81.0699996948242
720.3304078,-77.629997253418
720.3460328,-73.9000015258789
720.3616578,-70.1500015258789
720.3772828,-66.129997253418
720.3929078,-61.5200004577637
720.4085328,-56.2400016784668
720.4241578,-50.5499992370605
720.4397828,-44.8699989318848
720.4554078,-39.5900001525879
720.4710328,-34.810001373291
720.4866578,-30.4200000762939
720.5022828,-26.3299999237061
720.5179078,-22.3500003814697
720.5335328,-17.5799999237061
720.5491578,-9.73999977111816
720.5647828,5.38000011444092
720.5804078,32.2400016784668
720.5960328,71.1500015258789
720.6116578,115.73999786377
720.6272828,156.009994506836
720.6429078,183.720001220703
720.6585328,195.619995117188
720.6741578,193.300003051758
720.6897828,180.929992675781
720.7054078,162.949996948242
720.7210328,142.550003051758
720.7366578,121.449996948242
