Time(s),Value(℃)
1020.0066864,165.630004882813
1020.0223114,165.509994506836
1020.0379364,165.380004882813
1020.0535614,165.220001220703
1020.0691864,165.039993286133
1020.0848114,164.839996337891
1020.1004364,164.619995117188
1020.1160614,164.389999389648
1020.1316864,164.149993896484
1020.1473114,163.899993896484
1020.1629364,163.630004882813
1020.1785614,163.360000610352
1020.1941864,163.089996337891
1020.2098114,162.800003051758
1020.2254364,162.5
1020.2410614,162.199996948242
1020.2566864,161.889999389648
1020.2723114,161.570007324219
1020.2879364,161.240005493164
1020.3035614,160.910003662109
1020.3191864,160.570007324219
1020.3348114,160.220001220703
1020.3504364,159.869995117188
1020.3660614,159.509994506836
1020.3816864,159.139999389648
1020.3973114,158.770004272461
1020.4129364,158.389999389648
1020.4285614,158.009994506836
1020.4441864,157.619995117188
1020.4598114,157.229995727539
1020.4754364,156.839996337891
1020.4910614,156.440002441406
1020.5066864,156.029998779297
1020.5223114,155.619995117188
1020.5379364,155.210006713867
1020.5535614,154.789993286133
1020.5691864,154.369995117188
1020.5848114,153.949996948242
1020.6004364,153.520004272461
1020.6160614,153.089996337891
1020.6316864,152.660003662109
1020.6473114,152.220001220703
1020.6629364,151.779998779297
1020.6785614,151.330001831055
1020.6941864,150.880004882813
1020.7098114,150.429992675781
1020.7254364,149.970001220703
1020.7410614,149.520004272461
1020.7566864,149.070007324219
1020.7723114,148.610000610352
1020.7879364,148.160003662109
1020.8035614,147.710006713867
1020.8191864,147.259994506836
1020.8348114,146.820007324219
1020.8504364,146.369995117188
1020.8660614,145.929992675781
1020.8816864,145.5
1020.8973114,145.070007324219
1020.9129364,144.649993896484
1020.9285614,144.25
1020.9441864,143.860000610352
1020.9598114,143.5
1020.9754364,143.160003662109
1020.9910614,142.839996337891
1021.0066864,142.539993286133
1021.0223114,142.259994506836
1021.0379364,142.0
1021.0535614,141.75
1021.0691864,141.509994506836
1021.0848114,141.289993286133
1021.1004364,141.070007324219
1021.1160614,140.869995117188
1021.1316864,140.669998168945
1021.1473114,140.479995727539
1021.1629364,140.289993286133
1021.1785614,140.119995117188
1021.1941864,139.949996948242
1021.2098114,139.779998779297
1021.2254364,139.630004882813
1021.2410614,139.479995727539
1021.2566864,139.330001831055
1021.2723114,139.199996948242
1021.2879364,139.059997558594
1021.3035614,138.940002441406
1021.3191864,138.820007324219
1021.3348114,138.699996948242
1021.3504364,138.589996337891
1021.3660614,138.490005493164
1021.3816864,138.389999389648
1021.3973114,138.289993286133
1021.4129364,138.199996948242
1021.4285614,138.119995117188
1021.4441864,138.039993286133
1021.4598114,137.970001220703
1021.4754364,137.910003662109
1021.4910614,137.860000610352
1021.5066864,137.809997558594
1021.5223114,137.759994506836
1021.5379364,137.720001220703
1021.5535614,137.690002441406
1021.5691864,137.649993896484
1021.5848114,137.619995117188
1021.6004364,137.580001831055
1021.6160614,137.550003051758
1021.6316864,137.509994506836
1021.6473114,137.470001220703
1021.6629364,137.419998168945
1021.6785614,137.380004882813
1021.6941864,137.339996337891
1021.7098114,137.300003051758
1021.7254364,137.25
1021.7410614,137.210006713867
1021.7566864,137.169998168945
1021.7723114,137.130004882813
1021.7879364,137.100006103516
1021.8035614,137.059997558594
1021.8191864,137.020004272461
1021.8348114,136.979995727539
1021.8504364,136.949996948242
1021.8660614,136.910003662109
1021.8816864,136.869995117188
1021.8973114,136.839996337891
1021.9129364,136.800003051758
1021.9285614,136.770004272461
1021.9441864,136.729995727539
1021.9598114,136.699996948242
1021.9754364,136.660003662109
1021.9910614,136.630004882813
1022.0066864,136.589996337891
1022.0223114,136.559997558594
1022.0379364,136.520004272461
1022.0535614,136.490005493164
1022.0691864,136.460006713867
1022.0848114,136.429992675781
1022.1004364,136.410003662109
1022.1160614,136.389999389648
1022.1316864,136.369995117188
1022.1473114,136.350006103516
1022.1629364,136.339996337891
1022.1785614,136.330001831055
1022.1941864,136.320007324219
1022.2098114,136.309997558594
1022.2254364,136.300003051758
1022.2410614,136.300003051758
1022.2566864,136.289993286133
1022.2723114,136.289993286133
1022.2879364,136.279998779297
1022.3035614,136.279998779297
1022.3191864,136.279998779297
1022.3348114,136.270004272461
1022.3504364,136.270004272461
1022.3660614,136.259994506836
1022.3816864,136.25
1022.3973114,136.229995727539
1022.4129364,136.210006713867
1022.4285614,136.190002441406
1022.4441864,136.160003662109
1022.4598114,136.130004882813
1022.4754364,136.100006103516
1022.4910614,136.070007324219
1022.5066864,136.039993286133
1022.5223114,136.0
1022.5379364,135.979995727539
1022.5535614,135.949996948242
1022.5691864,135.940002441406
1022.5848114,135.919998168945
1022.6004364,135.910003662109
1022.6160614,135.899993896484
1022.6316864,135.899993896484
1022.6473114,135.889999389648
1022.6629364,135.889999389648
1022.6785614,135.889999389648
1022.6941864,135.880004882813
1022.7098114,135.889999389648
1022.7254364,135.889999389648
1022.7410614,135.889999389648
1022.7566864,135.889999389648
1022.7723114,135.899993896484
1022.7879364,135.910003662109
1022.8035614,135.919998168945
1022.8191864,135.919998168945
1022.8348114,135.940002441406
1022.8504364,135.949996948242
1022.8660614,135.960006713867
1022.8816864,135.970001220703
1022.8973114,135.990005493164
1022.9129364,136.0
1022.9285614,136.020004272461
1022.9441864,136.039993286133
1022.9598114,136.050003051758
1022.9754364,136.070007324219
1022.9910614,136.080001831055
1023.0066864,136.100006103516
1023.0223114,136.110000610352
1023.0379364,136.130004882813
1023.0535614,136.139999389648
1023.0691864,136.160003662109
1023.0848114,136.179992675781
1023.1004364,136.199996948242
1023.1160614,136.220001220703
1023.1316864,136.240005493164
1023.1473114,136.259994506836
1023.1629364,136.279998779297
1023.1785614,136.300003051758
1023.1941864,136.330001831055
1023.2098114,136.350006103516
1023.2254364,136.380004882813
1023.2410614,136.399993896484
1023.2566864,136.429992675781
1023.2723114,136.449996948242
1023.2879364,136.479995727539
1023.3035614,136.5
1023.3191864,136.529998779297
1023.3348114,136.550003051758
1023.3504364,136.580001831055
1023.3660614,136.610000610352
1023.3816864,136.630004882813
1023.3973114,136.660003662109
1023.4129364,136.679992675781
1023.4285614,136.710006713867
1023.4441864,136.729995727539
1023.4598114,136.75
1023.4754364,136.770004272461
1023.4910614,136.779998779297
1023.5066864,136.789993286133
1023.5223114,136.800003051758
1023.5379364,136.800003051758
1023.5535614,136.800003051758
1023.5691864,136.789993286133
1023.5848114,136.779998779297
1023.6004364,136.770004272461
1023.6160614,136.75
1023.6316864,136.729995727539
1023.6473114,136.699996948242
1023.6629364,136.679992675781
1023.6785614,136.649993896484
1023.6941864,136.630004882813
1023.7098114,136.600006103516
1023.7254364,136.580001831055
1023.7410614,136.550003051758
1023.7566864,136.529998779297
1023.7723114,136.5
1023.7879364,136.479995727539
1023.8035614,136.460006713867
1023.8191864,136.429992675781
1023.8348114,136.410003662109
1023.8504364,136.389999389648
1023.8660614,136.369995117188
1023.8816864,136.350006103516
1023.8973114,136.330001831055
1023.9129364,136.309997558594
1023.9285614,136.289993286133
1023.9441864,136.270004272461
1023.9598114,136.25
1023.9754364,136.220001220703
1023.9910614,136.199996948242
1024.0066864,136.179992675781
1024.0223114,136.160003662109
1024.0379364,136.130004882813
1024.0535614,136.110000610352
1024.0691864,136.089996337891
1024.0848114,136.059997558594
1024.1004364,136.039993286133
1024.1160614,136.009994506836
1024.1316864,135.990005493164
1024.1473114,135.970001220703
1024.1629364,135.940002441406
1024.1785614,135.919998168945
1024.1941864,135.899993896484
1024.2098114,135.880004882813
1024.2254364,135.860000610352
1024.2410614,135.839996337891
1024.2566864,135.830001831055
1024.2723114,135.809997558594
1024.2879364,135.800003051758
1024.3035614,135.789993286133
1024.3191864,135.779998779297
1024.3348114,135.779998779297
1024.3504364,135.770004272461
1024.3660614,135.770004272461
1024.3816864,135.779998779297
1024.3973114,135.779998779297
1024.4129364,135.789993286133
1024.4285614,135.809997558594
1024.4441864,135.830001831055
1024.4598114,135.850006103516
1024.4754364,135.880004882813
1024.4910614,135.919998168945
1024.5066864,135.970001220703
1024.5223114,136.020004272461
1024.5379364,136.080001831055
1024.5535614,136.149993896484
1024.5691864,136.220001220703
1024.5848114,136.289993286133
1024.6004364,136.369995117188
1024.6160614,136.449996948242
1024.6316864,136.529998779297
1024.6473114,136.619995117188
1024.6629364,136.699996948242
1024.6785614,136.789993286133
1024.6941864,136.880004882813
1024.7098114,136.960006713867
1024.7254364,137.050003051758
1024.7410614,137.139999389648
1024.7566864,137.229995727539
1024.7723114,137.330001831055
1024.7879364,137.419998168945
1024.8035614,137.509994506836
1024.8191864,137.610000610352
1024.8348114,137.710006713867
1024.8504364,137.809997558594
1024.8660614,137.910003662109
1024.8816864,138.009994506836
1024.8973114,138.119995117188
1024.9129364,138.220001220703
1024.9285614,138.330001831055
1024.9441864,138.429992675781
1024.9598114,138.529998779297
1024.9754364,138.630004882813
1024.9910614,138.740005493164
1025.0066864,138.839996337891
1025.0223114,138.940002441406
1025.0379364,139.039993286133
1025.0535614,139.139999389648
1025.0691864,139.229995727539
1025.0848114,139.330001831055
1025.1004364,139.429992675781
1025.1160614,139.520004272461
1025.1316864,139.610000610352
1025.1473114,139.710006713867
1025.1629364,139.800003051758
1025.1785614,139.889999389648
1025.1941864,139.979995727539
1025.2098114,140.080001831055
1025.2254364,140.169998168945
1025.2410614,140.259994506836
1025.2566864,140.350006103516
1025.2723114,140.440002441406
1025.2879364,140.529998779297
1025.3035614,140.619995117188
1025.3191864,140.720001220703
1025.3348114,140.809997558594
1025.3504364,140.899993896484
1025.3660614,140.990005493164
1025.3816864,141.080001831055
1025.3973114,141.169998168945
1025.4129364,141.259994506836
1025.4285614,141.350006103516
1025.4441864,141.440002441406
1025.4598114,141.520004272461
1025.4754364,141.600006103516
1025.4910614,141.679992675781
1025.5066864,141.759994506836
1025.5223114,141.839996337891
1025.5379364,141.919998168945
1025.5535614,141.990005493164
1025.5691864,142.070007324219
1025.5848114,142.139999389648
1025.6004364,142.210006713867
1025.6160614,142.270004272461
1025.6316864,142.339996337891
1025.6473114,142.410003662109
1025.6629364,142.470001220703
1025.6785614,142.529998779297
1025.6941864,142.589996337891
1025.7098114,142.649993896484
1025.7254364,142.710006713867
1025.7410614,142.759994506836
1025.7566864,142.809997558594
1025.7723114,142.860000610352
1025.7879364,142.910003662109
1025.8035614,142.949996948242
1025.8191864,142.990005493164
1025.8348114,143.029998779297
1025.8504364,143.070007324219
1025.8660614,143.110000610352
1025.8816864,143.139999389648
1025.8973114,143.179992675781
1025.9129364,143.210006713867
1025.9285614,143.25
1025.9441864,143.279998779297
1025.9598114,143.309997558594
1025.9754364,143.339996337891
1025.9910614,143.369995117188
1026.0066864,143.399993896484
1026.0223114,143.440002441406
1026.0379364,143.470001220703
1026.0535614,143.5
1026.0691864,143.520004272461
1026.0848114,143.550003051758
1026.1004364,143.580001831055
1026.1160614,143.600006103516
1026.1316864,143.619995117188
1026.1473114,143.649993896484
1026.1629364,143.669998168945
1026.1785614,143.690002441406
1026.1941864,143.710006713867
1026.2098114,143.729995727539
1026.2254364,143.75
1026.2410614,143.770004272461
1026.2566864,143.789993286133
1026.2723114,143.800003051758
1026.2879364,143.820007324219
1026.3035614,143.830001831055
1026.3191864,143.839996337891
1026.3348114,143.850006103516
1026.3504364,143.860000610352
1026.3660614,143.869995117188
1026.3816864,143.880004882813
1026.3973114,143.889999389648
1026.4129364,143.899993896484
1026.4285614,143.910003662109
1026.4441864,143.910003662109
1026.4598114,143.919998168945
1026.4754364,143.929992675781
1026.4910614,143.940002441406
1026.5066864,143.949996948242
1026.5223114,143.960006713867
1026.5379364,143.970001220703
1026.5535614,143.970001220703
1026.5691864,143.979995727539
1026.5848114,143.990005493164
1026.6004364,143.990005493164
1026.6160614,144.0
1026.6316864,144.0
1026.6473114,144.009994506836
1026.6629364,144.009994506836
1026.6785614,144.020004272461
1026.6941864,144.020004272461
1026.7098114,144.029998779297
1026.7254364,144.039993286133
1026.7410614,144.039993286133
1026.7566864,144.050003051758
1026.7723114,144.059997558594
1026.7879364,144.070007324219
1026.8035614,144.080001831055
1026.8191864,144.089996337891
1026.8348114,144.100006103516
1026.8504364,144.110000610352
1026.8660614,144.119995117188
1026.8816864,144.130004882813
1026.8973114,144.139999389648
1026.9129364,144.149993896484
1026.9285614,144.160003662109
1026.9441864,144.169998168945
1026.9598114,144.179992675781
1026.9754364,144.190002441406
1026.9910614,144.199996948242
1027.0066864,144.210006713867
1027.0223114,144.220001220703
1027.0379364,144.229995727539
1027.0535614,144.240005493164
1027.0691864,144.25
1027.0848114,144.259994506836
1027.1004364,144.270004272461
1027.1160614,144.279998779297
1027.1316864,144.289993286133
1027.1473114,144.309997558594
1027.1629364,144.320007324219
1027.1785614,144.330001831055
1027.1941864,144.339996337891
1027.2098114,144.350006103516
1027.2254364,144.360000610352
1027.2410614,144.369995117188
1027.2566864,144.380004882813
1027.2723114,144.399993896484
1027.2879364,144.410003662109
1027.3035614,144.429992675781
1027.3191864,144.449996948242
1027.3348114,144.470001220703
1027.3504364,144.490005493164
1027.3660614,144.509994506836
1027.3816864,144.529998779297
1027.3973114,144.550003051758
1027.4129364,144.570007324219
1027.4285614,144.589996337891
1027.4441864,144.610000610352
1027.4598114,144.630004882813
1027.4754364,144.649993896484
1027.4910614,144.669998168945
1027.5066864,144.690002441406
1027.5223114,144.710006713867
1027.5379364,144.729995727539
1027.5535614,144.75
1027.5691864,144.770004272461
1027.5848114,144.789993286133
1027.6004364,144.809997558594
1027.6160614,144.830001831055
1027.6316864,144.850006103516
1027.6473114,144.869995117188
1027.6629364,144.880004882813
1027.6785614,144.899993896484
1027.6941864,144.910003662109
1027.7098114,144.919998168945
1027.7254364,144.929992675781
1027.7410614,144.940002441406
1027.7566864,144.949996948242
1027.7723114,144.960006713867
1027.7879364,144.970001220703
1027.8035614,144.970001220703
1027.8191864,144.979995727539
1027.8348114,144.979995727539
1027.8504364,144.979995727539
1027.8660614,144.990005493164
1027.8816864,144.990005493164
1027.8973114,144.990005493164
1027.9129364,144.990005493164
1027.9285614,144.990005493164
1027.9441864,144.979995727539
1027.9598114,144.979995727539
1027.9754364,144.979995727539
1027.9910614,144.970001220703
1028.0066864,144.970001220703
1028.0223114,144.960006713867
1028.0379364,144.949996948242
1028.0535614,144.940002441406
1028.0691864,144.929992675781
1028.0848114,144.919998168945
1028.1004364,144.919998168945
1028.1160614,144.910003662109
1028.1316864,144.899993896484
1028.1473114,144.889999389648
1028.1629364,144.889999389648
1028.1785614,144.880004882813
1028.1941864,144.869995117188
1028.2098114,144.869995117188
1028.2254364,144.860000610352
1028.2410614,144.839996337891
1028.2566864,144.830001831055
1028.2723114,144.820007324219
1028.2879364,144.800003051758
1028.3035614,144.789993286133
1028.3191864,144.770004272461
1028.3348114,144.759994506836
1028.3504364,144.740005493164
1028.3660614,144.729995727539
1028.3816864,144.710006713867
1028.3973114,144.699996948242
1028.4129364,144.679992675781
1028.4285614,144.669998168945
1028.4441864,144.660003662109
1028.4598114,144.649993896484
1028.4754364,144.639999389648
1028.4910614,144.619995117188
1028.5066864,144.610000610352
1028.5223114,144.600006103516
1028.5379364,144.589996337891
1028.5535614,144.580001831055
1028.5691864,144.559997558594
1028.5848114,144.550003051758
1028.6004364,144.539993286133
1028.6160614,144.529998779297
1028.6316864,144.520004272461
1028.6473114,144.520004272461
1028.6629364,144.509994506836
1028.6785614,144.509994506836
1028.6941864,144.5
1028.7098114,144.5
1028.7254364,144.5
1028.7410614,144.509994506836
1028.7566864,144.509994506836
1028.7723114,144.520004272461
1028.7879364,144.529998779297
1028.8035614,144.539993286133
1028.8191864,144.550003051758
1028.8348114,144.559997558594
1028.8504364,144.570007324219
1028.8660614,144.589996337891
1028.8816864,144.600006103516
1028.8973114,144.619995117188
1028.9129364,144.639999389648
1028.9285614,144.660003662109
1028.9441864,144.679992675781
1028.9598114,144.699996948242
1028.9754364,144.729995727539
1028.9910614,144.75
1029.0066864,144.779998779297
1029.0223114,144.800003051758
1029.0379364,144.830001831055
1029.0535614,144.860000610352
1029.0691864,144.889999389648
1029.0848114,144.929992675781
1029.1004364,144.960006713867
1029.1160614,144.990005493164
1029.1316864,145.029998779297
1029.1473114,145.059997558594
1029.1629364,145.100006103516
1029.1785614,145.130004882813
1029.1941864,145.160003662109
1029.2098114,145.199996948242
1029.2254364,145.229995727539
1029.2410614,145.270004272461
1029.2566864,145.300003051758
1029.2723114,145.330001831055
1029.2879364,145.369995117188
1029.3035614,145.399993896484
1029.3191864,145.429992675781
1029.3348114,145.460006713867
1029.3504364,145.490005493164
1029.3660614,145.529998779297
1029.3816864,145.559997558594
1029.3973114,145.589996337891
1029.4129364,145.619995117188
1029.4285614,145.660003662109
1029.4441864,145.699996948242
1029.4598114,145.740005493164
1029.4754364,145.779998779297
1029.4910614,145.820007324219
1029.5066864,145.860000610352
1029.5223114,145.899993896484
1029.5379364,145.940002441406
1029.5535614,145.990005493164
1029.5691864,146.029998779297
1029.5848114,146.070007324219
1029.6004364,146.110000610352
1029.6160614,146.160003662109
1029.6316864,146.199996948242
1029.6473114,146.240005493164
1029.6629364,146.279998779297
1029.6785614,146.320007324219
1029.6941864,146.360000610352
1029.7098114,146.399993896484
1029.7254364,146.440002441406
1029.7410614,146.479995727539
1029.7566864,146.509994506836
1029.7723114,146.550003051758
1029.7879364,146.589996337891
1029.8035614,146.630004882813
1029.8191864,146.669998168945
1029.8348114,146.710006713867
1029.8504364,146.75
1029.8660614,146.789993286133
1029.8816864,146.830001831055
1029.8973114,146.860000610352
1029.9129364,146.899993896484
1029.9285614,146.940002441406
1029.9441864,146.979995727539
1029.9598114,147.020004272461
1029.9754364,147.050003051758
1029.9910614,147.089996337891
1030.0066864,147.119995117188
1030.0223114,147.149993896484
1030.0379364,147.190002441406
1030.0535614,147.220001220703
1030.0691864,147.25
1030.0848114,147.279998779297
1030.1004364,147.309997558594
1030.1160614,147.339996337891
1030.1316864,147.369995117188
1030.1473114,147.399993896484
1030.1629364,147.429992675781
1030.1785614,147.449996948242
1030.1941864,147.479995727539
1030.2098114,147.5
1030.2254364,147.529998779297
1030.2410614,147.550003051758
1030.2566864,147.580001831055
1030.2723114,147.600006103516
1030.2879364,147.619995117188
1030.3035614,147.639999389648
1030.3191864,147.660003662109
1030.3348114,147.669998168945
1030.3504364,147.690002441406
1030.3660614,147.699996948242
1030.3816864,147.710006713867
1030.3973114,147.729995727539
1030.4129364,147.729995727539
1030.4285614,147.740005493164
1030.4441864,147.75
1030.4598114,147.759994506836
1030.4754364,147.759994506836
1030.4910614,147.770004272461
1030.5066864,147.770004272461
1030.5223114,147.770004272461
1030.5379364,147.779998779297
1030.5535614,147.779998779297
