Time(s),Value(%)
515.0041916,159.75
515.0198166,170.300003051758
515.0354416,165.610000610352
515.0510666,149.369995117188
515.0666916,126.809997558594
515.0823166,102.629997253418
515.0979416,79.75
515.1135666,59.1800003051758
515.1291916,40.810001373291
515.1448166,24.3600006103516
515.1604416,9.55000019073486
515.1760666,-4.17000007629395
515.1916916,-17.3600006103516
515.2073166,-30.0400009155273
515.2229416,-41.689998626709
515.2385666,-51.5800018310547
515.2541916,-59.1399993896484
515.2698166,-64.1999969482422
515.2854416,-66.8399963378906
515.3010666,-67.3899993896484
515.3166916,-66.3300018310547
515.3323166,-64.1900024414063
515.3479416,-61.5
515.3635666,-58.7700004577637
515.3791916,-56.5
515.3948166,-55.0800018310547
515.4104416,-54.5499992370605
515.4260666,-54.5400009155273
515.4416916,-54.4900016784668
515.4573166,-54.0400009155273
515.4729416,-53.0699996948242
515.4885666,-51.6300010681152
515.5041916,-49.7099990844727
515.5198166,-46.5099983215332
515.5354416,-39.5900001525879
515.5510666,-25.2399997711182
515.5666916,-0.430000007152557
515.5823166,34.9199981689453
515.5979416,76.6999969482422
515.6135666,117.290000915527
515.6291916,148.179992675781
515.6448166,163.720001220703
515.6604416,163.710006713867
515.6760666,152.289993286133
515.6916916,134.729995727539
515.7073166,115.080001831055
515.7229416,95.5299987792969
515.7385666,76.5999984741211
515.7541916,57.9000015258789
515.7698166,38.7700004577637
515.7854416,19.1000003814697
515.8010666,-0.340000003576279
515.8166916,-18.2999992370605
515.8323166,-33.6399993896484
515.8479416,-45.7599983215332
515.8635666,-54.75
515.8791916,-61.0299987792969
515.8948166,-65.0199966430664
515.9104416,-66.9300003051758
515.9260666,-66.9899978637695
515.9416916,-65.6699981689453
515.9573166,-63.5900001525879
515.9729416,-61.3400001525879
515.9885666,-59.439998626709
516.0041916,-58.1699981689453
516.0198166,-57.6199989318848
516.0354416,-57.7299995422363
516.0510666,-58.3199996948242
516.0666916,-59.1599998474121
516.0823166,-60.1399993896484
516.0979416,-61.3800010681152
516.1135666,-63.0999984741211
516.1291916,-65.2399978637695
516.1448166,-67.3199996948242
516.1604416,-68.7099990844727
516.1760666,-68.3499984741211
516.1916916,-63.8699989318848
516.2073166,-51.6800003051758
516.2229416,-28.6200008392334
516.2385666,5.94999980926514
516.2541916,48.8899993896484
516.2698166,93.8099975585938
516.2854416,132.779998779297
516.3010666,158.800003051758
516.3166916,168.669998168945
516.3323166,164.229995727539
516.3479416,150.720001220703
516.3635666,133.619995117188
516.3791916,116.220001220703
516.3948166,99.0100021362305
516.4104416,80.8099975585938
516.4260666,60.8499984741211
516.4416916,39.7799987792969
516.4573166,19.2099990844727
516.4729416,0.689999997615814
516.4885666,-14.7200002670288
516.5041916,-26.5699996948242
516.5198166,-34.9500007629395
516.5354416,-40.4199981689453
516.5510666,-43.7999992370605
516.5666916,-45.8600006103516
516.5823166,-47.2099990844727
516.5979416,-48.3199996948242
516.6135666,-49.4599990844727
516.6291916,-50.6500015258789
516.6448166,-51.7000007629395
516.6604416,-52.5400009155273
516.6760666,-53.2700004577637
516.6916916,-54.0099983215332
516.7073166,-54.8400001525879
516.7229416,-55.6800003051758
516.7385666,-56.4199981689453
516.7541916,-56.9500007629395
516.7698166,-57.2900009155273
516.7854416,-57.4000015258789
516.8010666,-56.8199996948242
516.8166916,-54.1300010681152
516.8323166,-46.560001373291
516.8479416,-30.75
516.8635666,-4.6100001335144
516.8791916,30.8199996948242
516.8948166,70.7699966430664
516.9104416,108.080001831055
516.9260666,135.539993286133
516.9416916,148.25
516.9573166,145.389999389648
516.9729416,129.960006713867
516.9885666,106.889999389648
517.0041916,80.7399978637695
517.0198166,54.4599990844727
517.0354416,29.5400009155273
517.0510666,6.8899998664856
517.0666916,-12.7200002670288
517.0823166,-28.7800006866455
517.0979416,-41.1500015258789
517.1135666,-49.9300003051758
517.1291916,-55.2799987792969
517.1448166,-57.4700012207031
517.1604416,-57.0800018310547
517.1760666,-54.9599990844727
517.1916916,-52.1699981689453
517.2073166,-49.7299995422363
517.2229416,-48.2900009155273
517.2385666,-47.9000015258789
517.2541916,-48.1500015258789
517.2698166,-48.3800010681152
517.2854416,-48.0299987792969
517.3010666,-46.7799987792969
517.3166916,-44.810001373291
517.3323166,-42.7599983215332
517.3479416,-41.4700012207031
517.3635666,-41.4300003051758
517.3791916,-42.5299987792969
517.3948166,-44.189998626709
517.4104416,-45.7400016784668
517.4260666,-46.1800003051758
517.4416916,-43.7700004577637
517.4573166,-35.9500007629395
517.4729416,-19.7600002288818
517.4885666,6.76999998092651
517.5041916,42.7599983215332
517.5198166,83.6699981689453
517.5354416,121.970001220703
517.5510666,149.559997558594
517.5666916,161.119995117188
517.5823166,156.259994506836
517.5979416,138.880004882813
517.6135666,114.809997558594
517.6291916,89.3600006103516
517.6448166,65.6399993896484
517.6604416,44.2099990844727
517.6760666,24.2600002288818
517.6916916,5.17000007629395
517.7073166,-12.7399997711182
517.7229416,-28.4899997711182
517.7385666,-41.1100006103516
517.7541916,-50.0999984741211
517.7698166,-55.560001373291
517.7854416,-58.0099983215332
517.8010666,-58.189998626709
517.8166916,-56.9199981689453
517.8323166,-55.0
517.8479416,-53.1199989318848
517.8635666,-51.6699981689453
517.8791916,-50.7000007629395
517.8948166,-50.1300010681152
517.9104416,-49.9500007629395
517.9260666,-50.2200012207031
517.9416916,-50.8199996948242
517.9573166,-51.4000015258789
517.9729416,-51.6300010681152
517.9885666,-51.4099998474121
518.0041916,-50.9599990844727
518.0198166,-50.7400016784668
518.0354416,-50.939998626709
518.0510666,-50.9900016784668
518.0666916,-49.4300003051758
518.0823166,-43.75
518.0979416,-30.5599994659424
518.1135666,-6.76000022888184
518.1291916,28.2099990844727
518.1448166,70.7799987792969
518.1604416,113.809997558594
518.1760666,148.869995117188
518.1916916,168.990005493164
518.2073166,171.259994506836
518.2229416,157.800003051758
518.2385666,134.179992675781
518.2541916,106.580001831055
518.2698166,79.4000015258789
518.2854416,54.6100006103516
518.3010666,32.4599990844727
518.3166916,12.5299997329712
518.3323166,-5.46999979019165
518.3479416,-21.3500003814697
518.3635666,-34.560001373291
518.3791916,-44.6399993896484
518.3948166,-51.439998626709
518.4104416,-55.2000007629395
518.4260666,-56.4300003051758
518.4416916,-55.7700004577637
518.4573166,-54.0
518.4729416,-51.9099998474121
518.4885666,-50.0800018310547
518.5041916,-48.8199996948242
518.5198166,-48.2299995422363
518.5354416,-48.1599998474121
518.5510666,-48.1599998474121
518.5666916,-47.8400001525879
518.5823166,-47.2799987792969
518.5979416,-46.9900016784668
518.6135666,-47.5400009155273
518.6291916,-49.0999984741211
518.6448166,-51.189998626709
518.6604416,-52.8400001525879
518.6760666,-53.0699996948242
518.6916916,-51.7200012207031
518.7073166,-49.75
518.7229416,-48.310001373291
518.7385666,-47.0800018310547
518.7541916,-43.4000015258789
518.7698166,-33.0800018310547
518.7854416,-12.6199998855591
518.8010666,17.7700004577637
518.8166916,53.060001373291
518.8323166,85.6500015258789
518.8479416,108.949996948242
518.8635666,119.730003356934
518.8791916,118.48999786377
518.8948166,108.319999694824
518.9104416,92.9000015258789
518.9260666,74.6600036621094
518.9416916,54.689998626709
518.9573166,33.9199981689453
518.9729416,13.8100004196167
518.9885666,-3.82999992370605
519.0041916,-17.6700000762939
519.0198166,-27.1900005340576
519.0354416,-32.7400016784668
519.0510666,-34.8899993896484
519.0666916,-34.0900001525879
519.0823166,-30.7199993133545
519.0979416,-25.25
519.1135666,-18.4500007629395
519.1291916,-11.3999996185303
519.1448166,-5.05999994277954
519.1604416,0.0799999982118607
519.1760666,4.01000022888184
519.1916916,6.82000017166138
519.2073166,8.53999996185303
519.2229416,9.32999992370605
519.2385666,9.52000045776367
519.2541916,9.43000030517578
519.2698166,9.05000019073486
519.2854416,8.22999954223633
519.3010666,6.80999994277954
519.3166916,4.71000003814697
519.3323166,2.00999999046326
519.3479416,-0.670000016689301
519.3635666,-1.96000003814697
519.3791916,0.180000007152557
519.3948166,7.38000011444092
519.4104416,19.5799999237061
519.4260666,34.3300018310547
519.4416916,47.4799995422363
519.4573166,54.689998626709
519.4729416,52.9599990844727
519.4885666,41.5900001525879
519.5041916,22.0799999237061
519.5198166,-2.52999997138977
519.5354416,-28.8400001525879
519.5510666,-53.9599990844727
519.5666916,-75.7099990844727
519.5823166,-92.1699981689453
519.5979416,-102.029998779297
519.6135666,-105.690002441406
519.6291916,-105.639999389648
519.6448166,-104.550003051758
519.6604416,-103.269996643066
519.6760666,-100.940002441406
519.6916916,-96.370002746582
519.7073166,-88.7200012207031
519.7229416,-77.5100021362305
519.7385666,-62.8499984741211
519.7541916,-45.7599983215332
519.7698166,-28.1100006103516
519.7854416,-12.0
519.8010666,1.11000001430511
519.8166916,11.1899995803833
519.8323166,19.6200008392334
519.8479416,28.2900009155273
519.8635666,38.7299995422363
519.8791916,51.5699996948242
519.8948166,66.7399978637695
519.9104416,83.4899978637695
519.9260666,100.430000305176
519.9416916,115.800003051758
519.9573166,128.419998168945
519.9729416,138.589996337891
519.9885666,148.649993896484
520.0041916,162.479995727539
520.0198166,184.0
520.0354416,215.539993286133
520.0510666,256.739990234375
520.0666916,302.940002441406
520.0823166,327.670013427734
520.0979416,327.670013427734
520.1135666,327.670013427734
520.1291916,327.670013427734
520.1448166,327.670013427734
520.1604416,298.299987792969
520.1760666,251.850006103516
520.1916916,204.139999389648
520.2073166,157.429992675781
520.2229416,112.400001525879
520.2385666,69.1800003051758
520.2541916,28.1399993896484
520.2698166,-9.98999977111816
520.2854416,-44.5299987792969
520.3010666,-75.0699996948242
520.3166916,-101.480003356934
520.3323166,-123.680000305176
520.3479416,-141.759994506836
520.3635666,-156.169998168945
520.3791916,-167.690002441406
520.3948166,-177.220001220703
520.4104416,-185.550003051758
520.4260666,-193.259994506836
520.4416916,-200.570007324219
520.4573166,-207.350006103516
520.4729416,-213.399993896484
520.4885666,-218.649993896484
520.5041916,-223.179992675781
520.5198166,-227.020004272461
520.5354416,-230.020004272461
520.5510666,-231.940002441406
520.5666916,-232.490005493164
520.5823166,-231.259994506836
520.5979416,-227.360000610352
520.6135666,-218.910003662109
520.6291916,-203.369995117188
520.6448166,-178.630004882813
520.6604416,-144.570007324219
520.6760666,-104.019996643066
520.6916916,-62.2700004577637
520.7073166,-25.75
520.7229416,-0.189999997615814
520.7385666,11.4799995422363
520.7541916,10.1999998092651
520.7698166,-0.25
520.7854416,-15.3299999237061
520.8010666,-31.5
520.8166916,-46.8300018310547
520.8323166,-60.6300010681152
520.8479416,-72.9300003051758
520.8635666,-83.8499984741211
520.8791916,-93.2600021362305
520.8948166,-100.790000915527
520.9104416,-105.879997253418
520.9260666,-108.019996643066
520.9416916,-107.029998779297
520.9573166,-103.279998779297
520.9729416,-97.4800033569336
520.9885666,-90.3499984741211
521.0041916,-82.5
521.0198166,-74.4100036621094
521.0354416,-66.4899978637695
521.0510666,-59.1699981689453
521.0666916,-52.7999992370605
521.0823166,-47.3400001525879
521.0979416,-42.4599990844727
521.1135666,-37.7799987792969
521.1291916,-32.9900016784668
521.1448166,-27.8799991607666
521.1604416,-22.3700008392334
521.1760666,-16.5400009155273
521.1916916,-10.5
521.2073166,-4.15000009536743
521.2229416,3.46000003814697
521.2385666,14.4499998092651
521.2541916,31.5699996948242
521.2698166,57.0999984741211
521.2854416,91.4599990844727
521.3010666,132.389999389648
521.3166916,174.550003051758
521.3323166,210.5
521.3479416,233.589996337891
521.3635666,240.639999389648
521.3791916,232.669998168945
521.3948166,213.839996337891
521.4104416,189.389999389648
521.4260666,163.5
521.4416916,138.229995727539
521.4573166,114.0
521.4729416,90.8199996948242
521.4885666,69.0
521.5041916,49.1199989318848
521.5198166,31.7000007629395
521.5354416,16.9699993133545
521.5510666,4.76999998092651
521.5666916,-4.98999977111816
521.5823166,-12.1700000762939
521.5979416,-16.5799999237061
521.6135666,-18.3999996185303
521.6291916,-18.2800006866455
521.6448166,-17.0499992370605
521.6604416,-15.3900003433228
521.6760666,-13.7200002670288
521.6916916,-12.3400001525879
521.7073166,-11.4099998474121
521.7229416,-10.9499998092651
521.7385666,-10.8699998855591
521.7541916,-11.1000003814697
521.7698166,-11.6199998855591
521.7854416,-12.3900003433228
521.8010666,-13.3599996566772
521.8166916,-14.3299999237061
521.8323166,-14.5799999237061
521.8479416,-12.539999961853
521.8635666,-5.82000017166138
521.8791916,8.3100004196167
521.8948166,31.8799991607666
521.9104416,64.75
521.9260666,103.360000610352
521.9416916,140.949996948242
521.9573166,170.199996948242
521.9729416,186.910003662109
521.9885666,191.130004882813
522.0041916,185.520004272461
522.0198166,173.160003662109
522.0354416,156.419998168945
522.0510666,136.759994506836
522.0666916,114.879997253418
522.0823166,91.1900024414063
522.0979416,66.4599990844727
522.1135666,41.8199996948242
522.1291916,18.4500007629395
522.1448166,-2.63000011444092
522.1604416,-20.7399997711182
522.1760666,-35.560001373291
522.1916916,-47.3300018310547
522.2073166,-56.7299995422363
522.2229416,-64.5899963378906
522.2385666,-71.2900009155273
522.2541916,-76.75
522.2698166,-80.9100036621094
522.2854416,-84.0299987792969
522.3010666,-86.5100021362305
522.3166916,-88.7399978637695
522.3323166,-90.879997253418
522.3479416,-92.7600021362305
522.3635666,-93.9700012207031
522.3791916,-94.3199996948242
522.3948166,-93.9899978637695
522.4104416,-93.2300033569336
522.4260666,-91.9800033569336
522.4416916,-89.8600006103516
522.4573166,-86.6900024414063
522.4729416,-83.0199966430664
522.4885666,-79.4499969482422
522.5041916,-75.1600036621094
522.5198166,-67.2900009155273
522.5354416,-51.6800003051758
522.5510666,-24.9899997711182
522.5666916,13.1999998092651
522.5823166,59.5800018310547
522.5979416,107.089996337891
522.6135666,146.5
522.6291916,170.160003662109
522.6448166,175.25
522.6604416,164.149993896484
522.6760666,142.339996337891
522.6916916,115.639999389648
522.7073166,88.1699981689453
522.7229416,61.75
522.7385666,36.6500015258789
522.7541916,12.8100004196167
522.7698166,-9.44999980926514
522.7854416,-29.5200004577637
522.8010666,-46.6699981689453
522.8166916,-60.3800010681152
522.8323166,-70.5400009155273
522.8479416,-77.4599990844727
522.8635666,-81.6800003051758
522.8791916,-83.9100036621094
522.8948166,-84.8199996948242
522.9104416,-84.8600006103516
522.9260666,-84.2900009155273
522.9416916,-83.3899993896484
522.9573166,-82.4899978637695
522.9729416,-81.879997253418
522.9885666,-81.5400009155273
523.0041916,-81.1600036621094
523.0198166,-80.3300018310547
523.0354416,-78.8300018310547
523.0510666,-76.6500015258789
523.0666916,-74.0800018310547
523.0823166,-71.6100006103516
523.0979416,-69.4800033569336
523.1135666,-66.9499969482422
523.1291916,-62.0
523.1448166,-51.4700012207031
523.1604416,-32.1199989318848
523.1760666,-2.45000004768372
523.1916916,35.6699981689453
523.2073166,76.6800003051758
523.2229416,113.0
523.2385666,137.690002441406
523.2541916,146.720001220703
523.2698166,140.149993896484
523.2854416,121.680000305176
523.3010666,96.7900009155273
523.3166916,70.4899978637695
523.3323166,45.75
523.3479416,23.5300006866455
523.3635666,3.78999996185303
523.3791916,-13.6899995803833
523.3948166,-28.9099998474121
523.4104416,-41.5200004577637
523.4260666,-51.1199989318848
523.4416916,-57.5400009155273
523.4573166,-61.0
523.4729416,-62.1100006103516
523.4885666,-61.6599998474121
523.5041916,-60.2900009155273
523.5198166,-58.4199981689453
523.5354416,-56.25
523.5510666,-53.8300018310547
523.5666916,-51.310001373291
523.5823166,-49.0400009155273
523.5979416,-47.2400016784668
523.6135666,-45.7799987792969
523.6291916,-44.4099998474121
523.6448166,-43.0099983215332
523.6604416,-41.5200004577637
523.6760666,-40.0
523.6916916,-38.5900001525879
523.7073166,-37.5099983215332
523.7229416,-36.9000015258789
523.7385666,-36.310001373291
523.7541916,-34.1500015258789
523.7698166,-27.6000003814697
523.7854416,-13.1300001144409
523.8010666,11.9499998092651
523.8166916,47.439998626709
523.8323166,89.3399963378906
523.8479416,130.320007324219
523.8635666,161.720001220703
523.8791916,177.059997558594
523.8948166,174.910003662109
523.9104416,158.850006103516
523.9260666,134.990005493164
523.9416916,108.940002441406
523.9573166,83.9400024414063
523.9729416,60.6699981689453
523.9885666,38.6699981689453
524.0041916,17.8600006103516
524.0198166,-0.980000019073486
524.0354416,-16.7399997711182
524.0510666,-28.6000003814697
524.0666916,-36.4099998474121
524.0823166,-40.6800003051758
524.0979416,-42.3199996948242
524.1135666,-42.3199996948242
524.1291916,-41.6199989318848
524.1448166,-41.0400009155273
524.1604416,-41.0299987792969
524.1760666,-41.4300003051758
524.1916916,-41.7099990844727
524.2073166,-41.4799995422363
524.2229416,-40.9700012207031
524.2385666,-40.8300018310547
524.2541916,-41.6300010681152
524.2698166,-43.310001373291
524.2854416,-45.1699981689453
524.3010666,-46.3300018310547
524.3166916,-46.2900009155273
524.3323166,-44.9599990844727
524.3479416,-42.4500007629395
524.3635666,-38.6300010681152
524.3791916,-32.6599998474121
524.3948166,-22.2199993133545
524.4104416,-3.75
524.4260666,25.7000007629395
524.4416916,65.6399993896484
524.4573166,110.709999084473
524.4729416,152.360000610352
524.4885666,182.089996337891
524.5041916,194.300003051758
524.5198166,188.050003051758
524.5354416,167.009994506836
524.5510666,137.520004272461
524.5666916,105.959999084473
524.5823166,76.5800018310547
524.5979416,50.8400001525879
524.6135666,28.3700008392334
524.6291916,8.18000030517578
524.6448166,-10.2299995422363
524.6604416,-26.5900001525879
524.6760666,-40.1699981689453
524.6916916,-50.4599990844727
524.7073166,-57.3300018310547
524.7229416,-60.9599990844727
524.7385666,-61.7900009155273
524.7541916,-60.5400009155273
524.7698166,-58.1100006103516
524.7854416,-55.5
524.8010666,-53.5299987792969
524.8166916,-52.4599990844727
524.8323166,-52.0299987792969
524.8479416,-51.9500007629395
524.8635666,-52.2400016784668
524.8791916,-53.2000007629395
524.8948166,-55.1500015258789
524.9104416,-58.0800018310547
524.9260666,-61.5800018310547
524.9416916,-65.0400009155273
524.9573166,-67.9400024414063
524.9729416,-70.0800018310547
524.9885666,-71.3399963378906
525.0041916,-70.9599990844727
525.0198166,-67.0800018310547
525.0354416,-56.5900001525879
525.0510666,-36.0400009155273
525.0666916,-3.5
525.0823166,39.6399993896484
525.0979416,87.129997253418
525.1135666,128.809997558594
525.1291916,155.160003662109
525.1448166,161.830001831055
525.1604416,150.860000610352
525.1760666,128.479995727539
525.1916916,101.830001831055
525.2073166,76.3000030517578
525.2229416,54.6100006103516
525.2385666,37.0900001525879
525.2541916,22.4200000762939
525.2698166,8.47999954223633
525.2854416,-6.59000015258789
525.3010666,-23.3199996948242
525.3166916,-40.4500007629395
525.3323166,-55.9099998474121
525.3479416,-68.0400009155273
525.3635666,-76.1999969482422
525.3791916,-80.5599975585938
525.3948166,-81.8300018310547
525.4104416,-80.9800033569336
525.4260666,-78.9599990844727
525.4416916,-76.5999984741211
525.4573166,-74.4100036621094
525.4729416,-72.5400009155273
525.4885666,-70.8399963378906
525.5041916,-69.0699996948242
525.5198166,-67.0
525.5354416,-64.5299987792969
525.5510666,-61.75
525.5666916,-58.810001373291
525.5823166,-55.939998626709
525.5979416,-53.3699989318848
525.6135666,-51.1100006103516
525.6291916,-48.9199981689453
525.6448166,-46.4000015258789
525.6604416,-42.9099998474121
525.6760666,-37.0
525.6916916,-25.8400001525879
525.7073166,-6.55999994277954
525.7229416,20.8899993896484
525.7385666,53.7000007629395
525.7541916,89.1399993896484
525.7698166,124.870002746582
