Time(s),Value(%)
951.0134825,-26.2800006866455
951.0291075,-28.8500003814697
951.0447325,-31.5400009155273
951.0603575,-34.3400001525879
951.0759825,-37.1800003051758
951.0916075,-39.8600006103516
951.1072325,-42.25
951.1228575,-44.2200012207031
951.1384825,-45.7700004577637
951.1541075,-46.9300003051758
951.1697325,-47.7599983215332
951.1853575,-48.2000007629395
951.2009825,-48.1399993896484
951.2166075,-47.5099983215332
951.2322325,-46.3400001525879
951.2478575,-44.5699996948242
951.2634825,-41.9500007629395
951.2791075,-37.8600006103516
951.2947325,-31.4099998474121
951.3103575,-21.4500007629395
951.3259825,-6.82000017166138
951.3416075,12.9099998474121
951.3572325,36.4099998474121
951.3728575,60.439998626709
951.3884825,81.0400009155273
951.4041075,95.0599975585938
951.4197325,101.300003051758
951.4353575,100.330001831055
951.4509825,93.7600021362305
951.4666075,83.4499969482422
951.4822325,71.0199966430664
951.4978575,57.6399993896484
951.5134825,44.0499992370605
951.5291075,30.8700008392334
951.5447325,18.7099990844727
951.5603575,8.03999996185303
951.5759825,-1.1599999666214
951.5916075,-9.27000045776367
951.6072325,-16.4799995422363
951.6228575,-22.7399997711182
951.6384825,-27.9300003051758
951.6541075,-32.0800018310547
951.6697325,-35.3899993896484
951.6853575,-38.1599998474121
951.7009825,-40.6199989318848
951.7166075,-42.8199996948242
951.7322325,-44.7000007629395
951.7478575,-46.2599983215332
951.7634825,-47.5400009155273
951.7791075,-48.5999984741211
951.7947325,-49.4199981689453
951.8103575,-50.060001373291
951.8259825,-50.5999984741211
951.8416075,-51.0400009155273
951.8572325,-51.1199989318848
951.8728575,-50.5999984741211
951.8884825,-49.3400001525879
951.9041075,-47.3800010681152
951.9197325,-44.7099990844727
951.9353575,-41.1199989318848
951.9509825,-35.7000007629395
951.9666075,-26.5499992370605
951.9822325,-11.5200004577637
951.9978575,10.0799999237061
952.0134825,36.4599990844727
952.0291075,63.5999984741211
952.0447325,86.9199981689453
952.0603575,102.970001220703
952.0759825,110.480003356934
952.0916075,110.220001220703
952.1072325,104.029998779297
952.1228575,93.870002746582
952.1384825,81.3000030517578
952.1541075,67.4400024414063
952.1697325,53.0699996948242
952.1853575,38.6399993896484
952.2009825,24.5499992370605
952.2166075,11.3400001525879
952.2322325,-0.379999995231628
952.2478575,-10.1199998855591
952.2634825,-17.7000007629395
952.2791075,-23.3400001525879
952.2947325,-27.5200004577637
952.3103575,-30.7800006866455
952.3259825,-33.6300010681152
952.3416075,-36.4599990844727
952.3572325,-39.4599990844727
952.3728575,-42.6100006103516
952.3884825,-45.75
952.4041075,-48.5900001525879
952.4197325,-50.8600006103516
952.4353575,-52.4900016784668
952.4509825,-53.6199989318848
952.4666075,-54.3499984741211
952.4822325,-54.7200012207031
952.4978575,-54.6399993896484
952.5134825,-53.8899993896484
952.5291075,-52.3600006103516
952.5447325,-50.2000007629395
952.5603575,-47.6599998474121
952.5759825,-44.7000007629395
952.5916075,-40.4700012207031
952.6072325,-33.0499992370605
952.6228575,-20.0499992370605
952.6384825,-0.180000007152557
952.6541075,25.3999996185303
952.6697325,53.1800003051758
952.6853575,78.6999969482422
952.7009825,98.0999984741211
952.7166075,109.029998779297
952.7322325,111.160003662109
952.7478575,105.910003662109
952.7634825,95.6399993896484
952.7791075,82.6900024414063
952.7947325,68.7799987792969
952.8103575,54.7400016784668
952.8259825,40.7299995422363
952.8416075,26.8600006103516
952.8572325,13.6899995803833
952.8728575,1.97000002861023
952.8884825,-7.73999977111816
952.9041075,-15.289999961853
952.9197325,-20.9500007629395
952.9353575,-25.3400001525879
952.9509825,-29.0799999237061
952.9666075,-32.5200004577637
952.9822325,-35.7700004577637
952.9978575,-38.8400001525879
953.0134825,-41.5800018310547
953.0291075,-43.8499984741211
953.0447325,-45.6800003051758
953.0603575,-47.2400016784668
953.0759825,-48.7999992370605
953.0916075,-50.4500007629395
953.1072325,-51.9500007629395
953.1228575,-52.8899993896484
953.1384825,-52.9599990844727
953.1541075,-52.1300010681152
953.1697325,-50.5999984741211
953.1853575,-48.7799987792969
953.2009825,-46.9199981689453
953.2166075,-44.8800010681152
953.2322325,-42.0800018310547
953.2478575,-37.560001373291
953.2634825,-29.7600002288818
953.2791075,-16.7999992370605
953.2947325,2.53999996185303
953.3103575,27.6200008392334
953.3259825,55.5499992370605
953.3416075,81.9599990844727
953.3572325,102.230003356934
953.3728575,113.309997558594
953.3884825,114.720001220703
953.4041075,108.26000213623
953.4197325,96.9300003051758
953.4353575,83.4899978637695
953.4509825,69.6399993896484
953.4666075,56.0699996948242
953.4822325,42.9199981689453
953.4978575,30.2600002288818
953.5134825,18.2900009155273
953.5291075,7.44000005722046
953.5447325,-1.73000001907349
953.5603575,-9.0
953.5759825,-14.6199998855591
953.5916075,-19.1299991607666
953.6072325,-22.9500007629395
953.6228575,-26.2700004577637
953.6384825,-29.1100006103516
953.6541075,-31.5300006866455
953.6697325,-33.7000007629395
953.6853575,-35.7999992370605
953.7009825,-37.8499984741211
953.7166075,-39.689998626709
953.7322325,-41.1800003051758
953.7478575,-42.2900009155273
953.7634825,-43.0200004577637
953.7791075,-43.3499984741211
953.7947325,-43.2700004577637
953.8103575,-42.810001373291
953.8259825,-42.0800018310547
953.8416075,-41.2000007629395
953.8572325,-40.060001373291
953.8728575,-38.0299987792969
953.8884825,-33.689998626709
953.9041075,-25.1000003814697
953.9197325,-10.4899997711182
953.9353575,10.6000003814697
953.9509825,36.0699996948242
953.9666075,61.2900009155273
953.9822325,81.2399978637695
953.9978575,92.7600021362305
954.0134825,95.4000015258789
954.0291075,90.9899978637695
954.0447325,82.1900024414063
954.0603575,71.2300033569336
954.0759825,59.3300018310547
954.0916075,46.9099998474121
954.1072325,34.2599983215332
954.1228575,21.8299999237061
954.1384825,10.210000038147
954.1541075,-0.0700000002980232
954.1697325,-8.69999980926514
954.1853575,-15.6499996185303
954.2009825,-21.1399993896484
954.2166075,-25.4899997711182
954.2322325,-28.9599990844727
954.2478575,-31.7299995422363
954.2634825,-33.9199981689453
954.2791075,-35.7000007629395
954.2947325,-37.2700004577637
954.3103575,-38.8699989318848
954.3259825,-40.7000007629395
954.3416075,-42.7599983215332
954.3572325,-44.7200012207031
954.3728575,-46.2099990844727
954.3884825,-47.0299987792969
954.4041075,-47.1800003051758
954.4197325,-46.810001373291
954.4353575,-46.2000007629395
954.4509825,-45.4599990844727
954.4666075,-44.4099998474121
954.4822325,-42.6599998474121
954.4978575,-39.7299995422363
954.5134825,-34.7200012207031
954.5291075,-25.9400005340576
954.5447325,-11.5500001907349
954.5603575,8.78999996185303
954.5759825,32.7099990844727
954.5916075,55.9500007629395
954.6072325,74.7099990844727
954.6228575,87.2200012207031
954.6384825,93.4700012207031
954.6541075,94.3199996948242
954.6697325,90.879997253418
954.6853575,84.1800003051758
954.7009825,75.0800018310547
954.7166075,64.2699966430664
954.7322325,52.2799987792969
954.7478575,39.6199989318848
954.7634825,26.7900009155273
954.7791075,14.3400001525879
954.7947325,2.88000011444092
954.8103575,-6.96999979019165
954.8259825,-14.9499998092651
954.8416075,-21.1200008392334
954.8572325,-25.7800006866455
954.8728575,-29.2700004577637
954.8884825,-31.9099998474121
954.9041075,-34.0299987792969
954.9197325,-35.8600006103516
954.9353575,-37.6100006103516
954.9509825,-39.5400009155273
954.9666075,-41.7599983215332
954.9822325,-44.0499992370605
954.9978575,-45.9199981689453
955.0134825,-47.0900001525879
955.0291075,-47.5699996948242
955.0447325,-47.5499992370605
955.0603575,-47.0299987792969
955.0759825,-45.7799987792969
955.0916075,-43.6599998474121
955.1072325,-41.060001373291
955.1228575,-38.5999984741211
955.1384825,-36.5800018310547
955.1541075,-34.7599983215332
955.1697325,-32.4599990844727
955.1853575,-28.4200000762939
955.2009825,-20.5200004577637
955.2166075,-6.28000020980835
955.2322325,15.1199998855591
955.2478575,41.2599983215332
955.2634825,67.2399978637695
955.2791075,88.0
955.2947325,100.319999694824
955.3103575,103.610000610352
955.3259825,99.5
955.3416075,90.6600036621094
955.3572325,79.4599990844727
955.3728575,67.3899993896484
955.3884825,55.0499992370605
955.4041075,42.6300010681152
955.4197325,30.3199996948242
955.4353575,18.5100002288818
955.4509825,7.65000009536743
955.4666075,-1.94000005722046
955.4822325,-10.0900001525879
955.4978575,-16.6399993896484
955.5134825,-21.5499992370605
955.5291075,-25.0599994659424
955.5447325,-27.6499996185303
955.5603575,-29.8199996948242
955.5759825,-31.8500003814697
955.5916075,-33.8800010681152
955.6072325,-35.9799995422363
955.6228575,-38.189998626709
955.6384825,-40.3800010681152
955.6541075,-42.3199996948242
955.6697325,-43.75
955.6853575,-44.5499992370605
955.7009825,-44.7900009155273
955.7166075,-44.6800003051758
955.7322325,-44.4300003051758
955.7478575,-44.0
955.7634825,-43.2200012207031
955.7791075,-41.8600006103516
955.7947325,-39.7700004577637
955.8103575,-36.8800010681152
955.8259825,-32.8800010681152
955.8416075,-26.6499996185303
955.8572325,-16.0
955.8728575,0.779999971389771
955.8884825,22.9899997711182
955.9041075,47.2999992370605
955.9197325,69.2099990844727
955.9353575,84.9899978637695
955.9509825,92.870002746582
955.9666075,93.129997253418
955.9822325,87.5199966430664
955.9978575,78.2600021362305
956.0134825,67.3000030517578
956.0291075,55.8699989318848
956.0447325,44.5
956.0603575,33.310001373291
956.0759825,22.4400005340576
956.0916075,12.1499996185303
956.1072325,2.74000000953674
956.1228575,-5.40000009536743
956.1384825,-11.9399995803833
956.1541075,-16.7299995422363
956.1697325,-20.0900001525879
956.1853575,-22.5900001525879
956.2009825,-24.8199996948242
956.2166075,-27.2199993133545
956.2322325,-29.8700008392334
956.2478575,-32.560001373291
956.2634825,-34.9900016784668
956.2791075,-36.9599990844727
956.2947325,-38.4099998474121
956.3103575,-39.3600006103516
956.3259825,-39.8600006103516
956.3416075,-40.0
956.3572325,-39.9599990844727
956.3728575,-39.8400001525879
956.3884825,-39.6500015258789
956.4041075,-39.3400001525879
956.4197325,-38.7700004577637
956.4353575,-37.6800003051758
956.4509825,-35.5
956.4666075,-31.1299991607666
956.4822325,-22.9500007629395
956.4978575,-9.5600004196167
956.5134825,8.98999977111816
956.5291075,30.7000007629395
956.5447325,52.0099983215332
956.5603575,69.3099975585938
956.5759825,80.2099990844727
956.5916075,84.0199966430664
956.6072325,81.5800018310547
956.6228575,74.5400009155273
956.6384825,64.7200012207031
956.6541075,53.689998626709
956.6697325,42.4599990844727
956.6853575,31.4699993133545
956.7009825,20.8600006103516
956.7166075,10.7700004577637
956.7322325,1.54999995231628
956.7478575,-6.28000020980835
956.7634825,-12.289999961853
956.7791075,-16.4099998474121
956.7947325,-18.9899997711182
956.8103575,-20.6299991607666
956.8259825,-21.9799995422363
956.8416075,-23.5200004577637
956.8572325,-25.4500007629395
956.8728575,-27.7299995422363
956.8884825,-30.1200008392334
956.9041075,-32.3800010681152
956.9197325,-34.3300018310547
956.9353575,-35.810001373291
956.9509825,-36.810001373291
956.9666075,-37.4500007629395
956.9822325,-37.810001373291
956.9978575,-37.8300018310547
957.0134825,-37.4099998474121
957.0291075,-36.5699996948242
957.0447325,-35.3600006103516
957.0603575,-33.75
957.0759825,-31.4300003051758
957.0916075,-27.4699993133545
957.1072325,-20.0499992370605
957.1228575,-7.32000017166138
957.1384825,11.0100002288818
957.1541075,32.9700012207031
957.1697325,54.8800010681152
957.1853575,72.8099975585938
957.2009825,84.0599975585938
957.2166075,87.9300003051758
957.2322325,85.4599990844727
957.2478575,78.5100021362305
957.2634825,69.0
957.2791075,58.310001373291
957.2947325,47.1800003051758
957.3103575,35.9799995422363
957.3259825,25.0400009155273
957.3416075,14.6700000762939
957.3572325,5.13000011444092
957.3728575,-3.38000011444092
957.3884825,-10.6099996566772
957.4041075,-16.3199996948242
957.4197325,-20.4599990844727
957.4353575,-23.2800006866455
957.4509825,-25.2399997711182
957.4666075,-27.0400009155273
957.4822325,-29.1900005340576
957.4978575,-31.7600002288818
957.5134825,-34.4500007629395
957.5291075,-36.8499984741211
957.5447325,-38.7000007629395
957.5603575,-39.9099998474121
957.5759825,-40.5800018310547
957.5916075,-40.9300003051758
957.6072325,-41.2299995422363
957.6228575,-41.5900001525879
957.6384825,-41.810001373291
957.6541075,-41.560001373291
957.6697325,-40.6399993896484
957.6853575,-38.9799995422363
957.7009825,-36.6100006103516
957.7166075,-33.3300018310547
957.7322325,-28.2700004577637
957.7478575,-19.5900001525879
957.7634825,-5.48999977111816
957.7791075,14.1899995803833
957.7947325,37.2099990844727
957.8103575,59.6699981689453
957.8259825,77.6399993896484
957.8416075,88.5899963378906
957.8572325,92.0100021362305
957.8728575,89.0599975585938
957.8884825,81.6800003051758
957.9041075,71.7200012207031
957.9197325,60.4500007629395
957.9353575,48.6100006103516
957.9509825,36.6599998474121
957.9666075,24.9599990844727
957.9822325,13.9099998474121
957.9978575,4.01999998092651
958.0134825,-4.32000017166138
958.0291075,-11.039999961853
958.0447325,-16.3700008392334
958.0603575,-20.6399993896484
958.0759825,-24.1299991607666
958.0916075,-27.0400009155273
958.1072325,-29.4899997711182
958.1228575,-31.4500007629395
958.1384825,-32.9300003051758
958.1541075,-34.189998626709
958.1697325,-35.5299987792969
958.1853575,-37.1199989318848
958.2009825,-38.8699989318848
958.2166075,-40.6100006103516
958.2322325,-42.2700004577637
958.2478575,-43.7999992370605
958.2634825,-44.9599990844727
958.2791075,-45.4300003051758
958.2947325,-45.0
958.3103575,-43.7200012207031
958.3259825,-41.8300018310547
958.3416075,-39.7200012207031
958.3572325,-37.5800018310547
958.3728575,-35.0299987792969
958.3884825,-30.7099990844727
958.4041075,-22.5
958.4197325,-8.53999996185303
958.4353575,11.210000038147
958.4509825,34.4000015258789
958.4666075,57.0400009155273
958.4822325,75.3300018310547
958.4978575,86.9000015258789
958.5134825,91.0599975585938
958.5291075,88.5899963378906
958.5447325,81.2600021362305
958.5603575,71.0999984741211
958.5759825,59.7400016784668
958.5916075,48.2000007629395
958.6072325,37.1100006103516
958.6228575,26.8400001525879
958.6384825,17.3500003814697
958.6541075,8.39000034332275
958.6697325,-0.0299999993294477
958.6853575,-7.71000003814697
958.7009825,-14.3400001525879
958.7166075,-19.6599998474121
958.7322325,-23.6100006103516
958.7478575,-26.3899993896484
958.7634825,-28.4599990844727
958.7791075,-30.2099990844727
958.7947325,-31.9099998474121
958.8103575,-33.6500015258789
958.8259825,-35.4000015258789
958.8416075,-37.0200004577637
958.8572325,-38.4300003051758
958.8728575,-39.6599998474121
958.8884825,-40.7799987792969
958.9041075,-41.8300018310547
958.9197325,-42.560001373291
958.9353575,-42.7200012207031
958.9509825,-42.2299995422363
958.9666075,-41.1699981689453
958.9822325,-39.6800003051758
958.9978575,-37.7599983215332
959.0134825,-34.8899993896484
959.0291075,-29.6499996185303
959.0447325,-20.0599994659424
959.0603575,-4.82000017166138
959.0759825,15.539999961853
959.0916075,38.3699989318848
959.1072325,59.7799987792969
959.1228575,76.129997253418
959.1384825,85.379997253418
959.1541075,87.4499969482422
959.1697325,83.6500015258789
959.1853575,75.75
959.2009825,65.3099975585938
959.2166075,53.5200004577637
959.2322325,41.3699989318848
959.2478575,29.6000003814697
959.2634825,18.6100006103516
959.2791075,8.64999961853027
959.2947325,-0.0199999995529652
959.3103575,-7.17000007629395
959.3259825,-12.7600002288818
959.3416075,-17.0100002288818
959.3572325,-20.2399997711182
959.3728575,-22.75
959.3884825,-24.8099994659424
959.4041075,-26.7199993133545
959.4197325,-28.6299991607666
959.4353575,-30.5200004577637
959.4509825,-32.310001373291
959.4666075,-33.9199981689453
959.4822325,-35.3300018310547
959.4978575,-36.5999984741211
959.5134825,-37.7400016784668
959.5291075,-38.6500015258789
959.5447325,-39.1399993896484
959.5603575,-39.0699996948242
959.5759825,-38.4099998474121
959.5916075,-37.3600006103516
959.6072325,-36.0699996948242
959.6228575,-34.4700012207031
959.6384825,-32.2599983215332
959.6541075,-28.6399993896484
959.6697325,-21.9200000762939
959.6853575,-10.1499996185303
959.7009825,7.44000005722046
959.7166075,29.5200004577637
959.7322325,52.8699989318848
959.7478575,73.7399978637695
959.7634825,88.9800033569336
959.7791075,96.7099990844727
959.7947325,96.7900009155273
959.8103575,90.6699981689453
959.8259825,80.5800018310547
959.8416075,68.4899978637695
959.8572325,55.7400016784668
959.8728575,43.060001373291
959.8884825,30.7800006866455
959.9041075,19.1800003051758
959.9197325,8.56999969482422
959.9353575,-0.660000026226044
959.9509825,-8.25
959.9666075,-14.1199998855591
959.9822325,-18.4699993133545
959.9978575,-21.7800006866455
960.0134825,-24.5900001525879
960.0291075,-27.2099990844727
960.0447325,-29.7399997711182
960.0603575,-32.1399993896484
960.0759825,-34.310001373291
960.0916075,-36.2299995422363
960.1072325,-37.9300003051758
960.1228575,-39.4799995422363
960.1384825,-40.9799995422363
960.1541075,-42.4099998474121
960.1697325,-43.5099983215332
960.1853575,-44.0
960.2009825,-43.7900009155273
960.2166075,-43.0200004577637
960.2322325,-41.8499984741211
960.2478575,-40.3600006103516
960.2634825,-38.5499992370605
960.2791075,-36.1399993896484
960.2947325,-32.2799987792969
960.3103575,-25.25
960.3259825,-13.1400003433228
960.3416075,4.80999994277954
960.3572325,27.1700000762939
960.3728575,50.689998626709
960.3884825,71.5699996948242
960.4041075,86.620002746582
960.4197325,94.0400009155273
960.4353575,93.8199996948242
960.4509825,87.5100021362305
960.4666075,77.379997253418
960.4822325,65.4300003051758
960.4978575,52.9199981689453
960.5134825,40.4300003051758
960.5291075,28.2600002288818
960.5447325,16.7900009155273
960.5603575,6.42999982833862
960.5759825,-2.41000008583069
960.5916075,-9.64000034332275
960.6072325,-15.3599996566772
960.6228575,-19.8600006103516
960.6384825,-23.5100002288818
960.6541075,-26.7000007629395
960.6697325,-29.6700000762939
960.6853575,-32.439998626709
960.7009825,-34.9199981689453
960.7166075,-37.0800018310547
960.7322325,-38.9500007629395
960.7478575,-40.6599998474121
960.7634825,-42.2700004577637
960.7791075,-43.6500015258789
960.7947325,-44.5699996948242
960.8103575,-44.8899993896484
960.8259825,-44.6300010681152
960.8416075,-43.810001373291
960.8572325,-42.4900016784668
960.8728575,-40.8300018310547
960.8884825,-39.0800018310547
960.9041075,-37.3699989318848
960.9197325,-35.3300018310547
960.9353575,-31.8299999237061
960.9509825,-24.9099998474121
960.9666075,-12.5600004196167
960.9822325,5.98999977111816
960.9978575,29.4699993133545
961.0134825,54.3899993896484
961.0291075,76.0100021362305
961.0447325,90.3499984741211
961.0603575,95.8600006103516
961.0759825,93.5
961.0916075,85.6600036621094
961.1072325,74.870002746582
961.1228575,62.939998626709
961.1384825,50.689998626709
961.1541075,38.4099998474121
961.1697325,26.3600006103516
961.1853575,15.0299997329712
961.2009825,4.86999988555908
961.2166075,-3.8199999332428
961.2322325,-11.1300001144409
961.2478575,-17.2099990844727
961.2634825,-22.1599998474121
961.2791075,-26.0
961.2947325,-28.8899993896484
961.3103575,-31.1399993896484
961.3259825,-32.9900016784668
961.3416075,-34.5900001525879
961.3572325,-36.060001373291
961.3728575,-37.4700012207031
961.3884825,-38.689998626709
961.4041075,-39.5400009155273
961.4197325,-39.9900016784668
961.4353575,-40.1399993896484
961.4509825,-40.0999984741211
961.4666075,-39.8899993896484
961.4822325,-39.5
961.4978575,-38.9000015258789
961.5134825,-38.1100006103516
961.5291075,-37.0800018310547
961.5447325,-35.689998626709
961.5603575,-33.7900009155273
961.5759825,-30.9500007629395
961.5916075,-26.0599994659424
961.6072325,-17.2700004577637
961.6228575,-2.9300000667572
961.6384825,17.0200004577637
961.6541075,40.5
961.6697325,63.7000007629395
961.6853575,82.25
961.7009825,92.9499969482422
