Time(s),Value(%)
1531.0089315,-63.0499992370605
1531.0245565,-61.0699996948242
1531.0401815,-59.5099983215332
1531.0558065,-58.3199996948242
1531.0714315,-57.3899993896484
1531.0870565,-56.6399993896484
1531.1026815,-56.0
1531.1183065,-55.4199981689453
1531.1339315,-54.7099990844727
1531.1495565,-53.560001373291
1531.1651815,-51.3300018310547
1531.1808065,-46.7799987792969
1531.1964315,-38.0099983215332
1531.2120565,-23.1800003051758
1531.2276815,-1.74000000953674
1531.2433065,24.7800006866455
1531.2589315,53.1800003051758
1531.2745565,79.4199981689453
1531.2901815,99.6999969482422
1531.3058065,111.790000915527
1531.3214315,115.800003051758
1531.3370565,113.709999084473
1531.3526815,108.089996337891
1531.3683065,100.860000610352
1531.3839315,92.6600036621094
1531.3995565,83.0299987792969
1531.4151815,71.1900024414063
1531.4308065,56.939998626709
1531.4464315,41.0299987792969
1531.4620565,25.0100002288818
1531.4776815,10.5799999237061
1531.4933065,-1.13999998569489
1531.5089315,-10.0900001525879
1531.5245565,-16.9599990844727
1531.5401815,-22.6800003051758
1531.5558065,-28.1000003814697
1531.5714315,-33.7200012207031
1531.5870565,-39.5900001525879
1531.6026815,-45.4099998474121
1531.6183065,-50.8699989318848
1531.6339315,-55.7299995422363
1531.6495565,-59.7599983215332
1531.6651815,-62.7400016784668
1531.6808065,-64.5899963378906
1531.6964315,-65.3300018310547
1531.7120565,-65.0500030517578
1531.7276815,-63.9199981689453
1531.7433065,-62.1800003051758
1531.7589315,-60.1100006103516
1531.7745565,-57.939998626709
1531.7901815,-55.6399993896484
1531.8058065,-53.060001373291
1531.8214315,-50.0999984741211
1531.8370565,-46.7599983215332
1531.8526815,-43.1199989318848
1531.8683065,-39.3199996948242
1531.8839315,-35.5
1531.8995565,-31.6200008392334
1531.9151815,-27.6299991607666
1531.9308065,-23.5699996948242
1531.9464315,-19.5200004577637
1531.9620565,-15.5100002288818
1531.9776815,-11.3299999237061
1531.9933065,-6.21000003814697
1532.0089315,1.49000000953674
1532.0245565,14.0900001525879
1532.0401815,33.3800010681152
1532.0558065,59.3400001525879
1532.0714315,89.7900009155273
1532.0870565,120.980003356934
1532.1026815,149.050003051758
1532.1183065,171.369995117188
1532.1339315,186.789993286133
1532.1495565,195.130004882813
1532.1651815,196.929992675781
1532.1808065,193.240005493164
1532.1964315,185.229995727539
1532.2120565,173.690002441406
1532.2276815,158.949996948242
1532.2433065,140.960006713867
1532.2589315,119.680000305176
1532.2745565,95.7200012207031
1532.2901815,70.620002746582
1532.3058065,46.3800010681152
1532.3214315,24.6900005340576
1532.3370565,6.23999977111816
1532.3526815,-9.3100004196167
1532.3683065,-23.0200004577637
1532.3839315,-35.8499984741211
1532.3995565,-48.2599983215332
1532.4151815,-60.2299995422363
1532.4308065,-71.4700012207031
1532.4464315,-81.620002746582
1532.4620565,-90.4700012207031
1532.4776815,-97.8899993896484
1532.4933065,-103.879997253418
1532.5089315,-108.550003051758
1532.5245565,-112.059997558594
1532.5401815,-114.48999786377
1532.5558065,-115.769996643066
1532.5714315,-115.930000305176
1532.5870565,-115.069999694824
1532.6026815,-113.389999389648
1532.6183065,-111.220001220703
1532.6339315,-108.769996643066
1532.6495565,-105.940002441406
1532.6651815,-102.529998779297
1532.6808065,-98.379997253418
1532.6964315,-93.5
1532.7120565,-88.0500030517578
1532.7276815,-82.3099975585938
1532.7433065,-76.5500030517578
1532.7589315,-70.9599990844727
1532.7745565,-65.5599975585938
1532.7901815,-60.0499992370605
1532.8058065,-53.9000015258789
1532.8214315,-46.2299995422363
1532.8370565,-35.6399993896484
1532.8526815,-20.0599994659424
1532.8683065,2.54999995231628
1532.8839315,32.560001373291
1532.8995565,67.0899963378906
1532.9151815,100.98999786377
1532.9308065,129.210006713867
1532.9464315,148.830001831055
1532.9620565,159.589996337891
1532.9776815,163.25
1532.9933065,162.160003662109
1533.0089315,157.929992675781
1533.0245565,151.210006713867
1533.0401815,142.220001220703
1533.0558065,131.119995117188
1533.0714315,117.800003051758
1533.0870565,102.069999694824
1533.1026815,84.0400009155273
1533.1183065,64.4899978637695
1533.1339315,44.7099990844727
1533.1495565,26.1800003051758
1533.1651815,10.0699996948242
1533.1808065,-3.10999989509583
1533.1964315,-13.710000038147
1533.2120565,-22.7199993133545
1533.2276815,-31.1499996185303
1533.2433065,-39.5999984741211
1533.2589315,-48.1300010681152
1533.2745565,-56.5200004577637
1533.2901815,-64.4499969482422
1533.3058065,-71.5299987792969
1533.3214315,-77.4400024414063
1533.3370565,-82.0199966430664
1533.3526815,-85.370002746582
1533.3683065,-87.6800003051758
1533.3839315,-89.1699981689453
1533.3995565,-89.9300003051758
1533.4151815,-89.9300003051758
1533.4308065,-89.0599975585938
1533.4464315,-87.25
1533.4620565,-84.5800018310547
1533.4776815,-81.2699966430664
1533.4933065,-77.5
1533.5089315,-73.1699981689453
1533.5245565,-68.1399993896484
1533.5401815,-62.6699981689453
1533.5558065,-57.3800010681152
1533.5714315,-52.7599983215332
1533.5870565,-48.8300018310547
1533.6026815,-45.3499984741211
1533.6183065,-42.0400009155273
1533.6339315,-38.6699981689453
1533.6495565,-34.7000007629395
1533.6651815,-28.8400001525879
1533.6808065,-18.8700008392334
1533.6964315,-2.51999998092651
1533.7120565,20.9500007629395
1533.7276815,49.7000007629395
1533.7433065,79.5999984741211
1533.7589315,105.940002441406
1533.7745565,125.400001525879
1533.7901815,137.169998168945
1533.8058065,142.5
1533.8214315,143.339996337891
1533.8370565,141.360000610352
1533.8526815,137.479995727539
1533.8683065,131.720001220703
1533.8839315,123.389999389648
1533.8995565,111.730003356934
1533.9151815,96.7699966430664
1533.9308065,79.5800018310547
1533.9464315,61.9700012207031
1533.9620565,45.7200012207031
1533.9776815,31.9599990844727
1533.9933065,20.8899993896484
1534.0089315,11.9499998092651
1534.0245565,4.03000020980835
1534.0401815,-3.92000007629395
1534.0558065,-12.5100002288818
1534.0714315,-21.6800003051758
1534.0870565,-30.9799995422363
1534.1026815,-39.8600006103516
1534.1183065,-47.8400001525879
1534.1339315,-54.689998626709
1534.1495565,-60.4599990844727
1534.1651815,-65.3000030517578
1534.1808065,-69.1900024414063
1534.1964315,-72.0100021362305
1534.2120565,-73.6900024414063
1534.2276815,-74.2799987792969
1534.2433065,-73.9499969482422
1534.2589315,-72.9599990844727
1534.2745565,-71.6699981689453
1534.2901815,-70.4400024414063
1534.3058065,-69.4300003051758
1534.3214315,-68.4800033569336
1534.3370565,-67.2900009155273
1534.3526815,-65.6500015258789
1534.3683065,-63.5699996948242
1534.3839315,-61.1599998474121
1534.3995565,-58.5200004577637
1534.4151815,-55.2900009155273
1534.4308065,-50.1800003051758
1534.4464315,-41.060001373291
1534.4620565,-25.7700004577637
1534.4776815,-3.53999996185303
1534.4933065,24.0400009155273
1534.5089315,53.2200012207031
1534.5245565,79.620002746582
1534.5401815,100.089996337891
1534.5558065,113.400001525879
1534.5714315,119.919998168945
1534.5870565,121.01000213623
1534.6026815,118.470001220703
1534.6183065,113.73999786377
1534.6339315,107.419998168945
1534.6495565,99.1500015258789
1534.6651815,88.3199996948242
1534.6808065,74.7900009155273
1534.6964315,59.310001373291
1534.7120565,43.310001373291
1534.7276815,28.4400005340576
1534.7433065,15.8400001525879
1534.7589315,5.86999988555908
1534.7745565,-1.92999994754791
1534.7901815,-8.59000015258789
1534.8058065,-15.0799999237061
1534.8214315,-21.8799991607666
1534.8370565,-28.8799991607666
1534.8526815,-35.6699981689453
1534.8683065,-41.7999992370605
1534.8839315,-47.0800018310547
1534.8995565,-51.5699996948242
1534.9151815,-55.4000015258789
1534.9308065,-58.5
1534.9464315,-60.7000007629395
1534.9620565,-61.939998626709
1534.9776815,-62.3300018310547
1534.9933065,-62.0699996948242
1535.0089315,-61.2700004577637
1535.0245565,-60.0200004577637
1535.0401815,-58.4599990844727
1535.0558065,-56.6699981689453
1535.0714315,-54.6199989318848
1535.0870565,-52.1399993896484
1535.1026815,-49.2000007629395
1535.1183065,-45.8600006103516
1535.1339315,-42.2700004577637
1535.1495565,-38.6399993896484
1535.1651815,-35.0699996948242
1535.1808065,-31.3500003814697
1535.1964315,-26.8899993896484
1535.2120565,-20.6800003051758
1535.2276815,-11.2200002670288
1535.2433065,3.23000001907349
1535.2589315,23.7299995422363
1535.2745565,49.4500007629395
1535.2901815,77.5999984741211
1535.3058065,104.25
1535.3214315,125.51000213623
1535.3370565,139.100006103516
1535.3526815,145.100006103516
1535.3683065,145.330001831055
1535.3839315,142.229995727539
1535.3995565,137.820007324219
1535.4151815,132.910003662109
1535.4308065,126.830001831055
1535.4464315,118.129997253418
1535.4620565,105.699996948242
1535.4776815,89.4599990844727
1535.4933065,70.5199966430664
1535.5089315,50.7299995422363
1535.5245565,32.060001373291
1535.5401815,15.8699998855591
1535.5558065,2.63000011444092
1535.5714315,-8.03999996185303
1535.5870565,-17.1499996185303
1535.6026815,-25.7999992370605
1535.6183065,-34.75
1535.6339315,-44.2000007629395
1535.6495565,-53.8800010681152
1535.6651815,-63.310001373291
1535.6808065,-71.8899993896484
1535.6964315,-79.129997253418
1535.7120565,-84.7399978637695
1535.7276815,-88.7699966430664
1535.7433065,-91.5299987792969
1535.7589315,-93.4100036621094
1535.7745565,-94.7099990844727
1535.7901815,-95.4700012207031
1535.8058065,-95.5299987792969
1535.8214315,-94.6100006103516
1535.8370565,-92.6500015258789
1535.8526815,-89.7900009155273
1535.8683065,-86.4100036621094
1535.8839315,-82.9499969482422
1535.8995565,-79.8300018310547
1535.9151815,-77.1600036621094
1535.9308065,-74.629997253418
1535.9464315,-71.7799987792969
1535.9620565,-68.2600021362305
1535.9776815,-63.8600006103516
1535.9933065,-58.2299995422363
1536.0089315,-50.4799995422363
1536.0245565,-38.8199996948242
1536.0401815,-21.0699996948242
1536.0558065,3.35999989509583
1536.0714315,31.9699993133545
1536.0870565,59.9700012207031
1536.1026815,82.870002746582
1536.1183065,98.3499984741211
1536.1339315,106.669998168945
1536.1495565,109.779998779297
1536.1651815,109.98999786377
1536.1808065,108.779998779297
1536.1964315,106.569999694824
1536.2120565,102.900001525879
1536.2276815,96.9300003051758
1536.2433065,87.9800033569336
1536.2589315,75.8399963378906
1536.2745565,61.1699981689453
1536.2901815,45.4599990844727
1536.3058065,30.5100002288818
1536.3214315,17.5799999237061
1536.3370565,7.01000022888184
1536.3526815,-1.52999997138977
1536.3683065,-8.59000015258789
1536.3839315,-14.7200002670288
1536.3995565,-20.5
1536.4151815,-26.4699993133545
1536.4308065,-32.8300018310547
1536.4464315,-39.2700004577637
1536.4620565,-45.25
1536.4776815,-50.310001373291
1536.4933065,-54.2200012207031
1536.5089315,-56.9900016784668
1536.5245565,-58.7999992370605
1536.5401815,-59.9000015258789
1536.5558065,-60.5699996948242
1536.5714315,-60.939998626709
1536.5870565,-60.8400001525879
1536.6026815,-60.0099983215332
1536.6183065,-58.2900009155273
1536.6339315,-55.7000007629395
1536.6495565,-52.5400009155273
1536.6651815,-49.2299995422363
1536.6808065,-46.0800018310547
1536.6964315,-43.1199989318848
1536.7120565,-40.1699981689453
1536.7276815,-37.0499992370605
1536.7433065,-33.6800003051758
1536.7589315,-29.9899997711182
1536.7745565,-25.8400001525879
1536.7901815,-20.9500007629395
1536.8058065,-15.0
1536.8214315,-7.6399998664856
1536.8370565,1.87000000476837
1536.8526815,14.9300003051758
1536.8683065,32.7000007629395
1536.8839315,54.75
1536.8995565,78.6100006103516
1536.9151815,100.699996948242
1536.9308065,118.089996337891
1536.9464315,129.350006103516
1536.9620565,134.570007324219
1536.9776815,134.850006103516
1536.9933065,131.759994506836
1537.0089315,126.720001220703
1537.0245565,120.589996337891
1537.0401815,113.470001220703
1537.0558065,104.769996643066
1537.0714315,93.5599975585938
1537.0870565,79.5100021362305
1537.1026815,63.4599990844727
1537.1183065,47.1399993896484
1537.1339315,32.2900009155273
1537.1495565,19.9400005340576
1537.1651815,10.1400003433228
1537.1808065,2.17000007629395
1537.1964315,-4.92999982833862
1537.2120565,-11.8800001144409
1537.2276815,-18.9699993133545
1537.2433065,-26.1499996185303
1537.2589315,-33.2099990844727
1537.2745565,-39.7799987792969
1537.2901815,-45.5099983215332
1537.3058065,-50.2999992370605
1537.3214315,-54.3800010681152
1537.3370565,-57.9900016784668
1537.3526815,-61.1399993896484
1537.3683065,-63.5999984741211
1537.3839315,-65.0299987792969
1537.3995565,-65.3300018310547
1537.4151815,-64.6999969482422
1537.4308065,-63.5800018310547
1537.4464315,-62.3300018310547
1537.4620565,-61.0299987792969
1537.4776815,-59.5900001525879
1537.4933065,-57.939998626709
1537.5089315,-56.0999984741211
1537.5245565,-54.1300010681152
1537.5401815,-52.060001373291
1537.5558065,-49.8400001525879
1537.5714315,-47.2400016784668
1537.5870565,-43.560001373291
1537.6026815,-37.2999992370605
1537.6183065,-26.5499992370605
1537.6339315,-10.1700000762939
1537.6495565,11.0600004196167
1537.6651815,34.5299987792969
1537.6808065,56.8699989318848
1537.6964315,75.1399993896484
1537.7120565,87.5599975585938
1537.7276815,93.8099975585938
1537.7433065,94.9800033569336
1537.7589315,92.7900009155273
1537.7745565,88.6800003051758
1537.7901815,83.3399963378906
1537.8058065,76.6500015258789
1537.8214315,68.0400009155273
1537.8370565,57.060001373291
1537.8526815,43.9900016784668
1537.8683065,29.8700008392334
1537.8839315,16.1299991607666
1537.8995565,3.99000000953674
1537.9151815,-5.8600001335144
1537.9308065,-13.5799999237061
1537.9464315,-19.9099998474121
1537.9620565,-25.7000007629395
1537.9776815,-31.5900001525879
1537.9933065,-37.7799987792969
1538.0089315,-44.0800018310547
1538.0245565,-50.1399993896484
1538.0401815,-55.7200012207031
1538.0558065,-60.75
1538.0714315,-65.2799987792969
1538.0870565,-69.3300018310547
1538.1026815,-72.7399978637695
1538.1183065,-75.25
1538.1339315,-76.6600036621094
1538.1495565,-76.9300003051758
1538.1651815,-76.1500015258789
1538.1808065,-74.5299987792969
1538.1964315,-72.2600021362305
1538.2120565,-69.5
1538.2276815,-66.4000015258789
1538.2433065,-63.0900001525879
1538.2589315,-59.5900001525879
1538.2745565,-55.7999992370605
1538.2901815,-51.6800003051758
1538.3058065,-47.2799987792969
1538.3214315,-42.75
1538.3370565,-37.9199981689453
1538.3526815,-31.8999996185303
1538.3683065,-22.9099998474121
1538.3839315,-8.93000030517578
1538.3995565,11.1300001144409
1538.4151815,36.3499984741211
1538.4308065,63.7999992370605
1538.4464315,89.5400009155273
1538.4620565,109.970001220703
1538.4776815,123.099998474121
1538.4933065,129.139999389648
1538.5089315,129.860000610352
1538.5245565,127.519996643066
1538.5401815,123.769996643066
1538.5558065,119.150001525879
1538.5714315,113.25
1538.5870565,105.209999084473
1538.6026815,94.2600021362305
1538.6183065,80.2600021362305
1538.6339315,64.0
1538.6495565,47.0800018310547
1538.6651815,31.3199996948242
1538.6808065,17.9500007629395
1538.6964315,7.28999996185303
1538.7120565,-1.07000005245209
1538.7276815,-7.92000007629395
1538.7433065,-14.0699996948242
1538.7589315,-20.1700000762939
1538.7745565,-26.5200004577637
1538.7901815,-33.0299987792969
1538.8058065,-39.3800010681152
1538.8214315,-45.3400001525879
1538.8370565,-50.6599998474121
1538.8526815,-55.0800018310547
1538.8683065,-58.4099998474121
1538.8839315,-60.6500015258789
1538.8995565,-61.9199981689453
1538.9151815,-62.4000015258789
1538.9308065,-62.3499984741211
1538.9464315,-61.9000015258789
1538.9620565,-60.939998626709
1538.9776815,-59.2799987792969
1538.9933065,-56.8400001525879
1539.0089315,-53.689998626709
1539.0245565,-50.0900001525879
1539.0401815,-46.4099998474121
1539.0558065,-42.9900016784668
1539.0714315,-40.0800018310547
1539.0870565,-37.6699981689453
1539.1026815,-35.4500007629395
1539.1183065,-32.7299995422363
1539.1339315,-28.5200004577637
1539.1495565,-21.4099998474121
1539.1651815,-9.57999992370605
1539.1808065,8.56999969482422
1539.1964315,32.7999992370605
1539.2120565,59.9500007629395
1539.2276815,85.370002746582
1539.2433065,105.209999084473
1539.2589315,117.720001220703
1539.2745565,123.370002746582
1539.2901815,123.949996948242
1539.3058065,121.430000305176
1539.3214315,116.959999084473
1539.3370565,110.900001525879
1539.3526815,103.370002746582
1539.3683065,94.4300003051758
1539.3839315,83.9300003051758
1539.3995565,71.4899978637695
1539.4151815,56.8300018310547
1539.4308065,40.3199996948242
1539.4464315,23.1599998474121
1539.4620565,7.01000022888184
1539.4776815,-6.59000015258789
1539.4933065,-16.9500007629395
1539.5089315,-24.4500007629395
1539.5245565,-30.25
1539.5401815,-35.6399993896484
1539.5558065,-41.4199981689453
1539.5714315,-47.7799987792969
1539.5870565,-54.5200004577637
1539.6026815,-61.2799987792969
1539.6183065,-67.5400009155273
1539.6339315,-72.8300018310547
1539.6495565,-76.8399963378906
1539.6651815,-79.5500030517578
1539.6808065,-81.2600021362305
1539.6964315,-82.4000015258789
1539.7120565,-83.129997253418
1539.7276815,-83.25
1539.7433065,-82.4800033569336
1539.7589315,-80.75
1539.7745565,-78.2600021362305
1539.7901815,-75.2799987792969
1539.8058065,-72.0999984741211
1539.8214315,-68.9400024414063
1539.8370565,-66.0400009155273
1539.8526815,-63.4500007629395
1539.8683065,-60.9500007629395
1539.8839315,-58.1199989318848
1539.8995565,-54.6599998474121
1539.9151815,-50.4599990844727
1539.9308065,-45.3600006103516
1539.9464315,-38.6399993896484
1539.9620565,-28.6800003051758
1539.9776815,-13.4499998092651
1539.9933065,8.10000038146973
1540.0089315,34.8400001525879
1540.0245565,63.3899993896484
1540.0401815,89.5100021362305
1540.0558065,109.620002746582
1540.0714315,121.669998168945
1540.0870565,125.830001831055
1540.1026815,124.639999389648
1540.1183065,121.5
1540.1339315,118.650001525879
1540.1495565,116.309997558594
1540.1651815,113.279998779297
1540.1808065,107.940002441406
1540.1964315,99.0100021362305
1540.2120565,85.9899978637695
1540.2276815,69.4700012207031
1540.2433065,51.2000007629395
1540.2589315,33.5499992370605
1540.2745565,18.4099998474121
1540.2901815,6.59999990463257
1540.3058065,-2.21000003814697
1540.3214315,-9.06999969482422
1540.3370565,-15.1700000762939
1540.3526815,-21.4899997711182
1540.3683065,-28.5100002288818
1540.3839315,-36.0800018310547
1540.3995565,-43.5699996948242
1540.4151815,-50.2400016784668
1540.4308065,-55.5699996948242
1540.4464315,-59.4900016784668
1540.4620565,-62.310001373291
1540.4776815,-64.3499984741211
1540.4933065,-65.6600036621094
1540.5089315,-66.1699981689453
1540.5245565,-65.8600006103516
1540.5401815,-64.8899993896484
1540.5558065,-63.4199981689453
1540.5714315,-61.560001373291
1540.5870565,-59.4300003051758
1540.6026815,-57.2000007629395
1540.6183065,-54.9500007629395
1540.6339315,-52.6800003051758
1540.6495565,-50.2799987792969
1540.6651815,-47.5999984741211
1540.6808065,-44.5800018310547
1540.6964315,-41.2099990844727
1540.7120565,-37.4500007629395
1540.7276815,-32.7400016784668
1540.7433065,-25.5400009155273
1540.7589315,-13.710000038147
1540.7745565,4.21000003814697
1540.7901815,27.7800006866455
1540.8058065,54.2099990844727
1540.8214315,79.5299987792969
1540.8370565,100.220001220703
1540.8526815,114.449996948242
1540.8683065,122.139999389648
1540.8839315,124.26000213623
1540.8995565,122.23999786377
1540.9151815,117.400001525879
1540.9308065,110.540000915527
1540.9464315,101.660003662109
1540.9620565,90.2799987792969
1540.9776815,76.1800003051758
1540.9933065,60.0400009155273
1541.0089315,43.3600006103516
1541.0245565,27.8299999237061
1541.0401815,14.6700000762939
1541.0558065,4.21000003814697
1541.0714315,-4.01000022888184
1541.0870565,-11.0
1541.1026815,-17.8099994659424
1541.1183065,-25.1100006103516
1541.1339315,-32.8400001525879
1541.1495565,-40.4000015258789
1541.1651815,-47.2000007629395
1541.1808065,-52.939998626709
1541.1964315,-57.5999984741211
1541.2120565,-61.439998626709
1541.2276815,-64.7099990844727
1541.2433065,-67.3399963378906
1541.2589315,-69.0400009155273
1541.2745565,-69.6399993896484
1541.2901815,-69.1800003051758
1541.3058065,-67.9199981689453
1541.3214315,-66.120002746582
1541.3370565,-64.0
1541.3526815,-61.7599983215332
