Time(s),Value(%)
1616.0085057,138.589996337891
1616.0241307,134.520004272461
1616.0397557,130.690002441406
1616.0553807,127.080001831055
1616.0710057,123.470001220703
1616.0866307,119.660003662109
1616.1022557,115.550003051758
1616.1178807,111.080001831055
1616.1335057,106.150001525879
1616.1491307,100.650001525879
1616.1647557,94.6900024414063
1616.1803807,88.6800003051758
1616.1960057,83.1999969482422
1616.2116307,78.5999984741211
1616.2272557,74.6500015258789
1616.2428807,70.9100036621094
1616.2585057,67.2300033569336
1616.2741307,63.7999992370605
1616.2897557,60.9300003051758
1616.3053807,58.7200012207031
1616.3210057,57.1599998474121
1616.3366307,56.4099998474121
1616.3522557,57.0200004577637
1616.3678807,59.5800018310547
1616.3835057,64.1600036621094
1616.3991307,70.3300018310547
1616.4147557,77.5199966430664
1616.4303807,85.2699966430664
1616.4460057,93.1500015258789
1616.4616307,100.610000610352
1616.4772557,106.949996948242
1616.4928807,111.589996337891
1616.5085057,114.349998474121
1616.5241307,115.360000610352
1616.5397557,114.839996337891
1616.5553807,113.019996643066
1616.5710057,110.220001220703
1616.5866307,106.889999389648
1616.6022557,103.400001525879
1616.6178807,99.9499969482422
1616.6335057,96.4899978637695
1616.6491307,92.8399963378906
1616.6647557,88.8600006103516
1616.6803807,84.4800033569336
1616.6960057,79.5699996948242
1616.7116307,74.0599975585938
1616.7272557,68.0699996948242
1616.7428807,61.9799995422363
1616.7585057,56.310001373291
1616.7741307,51.3400001525879
1616.7897557,46.8699989318848
1616.8053807,41.8199996948242
1616.8210057,36.9099998474121
1616.8366307,32.3300018310547
1616.8522557,28.3500003814697
1616.8678807,25.0699996948242
1616.8835057,22.4300003051758
1616.8991307,20.4300003051758
1616.9147557,19.2600002288818
1616.9303807,19.1399993896484
1616.9460057,20.1000003814697
1616.9616307,22.0400009155273
1616.9772557,24.8999996185303
1616.9928807,28.6700000762939
1617.0085057,33.1500015258789
1617.0241307,37.9099998474121
1617.0397557,42.4500007629395
1617.0553807,46.4199981689453
1617.0710057,49.7200012207031
1617.0866307,52.3400001525879
1617.1022557,54.0999984741211
1617.1178807,54.7400016784668
1617.1335057,54.2400016784668
1617.1491307,52.8600006103516
1617.1647557,51.0200004577637
1617.1803807,48.9900016784668
1617.1960057,46.7900009155273
1617.2116307,44.2299995422363
1617.2272557,41.2099990844727
1617.2428807,37.7299995422363
1617.2585057,33.8800010681152
1617.2741307,29.75
1617.2897557,25.4799995422363
1617.3053807,21.2900009155273
1617.3210057,17.4400005340576
1617.3366307,13.9899997711182
1617.3522557,10.7799997329712
1617.3678807,7.53000020980835
1617.3835057,4.17000007629395
1617.3991307,0.839999973773956
1617.4147557,-2.22000002861023
1617.4303807,-4.90000009536743
1617.4460057,-7.19999980926514
1617.4616307,-9.14000034332275
1617.4772557,-10.7399997711182
1617.4928807,-11.9300003051758
1617.5085057,-12.6899995803833
1617.5241307,-12.8999996185303
1617.5397557,-12.25
1617.5553807,-10.4700002670288
1617.5710057,-7.57999992370605
1617.5866307,-3.92000007629395
1617.6022557,0.0799999982118607
1617.6178807,4.15999984741211
1617.6335057,8.26000022888184
1617.6491307,12.2399997711182
1617.6647557,15.6899995803833
1617.6803807,18.0400009155273
1617.6960057,18.9899997711182
1617.7116307,18.6700000762939
1617.7272557,17.5300006866455
1617.7428807,15.9899997711182
1617.7585057,14.25
1617.7741307,12.2399997711182
1617.7897557,9.80000019073486
1617.8053807,7.09999990463257
1617.8210057,3.96000003814697
1617.8366307,0.699999988079071
1617.8522557,-2.39000010490417
1617.8678807,-5.21000003814697
1617.8835057,-7.80000019073486
1617.8991307,-10.3800001144409
1617.9147557,-13.289999961853
1617.9303807,-16.7900009155273
1617.9460057,-20.9500007629395
1617.9616307,-25.7199993133545
1617.9772557,-31.1200008392334
1617.9928807,-37.1800003051758
1618.0085057,-43.7599983215332
1618.0241307,-50.4099998474121
1618.0397557,-56.3899993896484
1618.0553807,-61.0
1618.0710057,-63.9300003051758
1618.0866307,-65.1900024414063
1618.1022557,-64.9800033569336
1618.1178807,-63.5200004577637
1618.1335057,-61.1500015258789
1618.1491307,-58.2999992370605
1618.1647557,-55.310001373291
1618.1803807,-52.1300010681152
1618.1960057,-48.2599983215332
1618.2116307,-43.1300010681152
1618.2272557,-36.5699996948242
1618.2428807,-29.0200004577637
1618.2585057,-21.25
1618.2741307,-13.9399995803833
1618.2897557,-7.53999996185303
1618.3053807,-2.41000008583069
1618.3210057,0.949999988079071
1618.3366307,2.04999995231628
1618.3522557,0.779999971389771
1618.3678807,-2.39000010490417
1618.3835057,-6.6100001335144
1618.3991307,-10.9700002670288
1618.4147557,-14.8500003814697
1618.4303807,-18.0599994659424
1618.4460057,-20.75
1618.4616307,-23.25
1618.4772557,-25.9300003051758
1618.4928807,-29.0599994659424
1618.5085057,-32.6800003051758
1618.5241307,-36.75
1618.5397557,-41.3699989318848
1618.5553807,-46.6599998474121
1618.5710057,-52.5200004577637
1618.5866307,-58.4700012207031
1618.6022557,-63.7200012207031
1618.6178807,-67.7300033569336
1618.6335057,-70.5299987792969
1618.6491307,-72.5
1618.6647557,-73.870002746582
1618.6803807,-74.5999984741211
1618.6960057,-74.5800018310547
1618.7116307,-73.879997253418
1618.7272557,-72.5999984741211
1618.7428807,-70.5500030517578
1618.7585057,-66.9899978637695
1618.7741307,-61.1500015258789
1618.7897557,-52.9099998474121
1618.8053807,-43.9599990844727
1618.8210057,-33.8300018310547
1618.8366307,-23.5100002288818
1618.8522557,-13.6999998092651
1618.8678807,-4.96999979019165
1618.8835057,1.96000003814697
1618.8991307,6.46000003814697
1618.9147557,8.3100004196167
1618.9303807,7.90999984741211
1618.9460057,6.03000020980835
1618.9616307,3.50999999046326
1618.9772557,0.970000028610229
1618.9928807,-1.26999998092651
1619.0085057,-3.19000005722046
1619.0241307,-4.96000003814697
1619.0397557,-6.86999988555908
1619.0553807,-9.14999961853027
1619.0710057,-11.8699998855591
1619.0866307,-15.0500001907349
1619.1022557,-18.8299999237061
1619.1178807,-23.3500003814697
1619.1335057,-28.5300006866455
1619.1491307,-33.8699989318848
1619.1647557,-38.6399993896484
1619.1803807,-42.4199981689453
1619.1960057,-45.439998626709
1619.2116307,-48.310001373291
1619.2272557,-51.25
1619.2428807,-54.0099983215332
1619.2585057,-56.1800003051758
1619.2741307,-57.5200004577637
1619.2897557,-58.0400009155273
1619.3053807,-57.5699996948242
1619.3210057,-55.5099983215332
1619.3366307,-51.2400016784668
1619.3522557,-44.6599998474121
1619.3678807,-36.2299995422363
1619.3835057,-26.5499992370605
1619.3991307,-16.1200008392334
1619.4147557,-5.42000007629395
1619.4303807,4.96000003814697
1619.4460057,14.3400001525879
1619.4616307,22.1000003814697
1619.4772557,27.9599990844727
1619.4928807,31.8999996185303
1619.5085057,34.0
1619.5241307,34.4500007629395
1619.5397557,33.6100006103516
1619.5553807,32.0400009155273
1619.5710057,30.25
1619.5866307,28.5
1619.6022557,26.7199993133545
1619.6178807,24.6399993896484
1619.6335057,22.1100006103516
1619.6491307,19.0
1619.6647557,15.2299995422363
1619.6803807,10.7200002670288
1619.6960057,5.63000011444092
1619.7116307,0.479999989271164
1619.7272557,-4.05000019073486
1619.7428807,-7.57000017166138
1619.7585057,-10.3400001525879
1619.7741307,-12.9099998474121
1619.7897557,-15.5699996948242
1619.8053807,-18.4300003051758
1619.8210057,-21.2600002288818
1619.8366307,-24.1000003814697
1619.8522557,-26.9899997711182
1619.8678807,-29.6800003051758
1619.8835057,-31.5400009155273
1619.8991307,-31.6299991607666
1619.9147557,-29.0499992370605
1619.9303807,-23.3500003814697
1619.9460057,-14.789999961853
1619.9616307,-4.26000022888184
1619.9772557,7.05000019073486
1619.9928807,18.1200008392334
1620.0085057,28.2800006866455
1620.0241307,37.189998626709
1620.0397557,44.6399993896484
1620.0553807,50.5499992370605
1620.0710057,55.0800018310547
1620.0866307,58.4799995422363
1620.1022557,60.9700012207031
1620.1178807,62.6800003051758
1620.1335057,63.689998626709
1620.1491307,64.0100021362305
1620.1647557,63.4700012207031
1620.1803807,61.7999992370605
1620.1960057,58.8899993896484
1620.2116307,55.0099983215332
1620.2272557,50.7900009155273
1620.2428807,46.9500007629395
1620.2585057,43.9199981689453
1620.2741307,41.7000007629395
1620.2897557,39.9799995422363
1620.3053807,38.2000007629395
1620.3210057,35.7400016784668
1620.3366307,32.1699981689453
1620.3522557,27.4699993133545
1620.3678807,21.8299999237061
1620.3835057,15.3900003433228
1620.3991307,8.19999980926514
1620.4147557,0.46000000834465
1620.4303807,-7.17999982833862
1620.4460057,-13.6800003051758
1620.4616307,-17.8700008392334
1620.4772557,-18.8600006103516
1620.4928807,-16.3400001525879
1620.5085057,-10.6400003433228
1620.5241307,-2.64000010490417
1620.5397557,6.51000022888184
1620.5553807,15.7200002670288
1620.5710057,24.2600002288818
1620.5866307,32.0400009155273
1620.6022557,39.4500007629395
1620.6178807,47.0499992370605
1620.6335057,55.0699996948242
1620.6491307,63.310001373291
1620.6647557,71.25
1620.6803807,78.4000015258789
1620.6960057,84.4000015258789
1620.7116307,88.8300018310547
1620.7272557,90.9400024414063
1620.7428807,90.0899963378906
1620.7585057,86.2600021362305
1620.7741307,80.3099975585938
1620.7897557,73.5299987792969
1620.8053807,67.5299987792969
1620.8210057,62.3699989318848
1620.8366307,58.0800018310547
1620.8522557,54.2799987792969
1620.8678807,50.3600006103516
1620.8835057,45.6300010681152
1620.8991307,39.6300010681152
1620.9147557,32.3199996948242
1620.9303807,23.9300003051758
1620.9460057,14.5299997329712
1620.9616307,4.11999988555908
1620.9772557,-7.07999992370605
1620.9928807,-18.3700008392334
1621.0085057,-28.5900001525879
1621.0241307,-36.6300010681152
1621.0397557,-41.7999992370605
1621.0553807,-43.9599990844727
1621.0710057,-43.2999992370605
1621.0866307,-40.310001373291
1621.1022557,-35.75
1621.1178807,-30.5100002288818
1621.1335057,-25.2600002288818
1621.1491307,-19.9699993133545
1621.1647557,-13.7799997329712
1621.1803807,-5.69999980926514
1621.1960057,4.55000019073486
1621.2116307,16.3799991607666
1621.2272557,28.6700000762939
1621.2428807,40.439998626709
1621.2585057,50.9599990844727
1621.2741307,59.4900016784668
1621.2897557,64.9000015258789
1621.3053807,66.2200012207031
1621.3210057,63.4199981689453
1621.3366307,57.5299987792969
1621.3522557,50.0699996948242
1621.3678807,42.310001373291
1621.3835057,34.7900009155273
1621.3991307,27.4500007629395
1621.4147557,20.0799999237061
1621.4303807,12.6300001144409
1621.4460057,5.26000022888184
1621.4616307,-1.92999994754791
1621.4772557,-9.21000003814697
1621.4928807,-16.8700008392334
1621.5085057,-24.8299999237061
1621.5241307,-32.6300010681152
1621.5397557,-39.7299995422363
1621.5553807,-45.9000015258789
1621.5710057,-51.1599998474121
1621.5866307,-55.7000007629395
1621.6022557,-59.6300010681152
1621.6178807,-62.939998626709
1621.6335057,-65.5599975585938
1621.6491307,-66.9899978637695
1621.6647557,-66.2200012207031
1621.6803807,-62.3300018310547
1621.6960057,-55.2700004577637
1621.7116307,-45.8800010681152
1621.7272557,-35.2299995422363
1621.7428807,-23.9799995422363
1621.7585057,-12.210000038147
1621.7741307,-0.25
1621.7897557,10.7200002670288
1621.8053807,19.2299995422363
1621.8210057,24.4200000762939
1621.8366307,26.6499996185303
1621.8522557,27.0
1621.8678807,26.3999996185303
1621.8835057,24.9599990844727
1621.8991307,22.2199993133545
1621.9147557,17.9200000762939
1621.9303807,12.2299995422363
1621.9460057,5.71999979019165
1621.9616307,-1.03999996185303
1621.9772557,-7.59000015258789
1621.9928807,-13.6300001144409
1622.0085057,-19.0400009155273
1622.0241307,-23.9699993133545
1622.0397557,-28.8700008392334
1622.0553807,-34.1800003051758
1622.0710057,-39.9799995422363
1622.0866307,-45.9500007629395
1622.1022557,-51.6399993896484
1622.1178807,-56.7200012207031
1622.1335057,-61.1500015258789
1622.1491307,-65.1100006103516
1622.1647557,-68.9800033569336
1622.1803807,-73.0800018310547
1622.1960057,-77.3600006103516
1622.2116307,-81.0800018310547
1622.2272557,-82.8000030517578
1622.2428807,-81.2200012207031
1622.2585057,-76.0699996948242
1622.2741307,-68.0400009155273
1622.2897557,-58.0499992370605
1622.3053807,-46.4900016784668
1622.3210057,-33.2599983215332
1622.3366307,-18.6800003051758
1622.3522557,-4.17999982833862
1622.3678807,8.21000003814697
1622.3835057,17.2399997711182
1622.3991307,22.9699993133545
1622.4147557,26.4300003051758
1622.4303807,28.5200004577637
1622.4460057,29.3700008392334
1622.4616307,28.5400009155273
1622.4772557,25.75
1622.4928807,21.3099994659424
1622.5085057,15.8699998855591
1622.5241307,10.1199998855591
1622.5397557,4.53000020980835
1622.5553807,-0.639999985694885
1622.5710057,-5.44999980926514
1622.5866307,-10.1599998474121
1622.6022557,-15.210000038147
1622.6178807,-20.8700008392334
1622.6335057,-27.0400009155273
1622.6491307,-33.2299995422363
1622.6647557,-38.9700012207031
1622.6803807,-43.9799995422363
1622.6960057,-48.2799987792969
1622.7116307,-52.1800003051758
1622.7272557,-56.1199989318848
1622.7428807,-60.4799995422363
1622.7585057,-65.1900024414063
1622.7741307,-69.4499969482422
1622.7897557,-71.7300033569336
1622.8053807,-70.7399978637695
1622.8210057,-66.0800018310547
1622.8366307,-58.4500007629395
1622.8522557,-48.7299995422363
1622.8678807,-37.1699981689453
1622.8835057,-23.4099998474121
1622.8991307,-7.51000022888184
1622.9147557,9.05000019073486
1622.9303807,24.0300006866455
1622.9460057,35.7599983215332
1622.9616307,44.0099983215332
1622.9772557,49.6399993896484
1622.9928807,53.5
1623.0085057,55.6500015258789
1623.0241307,55.6199989318848
1623.0397557,53.2099990844727
1623.0553807,48.9099998474121
1623.0710057,43.6699981689453
1623.0866307,38.4300003051758
1623.1022557,33.7299995422363
1623.1178807,29.5200004577637
1623.1335057,25.2800006866455
1623.1491307,20.4300003051758
1623.1647557,14.6899995803833
1623.1803807,8.0600004196167
1623.1960057,0.569999992847443
1623.2116307,-7.71000003814697
1623.2272557,-16.5799999237061
1623.2428807,-25.5300006866455
1623.2585057,-33.9700012207031
1623.2741307,-41.6399993896484
1623.2897557,-48.8300018310547
1623.3053807,-55.9500007629395
1623.3210057,-62.8499984741211
1623.3366307,-68.5299987792969
1623.3522557,-71.5100021362305
1623.3678807,-70.7799987792969
1623.3835057,-66.4300003051758
1623.3991307,-59.439998626709
1623.4147557,-50.810001373291
1623.4303807,-40.7099990844727
1623.4460057,-28.5599994659424
1623.4616307,-14.1000003814697
1623.4772557,1.5900000333786
1623.4928807,16.6200008392334
1623.5085057,29.6000003814697
1623.5241307,40.3300018310547
1623.5397557,49.3499984741211
1623.5553807,56.9199981689453
1623.5710057,62.3699989318848
1623.5866307,64.620002746582
1623.6022557,63.1300010681152
1623.6178807,58.2999992370605
1623.6335057,51.1500015258789
1623.6491307,42.8699989318848
1623.6647557,34.4300003051758
1623.6803807,26.4200000762939
1623.6960057,19.0699996948242
1623.7116307,12.1999998092651
1623.7272557,5.42000007629395
1623.7428807,-1.64999997615814
1623.7585057,-9.1899995803833
1623.7741307,-17.2800006866455
1623.7897557,-26.1800003051758
1623.8053807,-36.1199989318848
1623.8210057,-46.9700012207031
1623.8366307,-57.9599990844727
1623.8522557,-67.9899978637695
1623.8678807,-76.2600021362305
1623.8835057,-82.8199996948242
1623.8991307,-88.1500015258789
1623.9147557,-92.4599990844727
1623.9303807,-95.5500030517578
1623.9460057,-97.2200012207031
1623.9616307,-97.5899963378906
1623.9772557,-96.8499984741211
1623.9928807,-94.4000015258789
1624.0085057,-88.4899978637695
1624.0241307,-77.3300018310547
1624.0397557,-60.689998626709
1624.0553807,-40.25
1624.0710057,-18.6700000762939
1624.0866307,1.76999998092651
1624.1022557,19.7399997711182
1624.1178807,34.4099998474121
1624.1335057,44.8600006103516
1624.1491307,50.4199981689453
1624.1647557,51.3899993896484
1624.1803807,48.9900016784668
1624.1960057,44.7200012207031
1624.2116307,39.7400016784668
1624.2272557,34.7200012207031
1624.2428807,29.8700008392334
1624.2585057,25.0200004577637
1624.2741307,19.6800003051758
1624.2897557,13.2700004577637
1624.3053807,5.61999988555908
1624.3210057,-2.8199999332428
1624.3366307,-11.4300003051758
1624.3522557,-20.1200008392334
1624.3678807,-29.3099994659424
1624.3835057,-39.25
1624.3991307,-49.4700012207031
1624.4147557,-58.9599990844727
1624.4303807,-67.0299987792969
1624.4460057,-73.9800033569336
1624.4616307,-80.5699996948242
1624.4772557,-86.9199981689453
1624.4928807,-92.4100036621094
1624.5085057,-96.3300018310547
1624.5241307,-98.4800033569336
1624.5397557,-99.0599975585938
1624.5553807,-97.9499969482422
1624.5710057,-94.2200012207031
1624.5866307,-86.8099975585938
1624.6022557,-75.5899963378906
1624.6178807,-61.5900001525879
1624.6335057,-46.4300003051758
1624.6491307,-31.4899997711182
1624.6647557,-17.6399993896484
1624.6803807,-5.36999988555908
1624.6960057,4.80999994277954
1624.7116307,12.3999996185303
1624.7272557,16.9799995422363
1624.7428807,18.5599994659424
1624.7585057,17.6800003051758
1624.7741307,15.289999961853
1624.7897557,12.3900003433228
1624.8053807,9.72999954223633
1624.8210057,7.59999990463257
1624.8366307,5.78000020980835
1624.8522557,3.65000009536743
1624.8678807,0.589999973773956
1624.8835057,-3.64000010490417
1624.8991307,-9.13000011444092
1624.9147557,-16.1399993896484
1624.9303807,-24.9099998474121
1624.9460057,-35.1500015258789
1624.9616307,-45.5800018310547
1624.9772557,-54.3400001525879
1624.9928807,-60.2200012207031
1625.0085057,-63.6500015258789
1625.0241307,-65.9800033569336
1625.0397557,-67.9700012207031
1625.0553807,-69.370002746582
1625.0710057,-69.5699996948242
1625.0866307,-68.3000030517578
1625.1022557,-65.6900024414063
1625.1178807,-61.810001373291
1625.1335057,-56.189998626709
1625.1491307,-48.2299995422363
1625.1647557,-37.8800010681152
1625.1803807,-25.8400001525879
1625.1960057,-13.1599998474121
1625.2116307,-0.75
1625.2272557,10.8500003814697
1625.2428807,21.5300006866455
1625.2585057,31.3400001525879
1625.2741307,40.1800003051758
1625.2897557,47.6300010681152
1625.3053807,53.1800003051758
1625.3210057,56.7000007629395
1625.3366307,58.5900001525879
1625.3522557,59.5299987792969
1625.3678807,60.2400016784668
1625.3835057,61.0999984741211
1625.3991307,61.9300003051758
1625.4147557,62.060001373291
1625.4303807,60.7799987792969
1625.4460057,57.7999992370605
1625.4616307,53.0900001525879
1625.4772557,46.4900016784668
1625.4928807,37.810001373291
1625.5085057,27.4599990844727
1625.5241307,16.8500003814697
1625.5397557,8.05000019073486
1625.5553807,2.36999988555908
1625.5710057,-0.639999985694885
1625.5866307,-2.5
1625.6022557,-4.19000005722046
1625.6178807,-5.86999988555908
1625.6335057,-7.67000007629395
1625.6491307,-9.97999954223633
1625.6647557,-13.0
1625.6803807,-16.1200008392334
1625.6960057,-17.8799991607666
1625.7116307,-16.8400001525879
1625.7272557,-12.539999961853
1625.7428807,-5.44000005722046
1625.7585057,3.76999998092651
1625.7741307,14.5799999237061
1625.7897557,26.3999996185303
1625.8053807,38.6100006103516
1625.8210057,50.4900016784668
1625.8366307,61.2599983215332
1625.8522557,70.0100021362305
1625.8678807,76.1600036621094
1625.8835057,79.6999969482422
1625.8991307,80.9800033569336
1625.9147557,80.2200012207031
1625.9303807,77.5
1625.9460057,73.1900024414063
1625.9616307,68.3300018310547
1625.9772557,64.4000015258789
1625.9928807,62.3499984741211
1626.0085057,61.8699989318848
1626.0241307,61.9799995422363
1626.0397557,62.2099990844727
1626.0553807,62.8699989318848
1626.0710057,64.4499969482422
1626.0866307,67.0999984741211
1626.1022557,70.4300003051758
1626.1178807,73.6100006103516
1626.1335057,75.5699996948242
1626.1491307,75.5100021362305
1626.1647557,73.3199996948242
1626.1803807,69.2699966430664
1626.1960057,63.5499992370605
1626.2116307,56.25
1626.2272557,47.7700004577637
1626.2428807,39.4500007629395
1626.2585057,33.3699989318848
1626.2741307,31.4200000762939
1626.2897557,34.1399993896484
1626.3053807,40.7799987792969
1626.3210057,50.1399993896484
1626.3366307,61.1500015258789
1626.3522557,72.9000015258789
1626.3678807,84.629997253418
1626.3835057,95.7600021362305
1626.3991307,105.830001831055
