Time(s),Value(%)
169.0093332,168.839996337891
169.0249582,131.240005493164
169.0405832,95.0599975585938
169.0562082,62.0
169.0718332,32.7200012207031
169.0874582,7.05000019073486
169.1030832,-15.5900001525879
169.1187082,-36.0200004577637
169.1343332,-54.8699989318848
169.1499582,-72.379997253418
169.1655832,-88.4599990844727
169.1812082,-102.860000610352
169.1968332,-115.440002441406
169.2124582,-126.349998474121
169.2280832,-136.100006103516
169.2437082,-145.080001831055
169.2593332,-153.119995117188
169.2749582,-159.690002441406
169.2905832,-164.360000610352
169.3062082,-167.149993896484
169.3218332,-168.619995117188
169.3374582,-169.470001220703
169.3530832,-169.910003662109
169.3687082,-169.25
169.3843332,-166.520004272461
169.3999582,-161.619995117188
169.4155832,-155.550003051758
169.4312082,-149.639999389648
169.4468332,-144.559997558594
169.4624582,-139.759994506836
169.4780832,-132.949996948242
169.4937082,-120.25
169.5093332,-97.7099990844727
169.5249582,-63.4099998474121
169.5405832,-18.6000003814697
169.5562082,32.7999992370605
169.5718332,85.6800003051758
169.5874582,135.320007324219
169.6030832,178.440002441406
169.6187082,213.539993286133
169.6343332,240.559997558594
169.6499582,259.609985351563
169.6655832,270.040008544922
169.6812082,271.049987792969
169.6968332,262.570007324219
169.7124582,245.449996948242
169.7280832,221.100006103516
169.7437082,190.919998168945
169.7593332,156.369995117188
169.7749582,119.5
169.7905832,82.7900009155273
169.8062082,48.5099983215332
169.8218332,18.1299991607666
169.8374582,-7.96999979019165
169.8530832,-30.1200008392334
169.8687082,-48.6199989318848
169.8843332,-63.9900016784668
169.8999582,-77.5400009155273
169.9155832,-90.8099975585938
169.9312082,-104.319999694824
169.9468332,-117.48999786377
169.9624582,-129.350006103516
169.9780832,-139.229995727539
169.9937082,-147.100006103516
170.0093332,-153.479995727539
170.0249582,-158.880004882813
170.0405832,-163.279998779297
170.0562082,-166.130004882813
170.0718332,-166.889999389648
170.0874582,-165.479995727539
170.1030832,-162.320007324219
170.1187082,-158.110000610352
170.1343332,-153.529998779297
170.1499582,-149.160003662109
170.1655832,-145.190002441406
170.1812082,-141.100006103516
170.1968332,-135.779998779297
170.2124582,-127.559997558594
170.2280832,-114.319999694824
170.2437082,-93.4599990844727
170.2593332,-62.5699996948242
170.2749582,-21.2299995422363
170.2905832,27.8199996948242
170.3062082,79.6699981689453
170.3218332,129.229995727539
170.3374582,172.889999389648
170.3530832,208.809997558594
170.3687082,236.440002441406
170.3843332,255.960006713867
170.3999582,267.910003662109
170.4155832,272.589996337891
170.4312082,269.489990234375
170.4468332,257.839996337891
170.4624582,237.559997558594
170.4780832,209.740005493164
170.4937082,176.570007324219
170.5093332,140.860000610352
170.5249582,105.400001525879
170.5405832,72.4899978637695
170.5562082,43.5299987792969
170.5718332,18.7900009155273
170.5874582,-2.26999998092651
170.6030832,-20.6700000762939
170.6187082,-37.3400001525879
170.6343332,-52.9500007629395
170.6499582,-67.9300003051758
170.6655832,-82.4199981689453
170.6812082,-96.120002746582
170.6968332,-108.400001525879
170.7124582,-118.720001220703
170.7280832,-126.940002441406
170.7437082,-133.380004882813
170.7593332,-138.75
170.7749582,-143.520004272461
170.7905832,-147.410003662109
170.8062082,-149.75
170.8218332,-150.169998168945
170.8374582,-148.839996337891
170.8530832,-146.169998168945
170.8687082,-142.460006713867
170.8843332,-138.009994506836
170.8999582,-133.130004882813
170.9155832,-127.650001525879
170.9312082,-120.220001220703
170.9468332,-108.360000610352
170.9624582,-89.4100036621094
170.9780832,-61.6500015258789
170.9937082,-25.1100006103516
171.0093332,18.5200004577637
171.0249582,65.9599990844727
171.0405832,112.650001525879
171.0562082,154.309997558594
171.0718332,188.410003662109
171.0874582,214.410003662109
171.1030832,232.929992675781
171.1187082,244.789993286133
171.1343332,250.429992675781
171.1499582,249.779998779297
171.1655832,242.229995727539
171.1812082,227.0
171.1968332,204.130004882813
171.2124582,175.169998168945
171.2280832,142.899993896484
171.2437082,110.309997558594
171.2593332,79.5400009155273
171.2749582,51.5800018310547
171.2905832,26.5
171.3062082,3.97000002861023
171.3218332,-16.4099998474121
171.3374582,-34.9300003051758
171.3530832,-51.7299995422363
171.3687082,-66.9000015258789
171.3843332,-80.6500015258789
171.3999582,-93.4100036621094
171.4155832,-105.51000213623
171.4312082,-116.669998168945
171.4468332,-126.209999084473
171.4624582,-133.610000610352
171.4780832,-138.839996337891
171.4937082,-142.309997558594
171.5093332,-144.740005493164
171.5249582,-146.660003662109
171.5405832,-147.880004882813
171.5562082,-147.710006713867
171.5718332,-145.660003662109
171.5874582,-141.660003662109
171.6030832,-136.130004882813
171.6187082,-129.559997558594
171.6343332,-122.089996337891
171.6499582,-112.75
171.6655832,-99.3399963378906
171.6812082,-79.1600036621094
171.6968332,-50.5200004577637
171.7124582,-13.960000038147
171.7280832,27.6800003051758
171.7437082,70.5899963378906
171.7593332,111.580001831055
171.7749582,148.339996337891
171.7905832,178.899993896484
171.8062082,201.820007324219
171.8218332,216.589996337891
171.8374582,223.479995727539
171.8530832,222.990005493164
171.8687082,215.529998779297
171.8843332,201.429992675781
171.8999582,181.220001220703
171.9155832,156.039993286133
171.9312082,127.839996337891
171.9468332,98.8899993896484
171.9624582,71.1699981689453
171.9780832,45.9500007629395
171.9937082,23.6599998474121
172.0093332,3.92000007629395
172.0249582,-13.8699998855591
172.0405832,-30.0
172.0562082,-44.2900009155273
172.0718332,-56.4199981689453
172.0874582,-66.379997253418
172.1030832,-75.0999984741211
172.1187082,-84.0100021362305
172.1343332,-93.8600006103516
172.1499582,-104.0
172.1655832,-112.580001831055
172.1812082,-117.629997253418
172.1968332,-118.470001220703
172.2124582,-116.589996337891
172.2280832,-114.970001220703
172.2437082,-116.389999389648
172.2593332,-122.019996643066
172.2749582,-130.740005493164
172.2905832,-139.630004882813
172.3062082,-145.410003662109
172.3218332,-145.970001220703
172.3374582,-140.550003051758
172.3530832,-128.899993896484
172.3687082,-110.5
172.3843332,-84.4499969482422
172.3999582,-50.3400001525879
172.4155832,-9.69999980926514
172.4312082,33.6100006103516
172.4468332,75.0800018310547
172.4624582,111.5
172.4780832,141.679992675781
172.4937082,166.039993286133
172.5093332,185.740005493164
172.5249582,201.449996948242
172.5405832,212.479995727539
172.5562082,217.289993286133
172.5718332,214.550003051758
172.5874582,203.820007324219
172.6030832,185.779998779297
172.6187082,162.210006713867
172.6343332,135.419998168945
172.6499582,107.800003051758
172.6655832,81.3600006103516
172.6812082,57.2000007629395
172.6968332,35.4799995422363
172.7124582,15.8999996185303
172.7280832,-1.85000002384186
172.7437082,-18.0100002288818
172.7593332,-32.8499984741211
172.7749582,-46.810001373291
172.7905832,-60.3899993896484
172.8062082,-73.7699966430664
172.8218332,-86.8399963378906
172.8374582,-99.1699981689453
172.8530832,-110.230003356934
172.8687082,-119.629997253418
172.8843332,-127.23999786377
172.8999582,-133.309997558594
172.9155832,-138.389999389648
172.9312082,-142.869995117188
172.9468332,-146.509994506836
172.9624582,-148.660003662109
172.9780832,-148.789993286133
172.9937082,-146.800003051758
173.0093332,-143.149993896484
173.0249582,-138.600006103516
173.0405832,-133.630004882813
173.0562082,-127.660003662109
173.0718332,-119.0
173.0874582,-105.290000915527
173.1030832,-84.5500030517578
173.1187082,-56.2900009155273
173.1343332,-22.3999996185303
173.1499582,12.7799997329712
173.1655832,44.8400001525879
173.1812082,72.4100036621094
173.1968332,97.120002746582
173.2124582,120.73999786377
173.2280832,143.350006103516
173.2437082,163.479995727539
173.2593332,179.240005493164
173.2749582,189.399993896484
173.2905832,193.660003662109
173.3062082,192.050003051758
173.3218332,184.279998779297
173.3374582,170.080001831055
173.3530832,150.0
173.3687082,125.660003662109
173.3843332,99.3000030517578
173.3999582,73.0500030517578
173.4155832,48.4199981689453
173.4312082,26.2199993133545
173.4468332,6.6100001335144
173.4624582,-10.5799999237061
173.4780832,-25.7999992370605
173.4937082,-39.5699996948242
173.5093332,-52.3600006103516
173.5249582,-64.4700012207031
173.5405832,-76.1100006103516
173.5562082,-87.1600036621094
173.5718332,-97.0500030517578
173.5874582,-105.169998168945
173.6030832,-111.25
173.6187082,-115.48999786377
173.6343332,-118.319999694824
173.6499582,-120.160003662109
173.6655832,-121.349998474121
173.6812082,-122.150001525879
173.6968332,-122.529998779297
173.7124582,-122.01000213623
173.7280832,-120.160003662109
173.7437082,-116.849998474121
173.7593332,-112.129997253418
173.7749582,-105.629997253418
173.7905832,-96.120002746582
173.8062082,-81.5400009155273
173.8218332,-59.8300018310547
173.8374582,-30.2099990844727
173.8530832,5.94999980926514
173.8687082,45.5400009155273
173.8843332,84.8600006103516
173.8999582,120.809997558594
173.9155832,151.490005493164
173.9312082,176.25
173.9468332,195.020004272461
173.9624582,207.460006713867
173.9780832,212.899993896484
173.9937082,210.929992675781
174.0093332,201.649993896484
174.0249582,185.699996948242
174.0405832,164.059997558594
174.0562082,138.110000610352
174.0718332,109.809997558594
174.0874582,81.4499969482422
174.1030832,55.2000007629395
174.1187082,32.5099983215332
174.1343332,13.8800001144409
174.1499582,-1.13999998569489
174.1655832,-13.6800003051758
174.1812082,-25.0599994659424
174.1968332,-36.2999992370605
174.2124582,-47.5900001525879
174.2280832,-58.5099983215332
174.2437082,-68.379997253418
174.2593332,-76.6900024414063
174.2749582,-83.4199981689453
174.2905832,-88.9100036621094
174.3062082,-93.5100021362305
174.3218332,-97.3899993896484
174.3374582,-101.0
174.3530832,-105.059997558594
174.3687082,-109.900001525879
174.3843332,-114.76000213623
174.3999582,-117.949996948242
174.4155832,-118.099998474121
174.4312082,-115.300003051758
174.4468332,-110.669998168945
174.4624582,-104.870002746582
174.4780832,-96.879997253418
174.4937082,-84.0599975585938
174.5093332,-63.5
174.5249582,-33.9500007629395
174.5405832,3.00999999046326
174.5562082,43.25
174.5718332,81.5400009155273
174.5874582,113.809997558594
174.6030832,138.449996948242
174.6187082,156.119995117188
174.6343332,168.610000610352
174.6499582,177.520004272461
174.6655832,183.589996337891
174.6812082,186.699996948242
174.6968332,185.979995727539
174.7124582,180.009994506836
174.7280832,167.679992675781
174.7437082,149.009994506836
174.7593332,125.370002746582
174.7749582,99.0500030517578
174.7905832,72.5800018310547
174.8062082,48.0400009155273
174.8218332,26.6700000762939
174.8374582,8.59000015258789
174.8530832,-6.92000007629395
174.8687082,-21.0400009155273
174.8843332,-34.7700004577637
174.8999582,-48.689998626709
174.9155832,-62.9199981689453
174.9312082,-77.1800003051758
174.9468332,-91.0100021362305
174.9624582,-103.790000915527
174.9780832,-115.080001831055
174.9937082,-124.809997558594
175.0093332,-133.139999389648
175.0249582,-140.229995727539
175.0405832,-146.229995727539
175.0562082,-151.080001831055
175.0718332,-154.490005493164
175.0874582,-156.089996337891
175.1030832,-155.740005493164
175.1187082,-153.580001831055
175.1343332,-149.960006713867
175.1499582,-145.160003662109
175.1655832,-138.759994506836
175.1812082,-129.190002441406
175.1968332,-114.25
175.2124582,-92.25
175.2280832,-63.0299987792969
175.2437082,-28.2399997711182
175.2593332,9.36999988555908
175.2749582,47.0400009155273
175.2905832,82.9800033569336
175.3062082,116.0
175.3218332,144.759994506836
175.3374582,167.770004272461
175.3530832,184.089996337891
175.3687082,193.509994506836
175.3843332,196.389999389648
175.3999582,193.229995727539
175.4155832,184.339996337891
175.4312082,169.660003662109
175.4468332,149.259994506836
175.4624582,123.970001220703
175.4780832,95.629997253418
175.4937082,66.5500030517578
175.5093332,38.810001373291
175.5249582,13.7799997329712
175.5405832,-7.92000007629395
175.5562082,-26.2900009155273
175.5718332,-41.7900009155273
175.5874582,-55.2200012207031
175.6030832,-67.5999984741211
175.6187082,-79.6699981689453
175.6343332,-91.4899978637695
175.6499582,-102.569999694824
175.6655832,-112.5
175.6812082,-121.330001831055
175.6968332,-129.210006713867
175.7124582,-135.889999389648
175.7280832,-140.809997558594
175.7437082,-143.630004882813
175.7593332,-144.460006713867
175.7749582,-143.690002441406
175.7905832,-141.770004272461
175.8062082,-138.889999389648
175.8218332,-134.649993896484
175.8374582,-128.089996337891
175.8530832,-118.059997558594
175.8687082,-103.629997253418
175.8843332,-84.3899993896484
175.8999582,-60.4700012207031
175.9155832,-32.2400016784668
175.9312082,0.0
175.9468332,35.5299987792969
175.9624582,72.4800033569336
175.9780832,108.300003051758
175.9937082,140.789993286133
176.0093332,168.559997558594
176.0249582,191.139999389648
176.0405832,208.759994506836
176.0562082,221.490005493164
176.0718332,228.440002441406
176.0874582,228.229995727539
176.1030832,220.119995117188
176.1187082,204.550003051758
176.1343332,182.990005493164
176.1499582,157.470001220703
176.1655832,130.220001220703
176.1812082,103.330001831055
176.1968332,78.4800033569336
176.2124582,56.5099983215332
176.2280832,37.310001373291
176.2437082,20.1700000762939
176.2593332,4.26000022888184
176.2749582,-10.9200000762939
176.2905832,-25.4899997711182
176.3062082,-39.3300018310547
176.3218332,-52.25
176.3374582,-64.0
176.3530832,-74.3099975585938
176.3687082,-82.9800033569336
176.3843332,-89.9700012207031
176.3999582,-95.5
176.4155832,-99.8099975585938
176.4312082,-102.73999786377
176.4468332,-104.110000610352
176.4624582,-104.559997558594
176.4780832,-105.300003051758
176.4937082,-106.959999084473
176.5093332,-109.300003051758
176.5249582,-111.580001831055
176.5405832,-112.980003356934
176.5562082,-113.129997253418
176.5718332,-112.269996643066
176.5874582,-110.709999084473
176.6030832,-107.949996948242
176.6187082,-102.339996337891
176.6343332,-91.5100021362305
176.6499582,-73.3600006103516
176.6655832,-47.2799987792969
176.6812082,-14.6499996185303
176.6968332,21.8999996185303
176.7124582,59.7200012207031
176.7280832,96.2200012207031
176.7437082,128.839996337891
176.7593332,155.550003051758
176.7749582,175.600006103516
176.7905832,189.279998779297
176.8062082,197.279998779297
176.8218332,199.979995727539
176.8374582,197.039993286133
176.8530832,187.429992675781
176.8687082,170.449996948242
176.8843332,146.960006713867
176.8999582,119.48999786377
176.9155832,91.2300033569336
176.9312082,64.7300033569336
176.9468332,41.2400016784668
176.9624582,20.7000007629395
176.9780832,2.45000004768372
176.9937082,-14.0500001907349
177.0093332,-29.1200008392334
177.0249582,-42.9300003051758
177.0405832,-55.6300010681152
177.0562082,-67.4499969482422
177.0718332,-78.6699981689453
177.0874582,-89.1999969482422
177.1030832,-98.4800033569336
177.1187082,-105.860000610352
177.1343332,-111.040000915527
177.1499582,-114.199996948242
177.1655832,-115.919998168945
177.1812082,-116.790000915527
177.1968332,-117.199996948242
177.2124582,-117.480003356934
177.2280832,-117.860000610352
177.2437082,-118.190002441406
177.2593332,-118.050003051758
177.2749582,-116.809997558594
177.2905832,-113.569999694824
177.3062082,-106.769996643066
177.3218332,-94.1500015258789
177.3374582,-73.7900009155273
177.3530832,-45.3800010681152
177.3687082,-10.6599998474121
177.3843332,27.1599998474121
177.3999582,64.629997253418
177.4155832,99.0299987792969
177.4312082,128.820007324219
177.4468332,153.630004882813
177.4624582,173.800003051758
177.4780832,189.380004882813
177.4937082,199.470001220703
177.5093332,202.619995117188
177.5249582,197.75
177.5405832,184.770004272461
177.5562082,164.679992675781
177.5718332,139.380004882813
177.5874582,111.319999694824
177.6030832,83.1100006103516
177.6187082,56.9900016784668
177.6343332,34.2400016784668
177.6499582,15.039999961853
177.6655832,-1.30999994277954
177.6812082,-15.9399995803833
177.6968332,-29.8299999237061
177.7124582,-43.6300010681152
177.7280832,-57.439998626709
177.7437082,-70.7200012207031
177.7593332,-82.7600021362305
177.7749582,-93.0899963378906
177.7905832,-101.720001220703
177.8062082,-109.019996643066
177.8218332,-115.589996337891
177.8374582,-121.849998474121
177.8530832,-127.610000610352
177.8687082,-132.270004272461
177.8843332,-135.300003051758
177.8999582,-136.550003051758
177.9155832,-136.240005493164
177.9312082,-134.809997558594
177.9468332,-132.710006713867
177.9624582,-130.240005493164
177.9780832,-127.040000915527
177.9937082,-121.540000915527
178.0093332,-111.330001831055
178.0249582,-94.129997253418
178.0405832,-68.7799987792969
178.0562082,-35.6300010681152
178.0718332,3.60999989509583
178.0874582,46.0
178.1030832,87.4599990844727
178.1187082,124.169998168945
178.1343332,153.860000610352
178.1499582,176.059997558594
178.1655832,191.380004882813
178.1812082,200.580001831055
178.1968332,204.059997558594
178.2124582,201.770004272461
178.2280832,193.309997558594
178.2437082,178.229995727539
178.2593332,156.759994506836
178.2749582,130.419998168945
178.2905832,101.709999084473
178.3062082,73.2799987792969
178.3218332,47.1100006103516
178.3374582,24.1700000762939
178.3530832,4.51999998092651
178.3687082,-12.3599996566772
178.3843332,-27.2800006866455
178.3999582,-40.9799995422363
178.4155832,-53.9700012207031
178.4312082,-66.4199981689453
178.4468332,-78.2600021362305
178.4624582,-89.370002746582
178.4780832,-99.5899963378906
178.4937082,-108.559997558594
178.5093332,-115.860000610352
178.5249582,-121.339996337891
178.5405832,-125.160003662109
178.5562082,-127.800003051758
178.5718332,-129.839996337891
178.5874582,-131.619995117188
178.6030832,-133.009994506836
178.6187082,-133.610000610352
178.6343332,-133.119995117188
178.6499582,-131.449996948242
178.6655832,-128.479995727539
178.6812082,-123.849998474121
178.6968332,-116.550003051758
178.7124582,-104.800003051758
178.7280832,-86.5100021362305
178.7437082,-60.3800010681152
178.7593332,-26.7700004577637
178.7749582,12.0299997329712
178.7905832,52.560001373291
178.8062082,91.5999984741211
178.8218332,127.129997253418
178.8374582,157.990005493164
178.8530832,182.929992675781
178.8687082,200.720001220703
178.8843332,210.779998779297
178.8999582,213.259994506836
178.9155832,208.759994506836
178.9312082,197.880004882813
178.9468332,181.199996948242
178.9624582,159.509994506836
178.9780832,134.240005493164
178.9937082,107.610000610352
179.0093332,81.9000015258789
179.0249582,58.7299995422363
179.0405832,38.6300010681152
179.0562082,21.1800003051758
179.0718332,5.48000001907349
179.0874582,-9.26000022888184
179.1030832,-23.3600006103516
179.1187082,-36.689998626709
179.1343332,-49.0
179.1499582,-60.1599998474121
179.1655832,-70.1999969482422
179.1812082,-79.3300018310547
179.1968332,-87.8499984741211
179.2124582,-96.0699996948242
179.2280832,-103.970001220703
179.2437082,-111.029998779297
179.2593332,-116.629997253418
179.2749582,-120.449996948242
179.2905832,-122.519996643066
179.3062082,-123.180000305176
179.3218332,-123.050003051758
179.3374582,-122.610000610352
179.3530832,-121.769996643066
179.3687082,-119.980003356934
179.3843332,-116.5
179.3999582,-110.339996337891
179.4155832,-100.059997558594
179.4312082,-83.9800033569336
179.4468332,-61.1199989318848
179.4624582,-32.3300018310547
179.4780832,-0.150000005960464
179.4937082,32.8699989318848
179.5093332,65.3099975585938
179.5249582,96.5100021362305
179.5405832,125.779998779297
179.5562082,152.089996337891
179.5718332,174.330001831055
179.5874582,191.679992675781
179.6030832,203.429992675781
179.6187082,208.470001220703
179.6343332,205.649993896484
179.6499582,194.520004272461
179.6655832,175.850006103516
179.6812082,151.720001220703
179.6968332,125.050003051758
179.7124582,98.8499984741211
179.7280832,75.3000030517578
179.7437082,54.9000015258789
