Time(s),Value(%)
1020.0047644,-29.6299991607666
1020.0203894,-31.2099990844727
1020.0360144,-32.439998626709
1020.0516394,-33.5
1020.0672644,-34.4900016784668
1020.0828894,-35.3600006103516
1020.0985144,-35.9000015258789
1020.1141394,-35.9099998474121
1020.1297644,-35.3899993896484
1020.1453894,-34.4900016784668
1020.1610144,-33.1800003051758
1020.1766394,-30.8700008392334
1020.1922644,-26.1900005340576
1020.2078894,-17.4300003051758
1020.2235144,-3.51999998092651
1020.2391394,14.9499998092651
1020.2547644,35.5999984741211
1020.2703894,55.0299987792969
1020.2860144,70.1900024414063
1020.3016394,79.3499984741211
1020.3172644,82.4199981689453
1020.3328894,80.5299987792969
1020.3485144,75.3199996948242
1020.3641394,68.2300033569336
1020.3797644,60.1800003051758
1020.3953894,51.5499992370605
1020.4110144,42.4799995422363
1020.4266394,33.0099983215332
1020.4422644,23.2600002288818
1020.4578894,13.5500001907349
1020.4735144,4.42999982833862
1020.4891394,-3.39000010490417
1020.5047644,-9.47999954223633
1020.5203894,-13.8199996948242
1020.5360144,-16.8299999237061
1020.5516394,-19.1000003814697
1020.5672644,-21.2700004577637
1020.5828894,-23.8600006103516
1020.5985144,-27.0799999237061
1020.6141394,-30.6399993896484
1020.6297644,-33.9900016784668
1020.6453894,-36.7299995422363
1020.6610144,-38.8800010681152
1020.6766394,-40.7299995422363
1020.6922644,-42.5
1020.7078894,-44.1399993896484
1020.7235144,-45.3499984741211
1020.7391394,-45.9099998474121
1020.7547644,-45.75
1020.7703894,-44.9900016784668
1020.7860144,-43.8199996948242
1020.8016394,-42.3400001525879
1020.8172644,-40.2900009155273
1020.8328894,-36.7200012207031
1020.8485144,-30.0
1020.8641394,-18.5
1020.8797644,-1.82000005245209
1020.8953894,18.5200004577637
1020.9110144,39.5999984741211
1020.9266394,58.2000007629395
1020.9422644,71.7900009155273
1020.9578894,79.0800018310547
1020.9735144,80.1600036621094
1020.9891394,76.3499984741211
1021.0047644,69.4400024414063
1021.0203894,61.0400009155273
1021.0360144,52.2200012207031
1021.0516394,43.4000015258789
1021.0672644,34.689998626709
1021.0828894,26.1100006103516
1021.0985144,17.6800003051758
1021.1141394,9.44999980926514
1021.1297644,1.55999994277954
1021.1453894,-5.73000001907349
1021.1610144,-12.1199998855591
1021.1766394,-17.3299999237061
1021.1922644,-21.3099994659424
1021.2078894,-24.2900009155273
1021.2235144,-26.7099990844727
1021.2391394,-28.9500007629395
1021.2547644,-31.2399997711182
1021.2703894,-33.6500015258789
1021.2860144,-36.060001373291
1021.3016394,-38.2400016784668
1021.3172644,-40.1199989318848
1021.3328894,-41.8499984741211
1021.3485144,-43.560001373291
1021.3641394,-45.0999984741211
1021.3797644,-46.1199989318848
1021.3953894,-46.3300018310547
1021.4110144,-45.7400016784668
1021.4266394,-44.6399993896484
1021.4422644,-43.4700012207031
1021.4578894,-42.4599990844727
1021.4735144,-41.2700004577637
1021.4891394,-38.8899993896484
1021.5047644,-33.7400016784668
1021.5203894,-24.25
1021.5360144,-9.53999996185303
1021.5516394,9.52999973297119
1021.5672644,29.9500007629395
1021.5828894,47.9000015258789
1021.5985144,61.2799987792969
1021.6141394,70.1399993896484
1021.6297644,75.2300033569336
1021.6453894,76.9599990844727
1021.6610144,75.4599990844727
1021.6766394,71.0199966430664
1021.6922644,64.2600021362305
1021.7078894,55.9900016784668
1021.7235144,46.8600006103516
1021.7391394,37.3699989318848
1021.7547644,27.8299999237061
1021.7703894,18.4699993133545
1021.7860144,9.56999969482422
1021.8016394,1.50999999046326
1021.8172644,-5.32000017166138
1021.8328894,-10.7399997711182
1021.8485144,-14.8599996566772
1021.8641394,-18.0599994659424
1021.8797644,-20.7399997711182
1021.8953894,-23.2600002288818
1021.9110144,-25.8299999237061
1021.9266394,-28.4799995422363
1021.9422644,-31.1399993896484
1021.9578894,-33.8499984741211
1021.9735144,-36.5900001525879
1021.9891394,-39.1800003051758
1022.0047644,-41.310001373291
1022.0203894,-42.7999992370605
1022.0360144,-43.6300010681152
1022.0516394,-43.8300018310547
1022.0672644,-43.4900016784668
1022.0828894,-42.7900009155273
1022.0985144,-41.9700012207031
1022.1141394,-41.1300010681152
1022.1297644,-40.0099983215332
1022.1453894,-37.7900009155273
1022.1610144,-33.060001373291
1022.1766394,-24.1399993896484
1022.1922644,-9.80000019073486
1022.2078894,9.85000038146973
1022.2235144,32.689998626709
1022.2391394,54.8400001525879
1022.2547644,72.2300033569336
1022.2703894,82.3600006103516
1022.2860144,85.0100021362305
1022.3016394,81.7300033569336
1022.3172644,74.7699966430664
1022.3328894,65.9700012207031
1022.3485144,56.3800010681152
1022.3641394,46.3899993896484
1022.3797644,36.25
1022.3953894,26.2999992370605
1022.4110144,17.0200004577637
1022.4266394,8.89999961853027
1022.4422644,2.13000011444092
1022.4578894,-3.39000010490417
1022.4735144,-7.96999979019165
1022.4891394,-11.8199996948242
1022.5047644,-15.0500001907349
1022.5203894,-17.7800006866455
1022.5360144,-20.2399997711182
1022.5516394,-22.6299991607666
1022.5672644,-25.0499992370605
1022.5828894,-27.4599990844727
1022.5985144,-29.7900009155273
1022.6141394,-31.8899993896484
1022.6297644,-33.5400009155273
1022.6453894,-34.5800018310547
1022.6610144,-34.9900016784668
1022.6766394,-34.9099998474121
1022.6922644,-34.4900016784668
1022.7078894,-33.7999992370605
1022.7235144,-32.9199981689453
1022.7391394,-32.0900001525879
1022.7547644,-31.6499996185303
1022.7703894,-31.8099994659424
1022.7860144,-32.0499992370605
1022.8016394,-30.75
1022.8172644,-25.75
1022.8328894,-15.4799995422363
1022.8485144,-0.0199999995529652
1022.8641394,18.4200000762939
1022.8797644,36.0
1022.8953894,49.0499992370605
1022.9110144,55.7900009155273
1022.9266394,56.689998626709
1022.9422644,53.4799995422363
1022.9578894,48.0200004577637
1022.9735144,41.689998626709
1022.9891394,35.1599998474121
1023.0047644,28.6100006103516
1023.0203894,21.9899997711182
1023.0360144,15.3400001525879
1023.0516394,8.77999973297119
1023.0672644,2.47000002861023
1023.0828894,-3.46000003814697
1023.0985144,-9.09000015258789
1023.1141394,-14.3199996948242
1023.1297644,-18.6100006103516
1023.1453894,-21.2000007629395
1023.1610144,-21.9899997711182
1023.1766394,-21.9200000762939
1023.1922644,-22.3299999237061
1023.2078894,-24.0100002288818
1023.2235144,-26.6399993896484
1023.2391394,-28.9899997711182
1023.2547644,-29.7099990844727
1023.2703894,-28.1399993896484
1023.2860144,-24.7000007629395
1023.3016394,-20.6599998474121
1023.3172644,-17.3999996185303
1023.3328894,-15.8900003433228
1023.3485144,-16.3600006103516
1023.3641394,-18.1299991607666
1023.3797644,-19.5599994659424
1023.3953894,-18.4899997711182
1023.4110144,-12.8100004196167
1023.4266394,-1.21000003814697
1023.4422644,16.3700008392334
1023.4578894,38.7400016784668
1023.4735144,63.0800018310547
1023.4891394,84.8099975585938
1023.5047644,98.9499969482422
1023.5203894,102.099998474121
1023.5360144,93.7399978637695
1023.5516394,76.3199996948242
1023.5672644,54.2799987792969
1023.5828894,32.25
1023.5985144,13.3800001144409
1023.6141394,-1.20000004768372
1023.6297644,-11.9200000762939
1023.6453894,-19.7600002288818
1023.6610144,-25.6900005340576
1023.6766394,-30.6700000762939
1023.6922644,-35.9599990844727
1023.7078894,-42.9099998474121
1023.7235144,-51.9599990844727
1023.7391394,-62.0200004577637
1023.7547644,-71.0599975585938
1023.7703894,-77.0400009155273
1023.7860144,-78.7200012207031
1023.8016394,-76.1100006103516
1023.8172644,-70.379997253418
1023.8328894,-63.2999992370605
1023.8485144,-56.6699981689453
1023.8641394,-51.7000007629395
1023.8797644,-48.7200012207031
1023.8953894,-47.1699981689453
1023.9110144,-45.8600006103516
1023.9266394,-43.2999992370605
1023.9422644,-38.0200004577637
1023.9578894,-28.6100006103516
1023.9735144,-13.9499998092651
1023.9891394,6.25
1024.0047644,31.1399993896484
1024.0203894,58.6300010681152
1024.0360144,85.9300003051758
1024.0516394,109.970001220703
1024.0672644,128.029998779297
1024.0828894,138.520004272461
1024.0985144,141.619995117188
1024.1141394,139.0
1024.1297644,132.759994506836
1024.1453894,124.599998474121
1024.1610144,115.360000610352
1024.1766394,104.919998168945
1024.1922644,92.5400009155273
1024.2078894,77.5199966430664
1024.2235144,60.1199989318848
1024.2391394,41.9000015258789
1024.2547644,24.9599990844727
1024.2703894,10.9499998092651
1024.2860144,0.509999990463257
1024.3016394,-6.48000001907349
1024.3172644,-10.6999998092651
1024.3328894,-13.1400003433228
1024.3485144,-14.9399995803833
1024.3641394,-17.0300006866455
1024.3797644,-19.9500007629395
1024.3953894,-23.8799991607666
1024.4110144,-28.6800003051758
1024.4266394,-33.9000015258789
1024.4422644,-38.8800010681152
1024.4578894,-43.0299987792969
1024.4735144,-46.1100006103516
1024.4891394,-48.25
1024.5047644,-49.7900009155273
1024.5203894,-51.1100006103516
1024.5360144,-52.3800010681152
1024.5516394,-53.1500015258789
1024.5672644,-52.0800018310547
1024.5828894,-47.2000007629395
1024.5985144,-36.8600006103516
1024.6141394,-20.6100006103516
1024.6297644,0.0
1024.6453894,21.5100002288818
1024.6610144,39.9199981689453
1024.6766394,52.439998626709
1024.6922644,58.3800010681152
1024.7078894,58.8300018310547
1024.7235144,55.5999984741211
1024.7391394,50.1300010681152
1024.7547644,42.9099998474121
1024.7703894,33.8499984741211
1024.7860144,22.9799995422363
1024.8016394,10.7600002288818
1024.8172644,-2.03999996185303
1024.8328894,-14.4399995803833
1024.8485144,-25.3500003814697
1024.8641394,-33.9599990844727
1024.8797644,-40.2599983215332
1024.8953894,-44.810001373291
1024.9110144,-48.2000007629395
1024.9266394,-50.8199996948242
1024.9422644,-52.9700012207031
1024.9578894,-54.8400001525879
1024.9735144,-56.6800003051758
1024.9891394,-58.7900009155273
1025.0047644,-61.3800010681152
1025.0203894,-64.2399978637695
1025.0360144,-66.8199996948242
1025.0516394,-68.5699996948242
1025.0672644,-69.0999984741211
1025.0828894,-68.3300018310547
1025.0985144,-66.5
1025.1141394,-64.0999984741211
1025.1297644,-61.5999984741211
1025.1453894,-58.7400016784668
1025.1610144,-54.1500015258789
1025.1766394,-45.7299995422363
1025.1922644,-31.9400005340576
1025.2078894,-12.9499998092651
1025.2235144,9.22999954223633
1025.2391394,31.5599994659424
1025.2547644,50.810001373291
1025.2703894,64.3399963378906
1025.2860144,70.9800033569336
1025.3016394,71.370002746582
1025.3172644,67.379997253418
1025.3328894,60.9900016784668
1025.3485144,53.5
1025.3641394,45.25
1025.3797644,36.0800018310547
1025.3953894,26.0699996948242
1025.4110144,15.9200000762939
1025.4266394,6.63000011444092
1025.4422644,-1.00999999046326
1025.4578894,-6.67999982833862
1025.4735144,-10.5900001525879
1025.4891394,-13.25
1025.5047644,-15.25
1025.5203894,-17.0799999237061
1025.5360144,-19.0200004577637
1025.5516394,-21.1299991607666
1025.5672644,-23.3400001525879
1025.5828894,-25.5699996948242
1025.5985144,-27.7299995422363
1025.6141394,-29.8199996948242
1025.6297644,-31.9300003051758
1025.6453894,-34.1599998474121
1025.6610144,-36.3699989318848
1025.6766394,-38.2000007629395
1025.6922644,-39.2000007629395
1025.7078894,-38.7700004577637
1025.7235144,-35.9799995422363
1025.7391394,-29.4200000762939
1025.7547644,-17.8400001525879
1025.7703894,-1.25999999046326
1025.7860144,18.5900001525879
1025.8016394,38.7200012207031
1025.8172644,55.7900009155273
1025.8328894,67.379997253418
1025.8485144,72.6699981689453
1025.8641394,72.4100036621094
1025.8797644,68.3000030517578
1025.8953894,62.0699996948242
1025.9110144,54.9099998474121
1025.9266394,47.3199996948242
1025.9422644,39.3400001525879
1025.9578894,30.8500003814697
1025.9735144,21.8099994659424
1025.9891394,12.4899997711182
1026.0047644,3.53999996185303
1026.0203894,-4.21000003814697
1026.0360144,-10.1999998092651
1026.0516394,-14.2700004577637
1026.0672644,-16.75
1026.0828894,-18.2000007629395
1026.0985144,-19.1599998474121
1026.1141394,-20.1000003814697
1026.1297644,-21.5100002288818
1026.1453894,-23.7099990844727
1026.1610144,-26.5699996948242
1026.1766394,-29.5799999237061
1026.1922644,-32.2099990844727
1026.2078894,-34.1500015258789
1026.2235144,-35.3300018310547
1026.2391394,-35.8400001525879
1026.2547644,-35.9000015258789
1026.2703894,-35.5
1026.2860144,-34.25
1026.3016394,-31.2399997711182
1026.3172644,-25.2900009155273
1026.3328894,-15.3699998855591
1026.3485144,-1.20000004768372
1026.3641394,16.2700004577637
1026.3797644,35.0999984741211
1026.3953894,52.6500015258789
1026.4110144,66.2699966430664
1026.4266394,74.3499984741211
1026.4422644,76.6999969482422
1026.4578894,74.3199996948242
1026.4735144,68.6999969482422
1026.4891394,61.2999992370605
1026.5047644,53.1599998474121
1026.5203894,44.7000007629395
1026.5360144,35.9599990844727
1026.5516394,26.9200000762939
1026.5672644,17.8400001525879
1026.5828894,9.19999980926514
1026.5985144,1.49000000953674
1026.6141394,-4.96999979019165
1026.6297644,-10.2200002670288
1026.6453894,-14.5200004577637
1026.6610144,-18.1800003051758
1026.6766394,-21.3999996185303
1026.6922644,-24.2900009155273
1026.7078894,-26.9099998474121
1026.7235144,-29.2700004577637
1026.7391394,-31.3899993896484
1026.7547644,-33.2900009155273
1026.7703894,-34.9500007629395
1026.7860144,-36.3300018310547
1026.8016394,-37.4700012207031
1026.8172644,-38.3800010681152
1026.8328894,-38.9799995422363
1026.8485144,-39.0499992370605
1026.8641394,-38.2999992370605
1026.8797644,-36.2900009155273
1026.8953894,-32.2299995422363
1026.9110144,-24.9300003051758
1026.9266394,-13.4099998474121
1026.9422644,2.21000003814697
1026.9578894,20.2900009155273
1026.9735144,38.0999984741211
1026.9891394,52.8699989318848
1027.0047644,62.689998626709
1027.0203894,66.8899993896484
1027.0360144,66.0
1027.0516394,61.5
1027.0672644,55.0999984741211
1027.0828894,48.0200004577637
1027.0985144,40.7700004577637
1027.1141394,33.2700004577637
1027.1297644,25.1700000762939
1027.1453894,16.2999992370605
1027.1610144,7.01999998092651
1027.1766394,-1.87999999523163
1027.1922644,-9.68000030517578
1027.2078894,-16.0
1027.2235144,-20.8799991607666
1027.2391394,-24.3700008392334
1027.2547644,-26.4799995422363
1027.2703894,-27.3600006103516
1027.2860144,-27.4400005340576
1027.3016394,-27.2399997711182
1027.3172644,-27.25
1027.3328894,-27.7800006866455
1027.3485144,-28.8899993896484
1027.3641394,-30.3500003814697
1027.3797644,-31.8400001525879
1027.3953894,-33.0200004577637
1027.4110144,-33.5699996948242
1027.4266394,-33.2999992370605
1027.4422644,-32.3300018310547
1027.4578894,-30.8999996185303
1027.4735144,-28.8700008392334
1027.4891394,-25.3500003814697
1027.5047644,-18.9799995422363
1027.5203894,-8.68000030517578
1027.5360144,5.40999984741211
1027.5516394,21.7099990844727
1027.5672644,37.7400016784668
1027.5828894,51.189998626709
1027.5985144,60.6599998474121
1027.6141394,65.7900009155273
1027.6297644,67.0100021362305
1027.6453894,65.1900024414063
1027.6610144,61.2799987792969
1027.6766394,56.1800003051758
1027.6922644,50.5099983215332
1027.7078894,44.4700012207031
1027.7235144,37.8300018310547
1027.7391394,30.2900009155273
1027.7547644,21.7999992370605
1027.7703894,12.8500003814697
1027.7860144,4.30999994277954
1027.8016394,-3.01999998092651
1027.8172644,-8.77000045776367
1027.8328894,-13.1300001144409
1027.8485144,-16.6800003051758
1027.8641394,-20.0
1027.8797644,-23.3400001525879
1027.8953894,-26.6599998474121
1027.9110144,-29.7900009155273
1027.9266394,-32.6599998474121
1027.9422644,-35.2200012207031
1027.9578894,-37.439998626709
1027.9735144,-39.2200012207031
1027.9891394,-40.560001373291
1028.0047644,-41.6500015258789
1028.0203894,-42.6699981689453
1028.0360144,-43.5699996948242
1028.0516394,-44.1300010681152
1028.0672644,-44.2200012207031
1028.0828894,-43.7099990844727
1028.0985144,-42.1599998474121
1028.1141394,-38.9000015258789
1028.1297644,-33.3899993896484
1028.1453894,-25.2700004577637
1028.1610144,-14.1099996566772
1028.1766394,0.140000000596046
1028.1922644,16.3199996948242
1028.2078894,32.1100006103516
1028.2235144,45.1100006103516
1028.2391394,53.7799987792969
1028.2547644,57.8600006103516
1028.2703894,58.0200004577637
1028.2860144,55.2999992370605
1028.3016394,50.6199989318848
1028.3172644,44.7200012207031
1028.3328894,38.1399993896484
1028.3485144,31.2000007629395
1028.3641394,24.0100002288818
1028.3797644,16.6299991607666
1028.3953894,9.27999973297119
1028.4110144,2.30999994277954
1028.4266394,-3.86999988555908
1028.4422644,-8.96000003814697
1028.4578894,-12.8100004196167
1028.4735144,-15.6000003814697
1028.4891394,-17.7600002288818
1028.5047644,-19.7099990844727
1028.5203894,-21.7900009155273
1028.5360144,-24.1800003051758
1028.5516394,-26.7199993133545
1028.5672644,-29.0499992370605
1028.5828894,-30.8400001525879
1028.5985144,-32.0900001525879
1028.6141394,-33.0099983215332
1028.6297644,-33.7099990844727
1028.6453894,-34.25
1028.6610144,-34.5999984741211
1028.6766394,-34.6599998474121
1028.6922644,-34.1399993896484
1028.7078894,-32.560001373291
1028.7235144,-29.1299991607666
1028.7391394,-22.8799991607666
1028.7547644,-12.8999996185303
1028.7703894,1.05999994277954
1028.7860144,17.8899993896484
1028.8016394,34.8800010681152
1028.8172644,48.8699989318848
1028.8328894,57.6800003051758
1028.8485144,60.8400001525879
1028.8641394,59.4300003051758
1028.8797644,55.189998626709
1028.8953894,49.6199989318848
1028.9110144,43.4700012207031
1028.9266394,36.8300018310547
1028.9422644,29.6499996185303
1028.9578894,22.0900001525879
1028.9735144,14.5500001907349
1028.9891394,7.46999979019165
1029.0047644,1.22000002861023
1029.0203894,-4.07000017166138
1029.0360144,-8.42000007629395
1029.0516394,-11.9300003051758
1029.0672644,-14.8199996948242
1029.0828894,-17.2600002288818
1029.0985144,-19.4200000762939
1029.1141394,-21.4400005340576
1029.1297644,-23.4200000762939
1029.1453894,-25.4500007629395
1029.1610144,-27.6200008392334
1029.1766394,-29.9300003051758
1029.1922644,-32.060001373291
1029.2078894,-33.6699981689453
1029.2235144,-34.6399993896484
1029.2391394,-35.0900001525879
1029.2547644,-35.25
1029.2703894,-35.2099990844727
1029.2860144,-34.6500015258789
1029.3016394,-32.6300010681152
1029.3172644,-27.7399997711182
1029.3328894,-18.6499996185303
1029.3485144,-4.88000011444092
1029.3641394,12.539999961853
1029.3797644,31.1700000762939
1029.3953894,48.060001373291
1029.4110144,60.9799995422363
1029.4266394,68.870002746582
1029.4422644,71.6699981689453
1029.4578894,70.1500015258789
1029.4735144,65.5800018310547
1029.4891394,59.2099990844727
1029.5047644,51.8499984741211
1029.5203894,43.7700004577637
1029.5360144,34.9900016784668
1029.5516394,25.6800003051758
1029.5672644,16.3099994659424
1029.5828894,7.53999996185303
1029.5985144,-0.0700000002980232
1029.6141394,-6.26999998092651
1029.6297644,-11.1000003814697
1029.6453894,-14.8900003433228
1029.6610144,-18.1299991607666
1029.6766394,-21.2999992370605
1029.6922644,-24.6700000762939
1029.7078894,-28.3099994659424
1029.7235144,-32.0400009155273
1029.7391394,-35.6100006103516
1029.7547644,-38.7900009155273
1029.7703894,-41.4700012207031
1029.7860144,-43.6699981689453
1029.8016394,-45.3899993896484
1029.8172644,-46.6199989318848
1029.8328894,-47.3300018310547
1029.8485144,-47.560001373291
1029.8641394,-47.2799987792969
1029.8797644,-46.189998626709
1029.8953894,-43.3699989318848
1029.9110144,-37.2400016784668
1029.9266394,-26.2700004577637
1029.9422644,-10.0200004577637
1029.9578894,10.210000038147
1029.9735144,31.7000007629395
1029.9891394,51.0499992370605
1030.0047644,65.5
1030.0203894,73.8199996948242
1030.0360144,76.3899993896484
1030.0516394,74.5299987792969
1030.0672644,69.6900024414063
1030.0828894,62.9700012207031
1030.0985144,54.9500007629395
1030.1141394,45.810001373291
1030.1297644,35.7099990844727
1030.1453894,24.9300003051758
1030.1610144,13.8800001144409
1030.1766394,3.16000008583069
1030.1922644,-6.42999982833862
1030.2078894,-14.2299995422363
1030.2235144,-20.0400009155273
1030.2391394,-24.25
1030.2547644,-27.6399993896484
1030.2703894,-30.9200000762939
1030.2860144,-34.4199981689453
1030.3016394,-38.0400009155273
1030.3172644,-41.4900016784668
1030.3328894,-44.5999984741211
1030.3485144,-47.2999992370605
1030.3641394,-49.5099983215332
1030.3797644,-51.1500015258789
