Time(s),Value(%)
869.0154789,16.1900005340576
869.0311039,10.9099998474121
869.0467289,5.96999979019165
869.0623539,1.83000004291534
869.0779789,-1.22000002861023
869.0936039,-3.1800000667572
869.1092289,-4.28999996185303
869.1248539,-5.09000015258789
869.1404789,-6.1100001335144
869.1561039,-7.67000007629395
869.1717289,-9.80000019073486
869.1873539,-12.4200000762939
869.2029789,-15.3699998855591
869.2186039,-18.3299999237061
869.2342289,-20.9500007629395
869.2498539,-23.0100002288818
869.2654789,-24.4699993133545
869.2811039,-25.3999996185303
869.2967289,-25.9899997711182
869.3123539,-26.4599990844727
869.3279789,-26.9300003051758
869.3436039,-27.0900001525879
869.3592289,-25.8799991607666
869.3748539,-21.7999992370605
869.3904789,-13.6999998092651
869.4061039,-1.67999994754791
869.4217289,12.5299997329712
869.4373539,26.1299991607666
869.4529789,36.4500007629395
869.4686039,42.0299987792969
869.4842289,42.9700012207031
869.4998539,40.4599990844727
869.5154789,36.0699996948242
869.5311039,31.0499992370605
869.5467289,26.0900001525879
869.5623539,21.4799995422363
869.5779789,17.2900009155273
869.5936039,13.4799995422363
869.6092289,9.97999954223633
869.6248539,6.82000017166138
869.6404789,4.28000020980835
869.6561039,2.57999992370605
869.6717289,1.63999998569489
869.6873539,1.03999996185303
869.7029789,0.310000002384186
869.7186039,-0.779999971389771
869.7342289,-2.28999996185303
869.7498539,-4.15000009536743
869.7654789,-6.25
869.7811039,-8.43000030517578
869.7967289,-10.5799999237061
869.8123539,-12.6199998855591
869.8279789,-14.4300003051758
869.8436039,-15.8400001525879
869.8592289,-16.8500003814697
869.8748539,-17.4599990844727
869.8904789,-17.1399993896484
869.9061039,-14.7299995422363
869.9217289,-9.01000022888184
869.9373539,0.319999992847443
869.9529789,12.1199998855591
869.9686039,24.1200008392334
869.9842289,33.7900009155273
869.9998539,39.3400001525879
870.0154789,40.2999992370605
870.0311039,37.439998626709
870.0467289,32.2400016784668
870.0623539,26.1700000762939
870.0779789,20.1299991607666
870.0936039,14.2799997329712
870.1092289,8.43000030517578
870.1248539,2.44000005722046
870.1404789,-3.39000010490417
870.1561039,-8.52999973297119
870.1717289,-12.4300003051758
870.1873539,-14.8900003433228
870.2029789,-16.1299991607666
870.2186039,-16.6700000762939
870.2342289,-17.0200004577637
870.2498539,-17.6000003814697
870.2654789,-18.6200008392334
870.2811039,-20.0499992370605
870.2967289,-21.7600002288818
870.3123539,-23.6599998474121
870.3279789,-25.5799999237061
870.3436039,-27.3500003814697
870.3592289,-28.8299999237061
870.3748539,-29.9699993133545
870.3904789,-30.8299999237061
870.4061039,-31.3999996185303
870.4217289,-31.4300003051758
870.4373539,-30.1700000762939
870.4529789,-26.3299999237061
870.4686039,-18.6800003051758
870.4842289,-6.98000001907349
870.4998539,7.5
870.5154789,22.3299999237061
870.5311039,34.6399993896484
870.5467289,42.4099998474121
870.5623539,45.0400009155273
870.5779789,43.2200012207031
870.5936039,38.3800010681152
870.6092289,32.1199989318848
870.6248539,25.7299995422363
870.6404789,19.9599990844727
870.6561039,14.9200000762939
870.6717289,10.2799997329712
870.6873539,5.76000022888184
870.7029789,1.36000001430511
870.7186039,-2.66000008583069
870.7342289,-6.05999994277954
870.7498539,-8.65999984741211
870.7654789,-10.4399995803833
870.7811039,-11.5900001525879
870.7967289,-12.4499998092651
870.8123539,-13.4399995803833
870.8279789,-14.8100004196167
870.8436039,-16.5799999237061
870.8592289,-18.5900001525879
870.8748539,-20.6299991607666
870.8904789,-22.5400009155273
870.9061039,-24.2700004577637
870.9217289,-25.8099994659424
870.9373539,-27.1200008392334
870.9529789,-28.1599998474121
870.9686039,-28.7700004577637
870.9842289,-28.2600002288818
870.9998539,-25.4099998474121
871.0154789,-18.9699993133545
871.0311039,-8.68000030517578
871.0467289,4.3600001335144
871.0623539,17.9400005340576
871.0779789,29.5499992370605
871.0936039,37.2799987792969
871.1092289,40.4199981689453
871.1248539,39.5499992370605
871.1404789,35.8899993896484
871.1561039,30.7700004577637
871.1717289,25.1000003814697
871.1873539,19.4200000762939
871.2029789,14.0
871.2186039,8.92000007629395
871.2342289,4.23000001907349
871.2498539,0.0199999995529652
871.2654789,-3.57999992370605
871.2811039,-6.63000011444092
871.2967289,-9.1899995803833
871.3123539,-11.2200002670288
871.3279789,-12.6499996185303
871.3436039,-13.4899997711182
871.3592289,-14.0200004577637
871.3748539,-14.6300001144409
871.3904789,-15.6099996566772
871.4061039,-17.0200004577637
871.4217289,-18.7800006866455
871.4373539,-20.7800006866455
871.4529789,-22.7900009155273
871.4686039,-24.5
871.4842289,-25.7199993133545
871.4998539,-26.5
871.5154789,-27.1299991607666
871.5311039,-27.7000007629395
871.5467289,-27.6800003051758
871.5623539,-25.8700008392334
871.5779789,-20.9300003051758
871.5936039,-12.1000003814697
871.6092289,0.239999994635582
871.6248539,14.5500001907349
871.6404789,28.3500003814697
871.6561039,38.9799995422363
871.6717289,44.6199989318848
871.6873539,45.1199989318848
871.7029789,41.7999992370605
871.7186039,36.4599990844727
871.7342289,30.5799999237061
871.7498539,24.9599990844727
871.7654789,19.8199996948242
871.7811039,15.0100002288818
871.7967289,10.3199996948242
871.8123539,5.76000022888184
871.8279789,1.57000005245209
871.8436039,-1.94000005722046
871.8592289,-4.6399998664856
871.8748539,-6.53999996185303
871.8904789,-7.78999996185303
871.9061039,-8.61999988555908
871.9217289,-9.35000038146973
871.9373539,-10.2200002670288
871.9529789,-11.4700002670288
871.9686039,-13.1700000762939
871.9842289,-15.0900001525879
871.9998539,-16.75
872.0154789,-17.8299999237061
872.0311039,-18.4799995422363
872.0467289,-19.0599994659424
872.0623539,-19.7900009155273
872.0779789,-20.6900005340576
872.0936039,-21.5400009155273
872.1092289,-21.8099994659424
872.1248539,-20.4899997711182
872.1404789,-16.1800003051758
872.1561039,-7.94000005722046
872.1717289,3.79999995231628
872.1873539,17.2299995422363
872.2029789,29.8199996948242
872.2186039,39.2999992370605
872.2342289,44.4500007629395
872.2498539,45.3300018310547
872.2654789,42.9500007629395
872.2811039,38.7200012207031
872.2967289,33.810001373291
872.3123539,28.8400001525879
872.3279789,23.8999996185303
872.3436039,18.8600006103516
872.3592289,13.6400003433228
872.3748539,8.36999988555908
872.3904789,3.42000007629395
872.4061039,-0.660000026226044
872.4217289,-3.50999999046326
872.4373539,-5.15999984741211
872.4529789,-6.07000017166138
872.4686039,-6.78000020980835
872.4842289,-7.71000003814697
872.4998539,-9.07999992370605
872.5154789,-10.9499998092651
872.5311039,-13.25
872.5467289,-15.7700004577637
872.5623539,-18.2299995422363
872.5779789,-20.3400001525879
872.5936039,-22.0
872.6092289,-23.25
872.6248539,-24.1900005340576
872.6404789,-24.8199996948242
872.6561039,-24.8099994659424
872.6717289,-23.2700004577637
872.6873539,-19.0799999237061
872.7029789,-11.3999996185303
872.7186039,-0.360000014305115
872.7342289,12.75
872.7498539,25.8500003814697
872.7654789,36.8600006103516
872.7811039,44.3199996948242
872.7967289,47.7099990844727
872.8123539,47.3800010681152
872.8279789,44.2700004577637
872.8436039,39.5
872.8592289,33.9799995422363
872.8748539,28.2999992370605
872.8904789,22.6399993896484
872.9061039,16.9699993133545
872.9217289,11.2799997329712
872.9373539,5.80000019073486
872.9529789,0.959999978542328
872.9686039,-2.88000011444092
872.9842289,-5.67000007629395
872.9998539,-7.65000009536743
873.0154789,-9.23999977111816
873.0311039,-10.8999996185303
873.0467289,-12.9399995803833
873.0623539,-15.3800001144409
873.0779789,-18.0699996948242
873.0936039,-20.8099994659424
873.1092289,-23.5400009155273
873.1248539,-26.25
873.1404789,-28.8999996185303
873.1561039,-31.3299999237061
873.1717289,-33.2200012207031
873.1873539,-34.3600006103516
873.2029789,-34.7799987792969
873.2186039,-34.7000007629395
873.2342289,-34.1500015258789
873.2498539,-32.5999984741211
873.2654789,-28.7199993133545
873.2811039,-20.8600006103516
873.2967289,-8.48999977111816
873.3123539,6.86999988555908
873.3279789,22.3199996948242
873.3436039,35.0400009155273
873.3592289,43.4000015258789
873.3748539,47.25
873.3904789,47.6300010681152
873.4061039,45.9900016784668
873.4217289,43.5200004577637
873.4373539,40.7299995422363
873.4529789,37.6199989318848
873.4686039,33.8600006103516
873.4842289,29.0900001525879
873.4998539,23.2199993133545
873.5154789,16.5699996948242
873.5311039,9.69999980926514
873.5467289,3.13000011444092
873.5623539,-2.69000005722046
873.5779789,-7.59000015258789
873.5936039,-11.6099996566772
873.6092289,-14.9300003051758
873.6248539,-17.8600006103516
873.6404789,-20.75
873.6561039,-23.9099998474121
873.6717289,-27.3299999237061
873.6873539,-30.7900009155273
873.7029789,-33.939998626709
873.7186039,-36.4799995422363
873.7342289,-38.2999992370605
873.7498539,-39.4599990844727
873.7654789,-40.0800018310547
873.7811039,-40.3899993896484
873.7967289,-40.6199989318848
873.8123539,-40.9000015258789
873.8279789,-41.1800003051758
873.8436039,-41.2299995422363
873.8592289,-40.5699996948242
873.8748539,-38.1500015258789
873.8904789,-32.3800010681152
873.9061039,-22.0200004577637
873.9217289,-7.28000020980835
873.9373539,10.039999961853
873.9529789,27.2600002288818
873.9686039,41.8400001525879
873.9842289,52.4000015258789
873.9998539,58.9700012207031
874.0154789,62.5400009155273
874.0311039,64.3300018310547
874.0467289,64.9800033569336
874.0623539,64.2600021362305
874.0779789,61.3899993896484
874.0936039,55.6199989318848
874.1092289,46.6500015258789
874.1248539,34.8699989318848
874.1404789,21.2199993133545
874.1561039,7.05999994277954
874.1717289,-6.07000017166138
874.1873539,-17.0
874.2029789,-25.3899993896484
874.2186039,-31.7199993133545
874.2342289,-36.9000015258789
874.2498539,-41.810001373291
874.2654789,-46.939998626709
874.2811039,-52.4099998474121
874.2967289,-57.9500007629395
874.3123539,-63.0099983215332
874.3279789,-66.9599990844727
874.3436039,-69.4199981689453
874.3592289,-70.3499984741211
874.3748539,-70.0500030517578
874.3904789,-69.0299987792969
874.4061039,-67.6699981689453
874.4217289,-65.9499969482422
874.4373539,-63.5499992370605
874.4529789,-60.3199996948242
874.4686039,-56.3600006103516
874.4842289,-51.8600006103516
874.4998539,-46.8800010681152
874.5154789,-41.3899993896484
874.5311039,-35.2200012207031
874.5467289,-27.8899993896484
874.5623539,-18.4400005340576
874.5779789,-5.84000015258789
874.5936039,10.1800003051758
874.6092289,28.7099990844727
874.6248539,47.7900009155273
874.6404789,65.120002746582
874.6561039,78.6999969482422
874.6717289,87.4000015258789
874.6873539,91.2900009155273
874.7029789,91.4400024414063
874.7186039,89.2900009155273
874.7342289,86.0599975585938
874.7498539,82.3899993896484
874.7654789,78.4100036621094
874.7811039,74.0699996948242
874.7967289,69.4100036621094
874.8123539,64.5199966430664
874.8279789,59.4799995422363
874.8436039,54.3899993896484
874.8592289,49.3499984741211
874.8748539,44.4599990844727
874.8904789,39.8199996948242
874.9061039,35.4799995422363
874.9217289,31.4400005340576
874.9373539,27.6499996185303
874.9529789,24.0499992370605
874.9686039,20.6000003814697
874.9842289,17.2900009155273
874.9998539,14.1099996566772
875.0154789,11.0299997329712
875.0311039,7.96999979019165
875.0467289,4.8600001335144
875.0623539,1.75
875.0779789,-1.11000001430511
875.0936039,-3.44000005722046
875.1092289,-5.09999990463257
875.1248539,-6.19000005722046
875.1404789,-6.98999977111816
875.1561039,-7.88000011444092
875.1717289,-9.02999973297119
875.1873539,-10.1199998855591
875.2029789,-10.3599996566772
875.2186039,-8.85000038146973
875.2342289,-5.0
875.2498539,1.27999997138977
875.2654789,9.60999965667725
875.2811039,18.7700004577637
875.2967289,27.1000003814697
875.3123539,33.5099983215332
875.3279789,37.8300018310547
875.3436039,40.2200012207031
875.3592289,40.7299995422363
875.3748539,39.3800010681152
875.3904789,36.4099998474121
875.4061039,32.2599983215332
875.4217289,27.3099994659424
875.4373539,21.7299995422363
875.4529789,15.5100002288818
875.4686039,8.69999980926514
875.4842289,1.6599999666214
875.4998539,-5.07000017166138
875.5154789,-11.0500001907349
875.5311039,-16.1499996185303
875.5467289,-20.5400009155273
875.5623539,-24.5100002288818
875.5779789,-28.2399997711182
875.5936039,-31.6900005340576
875.6092289,-34.6599998474121
875.6248539,-37.0499992370605
875.6404789,-38.9300003051758
875.6561039,-40.5699996948242
875.6717289,-42.2299995422363
875.6873539,-44.0200004577637
875.7029789,-45.8400001525879
875.7186039,-47.5400009155273
875.7342289,-49.0800018310547
875.7498539,-50.4000015258789
875.7654789,-51.4500007629395
875.7811039,-52.2200012207031
875.7967289,-52.7400016784668
875.8123539,-53.1199989318848
875.8279789,-53.3400001525879
875.8436039,-53.0099983215332
875.8592289,-51.4000015258789
875.8748539,-47.8600006103516
875.8904789,-42.2299995422363
875.9061039,-35.0
875.9217289,-27.1100006103516
875.9373539,-19.5799999237061
875.9529789,-13.2700004577637
875.9686039,-8.52999973297119
875.9842289,-5.11999988555908
875.9998539,-2.51999998092651
876.0154789,-0.310000002384186
876.0311039,1.53999996185303
876.0467289,2.82999992370605
876.0623539,3.38000011444092
876.0779789,3.27999997138977
876.0936039,2.75
876.1092289,1.9099999666214
876.1248539,0.779999971389771
876.1404789,-0.490000009536743
876.1561039,-1.67999994754791
876.1717289,-2.54999995231628
876.1873539,-2.9300000667572
876.2029789,-2.75
876.2186039,-2.04999995231628
876.2342289,-0.990000009536743
876.2498539,0.0199999995529652
876.2654789,0.600000023841858
876.2811039,0.490000009536743
876.2967289,-0.28999999165535
876.3123539,-1.53999996185303
876.3279789,-2.9300000667572
876.3436039,-4.07000017166138
876.3592289,-4.71000003814697
876.3748539,-4.86999988555908
876.3904789,-4.69999980926514
876.4061039,-4.40999984741211
876.4217289,-4.21000003814697
876.4373539,-4.15999984741211
876.4529789,-4.07000017166138
876.4686039,-3.58999991416931
876.4842289,-2.35999989509583
876.4998539,-0.0599999986588955
876.5154789,3.92000007629395
876.5311039,10.460000038147
876.5467289,20.0900001525879
876.5623539,32.3899993896484
876.5779789,45.7999992370605
876.5936039,57.9599990844727
876.6092289,66.7799987792969
876.6248539,71.2699966430664
876.6404789,71.75
876.6561039,69.3099975585938
876.6717289,65.25
876.6873539,60.5999984741211
876.7029789,55.75
876.7186039,50.5499992370605
876.7342289,44.6699981689453
876.7498539,38.0
876.7654789,30.7700004577637
876.7811039,23.3899993896484
876.7967289,16.2800006866455
876.8123539,9.8100004196167
876.8279789,4.21999979019165
876.8436039,-0.360000014305115
876.8592289,-4.05000019073486
876.8748539,-7.11999988555908
876.8904789,-9.88000011444092
876.9061039,-12.5
876.9217289,-15.1499996185303
876.9373539,-18.0200004577637
876.9529789,-21.1100006103516
876.9686039,-24.2399997711182
876.9842289,-27.0499992370605
876.9998539,-29.2299995422363
877.0154789,-30.7399997711182
877.0311039,-31.7900009155273
877.0467289,-32.6199989318848
877.0623539,-33.3800010681152
877.0779789,-34.0499992370605
877.0936039,-34.439998626709
877.1092289,-34.3899993896484
877.1248539,-33.8600006103516
877.1404789,-33.0
877.1561039,-31.8400001525879
877.1717289,-29.8899993896484
877.1873539,-26.0699996948242
877.2029789,-19.3299999237061
877.2186039,-9.3100004196167
877.2342289,3.04999995231628
877.2498539,15.8100004196167
877.2654789,26.6000003814697
877.2811039,33.6399993896484
877.2967289,36.4300003051758
877.3123539,35.7200012207031
877.3279789,32.8499984741211
877.3436039,28.9699993133545
877.3592289,24.7600002288818
877.3748539,20.4899997711182
877.3904789,16.1800003051758
877.4061039,11.7700004577637
877.4217289,7.21000003814697
877.4373539,2.54999995231628
877.4529789,-1.95000004768372
877.4686039,-5.88000011444092
877.4842289,-8.94999980926514
877.4998539,-11.1400003433228
877.5154789,-12.6300001144409
877.5311039,-13.6499996185303
877.5467289,-14.4300003051758
877.5623539,-15.2299995422363
877.5779789,-16.2800006866455
877.5936039,-17.5799999237061
877.6092289,-19.0
877.6248539,-20.3799991607666
877.6404789,-21.6599998474121
877.6561039,-22.8600006103516
877.6717289,-24.0100002288818
877.6873539,-25.0900001525879
877.7029789,-25.9500007629395
877.7186039,-26.3899993896484
877.7342289,-26.4099998474121
877.7498539,-26.1200008392334
877.7654789,-25.5499992370605
877.7811039,-24.4300003051758
877.7967289,-22.0100002288818
877.8123539,-17.1100006103516
877.8279789,-8.77000045776367
877.8436039,2.74000000953674
877.8592289,15.6800003051758
877.8748539,27.6200008392334
877.8904789,36.5200004577637
877.9061039,41.4500007629395
877.9217289,42.5400009155273
877.9373539,40.5999984741211
877.9529789,36.75
877.9686039,32.0699996948242
877.9842289,27.2700004577637
877.9998539,22.5900001525879
878.0154789,17.9699993133545
878.0311039,13.3500003814697
878.0467289,8.77999973297119
878.0623539,4.44000005722046
878.0779789,0.579999983310699
878.0936039,-2.6800000667572
878.1092289,-5.3899998664856
878.1248539,-7.61999988555908
878.1404789,-9.43000030517578
878.1561039,-10.8900003433228
878.1717289,-12.1099996566772
878.1873539,-13.2299995422363
878.2029789,-14.4399995803833
878.2186039,-15.8500003814697
878.2342289,-17.4300003051758
878.2498539,-19.0300006866455
878.2654789,-20.4300003051758
878.2811039,-21.4500007629395
878.2967289,-22.0499992370605
878.3123539,-22.3600006103516
878.3279789,-22.5400009155273
878.3436039,-22.6299991607666
878.3592289,-22.6299991607666
878.3748539,-22.5699996948242
878.3904789,-22.3999996185303
878.4061039,-21.9099998474121
878.4217289,-20.5599994659424
878.4373539,-17.2900009155273
878.4529789,-10.75
878.4686039,-0.349999994039536
878.4842289,13.0699996948242
878.4998539,27.3299999237061
878.5154789,39.8199996948242
878.5311039,48.5699996948242
878.5467289,52.9000015258789
878.5623539,53.189998626709
878.5779789,50.5
878.5936039,46.0900001525879
878.6092289,41.0
878.6248539,35.8899993896484
878.6404789,30.9099998474121
878.6561039,25.8700008392334
878.6717289,20.5
878.6873539,14.6999998092651
878.7029789,8.64000034332275
878.7186039,2.73000001907349
878.7342289,-2.51999998092651
878.7498539,-6.76000022888184
878.7654789,-9.89000034332275
878.7811039,-12.1499996185303
878.7967289,-13.8199996948242
878.8123539,-15.1199998855591
878.8279789,-16.1700000762939
878.8436039,-17.1800003051758
878.8592289,-18.3999996185303
878.8748539,-19.9500007629395
878.8904789,-21.7399997711182
878.9061039,-23.4899997711182
878.9217289,-24.9899997711182
878.9373539,-26.2000007629395
878.9529789,-27.1800003051758
878.9686039,-28.0
878.9842289,-28.6399993896484
878.9998539,-29.0699996948242
879.0154789,-29.25
879.0311039,-29.1200008392334
879.0467289,-28.6299991607666
879.0623539,-27.7299995422363
879.0779789,-26.1499996185303
879.0936039,-23.1599998474121
879.1092289,-17.6700000762939
879.1248539,-8.90999984741211
879.1404789,2.90000009536743
879.1561039,16.2800006866455
879.1717289,29.0300006866455
879.1873539,39.1100006103516
879.2029789,45.3600006103516
879.2186039,47.6699981689453
879.2342289,46.7999992370605
879.2498539,43.9700012207031
879.2654789,40.2900009155273
879.2811039,36.4300003051758
879.2967289,32.6100006103516
879.3123539,28.7800006866455
879.3279789,24.7099990844727
879.3436039,20.1599998474121
879.3592289,15.1700000762939
879.3748539,10.0299997329712
879.3904789,5.17999982833862
879.4061039,1.00999999046326
879.4217289,-2.24000000953674
879.4373539,-4.65999984741211
879.4529789,-6.59000015258789
879.4686039,-8.38000011444092
879.4842289,-10.1899995803833
879.4998539,-12.0
879.5154789,-13.6999998092651
879.5311039,-15.1599998474121
879.5467289,-16.3099994659424
879.5623539,-17.1000003814697
879.5779789,-17.6800003051758
879.5936039,-18.2999992370605
879.6092289,-19.1100006103516
879.6248539,-20.0699996948242
879.6404789,-20.9899997711182
879.6561039,-21.6900005340576
879.6717289,-22.0900001525879
879.6873539,-22.2000007629395
879.7029789,-22.0100002288818
879.7186039,-21.3999996185303
879.7342289,-20.0
879.7498539,-17.3099994659424
879.7654789,-13.0100002288818
