Time(s),Value(μS)
869.0154789,1.55999994277954
869.0311039,1.55799996852875
869.0467289,1.55499994754791
869.0623539,1.55200004577637
869.0779789,1.54900002479553
869.0936039,1.5460000038147
869.1092289,1.5440000295639
869.1248539,1.54200005531311
869.1404789,1.53999996185303
869.1561039,1.53799998760223
869.1717289,1.53600001335144
869.1873539,1.53299999237061
869.2029789,1.52999997138977
869.2186039,1.52699995040894
869.2342289,1.52400004863739
869.2498539,1.52100002765656
869.2654789,1.51999998092651
869.2811039,1.51800000667572
869.2967289,1.51699995994568
869.3123539,1.51499998569489
869.3279789,1.51400005817413
869.3436039,1.51400005817413
869.3592289,1.51300001144409
869.3748539,1.51300001144409
869.3904789,1.51199996471405
869.4061039,1.51199996471405
869.4217289,1.51199996471405
869.4373539,1.51199996471405
869.4529789,1.51199996471405
869.4686039,1.51199996471405
869.4842289,1.51199996471405
869.4998539,1.51199996471405
869.5154789,1.51300001144409
869.5311039,1.51300001144409
869.5467289,1.51300001144409
869.5623539,1.51300001144409
869.5779789,1.51300001144409
869.5936039,1.51400005817413
869.6092289,1.51400005817413
869.6248539,1.51400005817413
869.6404789,1.51499998569489
869.6561039,1.51499998569489
869.6717289,1.51499998569489
869.6873539,1.51499998569489
869.7029789,1.51499998569489
869.7186039,1.51600003242493
869.7342289,1.51499998569489
869.7498539,1.51499998569489
869.7654789,1.51499998569489
869.7811039,1.51499998569489
869.7967289,1.51499998569489
869.8123539,1.51400005817413
869.8279789,1.51400005817413
869.8436039,1.51300001144409
869.8592289,1.51300001144409
869.8748539,1.51300001144409
869.8904789,1.51199996471405
869.9061039,1.51199996471405
869.9217289,1.51199996471405
869.9373539,1.51199996471405
869.9529789,1.51199996471405
869.9686039,1.5110000371933
869.9842289,1.5110000371933
869.9998539,1.5110000371933
870.0154789,1.50999999046326
870.0311039,1.50999999046326
870.0467289,1.50999999046326
870.0623539,1.50999999046326
870.0779789,1.50999999046326
870.0936039,1.50999999046326
870.1092289,1.50899994373322
870.1248539,1.50899994373322
870.1404789,1.50899994373322
870.1561039,1.50899994373322
870.1717289,1.50800001621246
870.1873539,1.50800001621246
870.2029789,1.50800001621246
870.2186039,1.50800001621246
870.2342289,1.50800001621246
870.2498539,1.50800001621246
870.2654789,1.50800001621246
870.2811039,1.50800001621246
870.2967289,1.50800001621246
870.3123539,1.50699996948242
870.3279789,1.50699996948242
870.3436039,1.50699996948242
870.3592289,1.50699996948242
870.3748539,1.50699996948242
870.3904789,1.50699996948242
870.4061039,1.50699996948242
870.4217289,1.50699996948242
870.4373539,1.50699996948242
870.4529789,1.50600004196167
870.4686039,1.50600004196167
870.4842289,1.50600004196167
870.4998539,1.50600004196167
870.5154789,1.50600004196167
870.5311039,1.50600004196167
870.5467289,1.50600004196167
870.5623539,1.50600004196167
870.5779789,1.50499999523163
870.5936039,1.50499999523163
870.6092289,1.50399994850159
870.6248539,1.50399994850159
870.6404789,1.50300002098083
870.6561039,1.50300002098083
870.6717289,1.50399994850159
870.6873539,1.50399994850159
870.7029789,1.50399994850159
870.7186039,1.50399994850159
870.7342289,1.50399994850159
870.7498539,1.50499999523163
870.7654789,1.50499999523163
870.7811039,1.50499999523163
870.7967289,1.50499999523163
870.8123539,1.50600004196167
870.8279789,1.50600004196167
870.8436039,1.50600004196167
870.8592289,1.50699996948242
870.8748539,1.50699996948242
870.8904789,1.50800001621246
870.9061039,1.50800001621246
870.9217289,1.50899994373322
870.9373539,1.50899994373322
870.9529789,1.50999999046326
870.9686039,1.50999999046326
870.9842289,1.50999999046326
870.9998539,1.5110000371933
871.0154789,1.5110000371933
871.0311039,1.5110000371933
871.0467289,1.51199996471405
871.0623539,1.51199996471405
871.0779789,1.51199996471405
871.0936039,1.51199996471405
871.1092289,1.51300001144409
871.1248539,1.51300001144409
871.1404789,1.51300001144409
871.1561039,1.51300001144409
871.1717289,1.51300001144409
871.1873539,1.51300001144409
871.2029789,1.51400005817413
871.2186039,1.51400005817413
871.2342289,1.51499998569489
871.2498539,1.51499998569489
871.2654789,1.51499998569489
871.2811039,1.51600003242493
871.2967289,1.51600003242493
871.3123539,1.51600003242493
871.3279789,1.51699995994568
871.3436039,1.51699995994568
871.3592289,1.51699995994568
871.3748539,1.51800000667572
871.3904789,1.51800000667572
871.4061039,1.51800000667572
871.4217289,1.51800000667572
871.4373539,1.51900005340576
871.4529789,1.51900005340576
871.4686039,1.51900005340576
871.4842289,1.51900005340576
871.4998539,1.51900005340576
871.5154789,1.51999998092651
871.5311039,1.51999998092651
871.5467289,1.51999998092651
871.5623539,1.51999998092651
871.5779789,1.51999998092651
871.5936039,1.52100002765656
871.6092289,1.52100002765656
871.6248539,1.52100002765656
871.6404789,1.52100002765656
871.6561039,1.52100002765656
871.6717289,1.52100002765656
871.6873539,1.52199995517731
871.7029789,1.52199995517731
871.7186039,1.52199995517731
871.7342289,1.52199995517731
871.7498539,1.52199995517731
871.7654789,1.52199995517731
871.7811039,1.52199995517731
871.7967289,1.52199995517731
871.8123539,1.52199995517731
871.8279789,1.52199995517731
871.8436039,1.52199995517731
871.8592289,1.52199995517731
871.8748539,1.52199995517731
871.8904789,1.52199995517731
871.9061039,1.52300000190735
871.9217289,1.52300000190735
871.9373539,1.52300000190735
871.9529789,1.52300000190735
871.9686039,1.52300000190735
871.9842289,1.52199995517731
871.9998539,1.52199995517731
872.0154789,1.52199995517731
872.0311039,1.52199995517731
872.0467289,1.52199995517731
872.0623539,1.52199995517731
872.0779789,1.52199995517731
872.0936039,1.52199995517731
872.1092289,1.52199995517731
872.1248539,1.52199995517731
872.1404789,1.52199995517731
872.1561039,1.52199995517731
872.1717289,1.52199995517731
872.1873539,1.52199995517731
872.2029789,1.52199995517731
872.2186039,1.52199995517731
872.2342289,1.52199995517731
872.2498539,1.52199995517731
872.2654789,1.52199995517731
872.2811039,1.52199995517731
872.2967289,1.52199995517731
872.3123539,1.52199995517731
872.3279789,1.52199995517731
872.3436039,1.52199995517731
872.3592289,1.52199995517731
872.3748539,1.52199995517731
872.3904789,1.52100002765656
872.4061039,1.52100002765656
872.4217289,1.52100002765656
872.4373539,1.51999998092651
872.4529789,1.51900005340576
872.4686039,1.51900005340576
872.4842289,1.51800000667572
872.4998539,1.51800000667572
872.5154789,1.51699995994568
872.5311039,1.51699995994568
872.5467289,1.51600003242493
872.5623539,1.51600003242493
872.5779789,1.51499998569489
872.5936039,1.51499998569489
872.6092289,1.51499998569489
872.6248539,1.51499998569489
872.6404789,1.51499998569489
872.6561039,1.51499998569489
872.6717289,1.51499998569489
872.6873539,1.51400005817413
872.7029789,1.51400005817413
872.7186039,1.51300001144409
872.7342289,1.51300001144409
872.7498539,1.51199996471405
872.7654789,1.51199996471405
872.7811039,1.5110000371933
872.7967289,1.5110000371933
872.8123539,1.5110000371933
872.8279789,1.5110000371933
872.8436039,1.50999999046326
872.8592289,1.50999999046326
872.8748539,1.50999999046326
872.8904789,1.50999999046326
872.9061039,1.50999999046326
872.9217289,1.50999999046326
872.9373539,1.50999999046326
872.9529789,1.50899994373322
872.9686039,1.50899994373322
872.9842289,1.50899994373322
872.9998539,1.50899994373322
873.0154789,1.50800001621246
873.0311039,1.50800001621246
873.0467289,1.50800001621246
873.0623539,1.50699996948242
873.0779789,1.50699996948242
873.0936039,1.50699996948242
873.1092289,1.50699996948242
873.1248539,1.50699996948242
873.1404789,1.50699996948242
873.1561039,1.50699996948242
873.1717289,1.50699996948242
873.1873539,1.50699996948242
873.2029789,1.50600004196167
873.2186039,1.50600004196167
873.2342289,1.50499999523163
873.2498539,1.50499999523163
873.2654789,1.50499999523163
873.2811039,1.50499999523163
873.2967289,1.50399994850159
873.3123539,1.50399994850159
873.3279789,1.50399994850159
873.3436039,1.50399994850159
873.3592289,1.50399994850159
873.3748539,1.50399994850159
873.3904789,1.50300002098083
873.4061039,1.50300002098083
873.4217289,1.50300002098083
873.4373539,1.50300002098083
873.4529789,1.50300002098083
873.4686039,1.50300002098083
873.4842289,1.50199997425079
873.4998539,1.50199997425079
873.5154789,1.50199997425079
873.5311039,1.50100004673004
873.5467289,1.5
873.5623539,1.49899995326996
873.5779789,1.49899995326996
873.5936039,1.49800002574921
873.6092289,1.49699997901917
873.6248539,1.49699997901917
873.6404789,1.49600005149841
873.6561039,1.49600005149841
873.6717289,1.49500000476837
873.6873539,1.49399995803833
873.7029789,1.49000000953674
873.7186039,1.47800004482269
873.7342289,1.4559999704361
873.7498539,1.42400002479553
873.7654789,1.38300001621246
873.7811039,1.33599996566772
873.7967289,1.28699994087219
873.8123539,1.24000000953674
873.8279789,1.18700003623962
873.8436039,1.11699998378754
873.8592289,1.02699995040894
873.8748539,0.921999990940094
873.8904789,0.801999986171722
873.9061039,0.680000007152557
873.9217289,0.568000018596649
873.9373539,0.474000006914139
873.9529789,0.395000010728836
873.9686039,0.331000000238419
873.9842289,0.27700001001358
873.9998539,0.233999997377396
874.0154789,0.196999996900558
874.0311039,0.166999995708466
874.0467289,0.142000004649162
874.0623539,0.120999999344349
874.0779789,0.103000000119209
874.0936039,0.0879999995231628
874.1092289,0.0759999975562096
874.1248539,0.0649999976158142
874.1404789,0.0560000017285347
874.1561039,0.0480000004172325
874.1717289,0.0419999994337559
874.1873539,0.0359999984502792
874.2029789,0.0320000015199184
874.2186039,0.0280000008642673
874.2342289,0.0240000002086163
874.2498539,0.0209999997168779
874.2654789,0.0189999993890524
874.2811039,0.017000000923872
874.2967289,0.0149999996647239
874.3123539,0.0130000002682209
874.3279789,0.0120000001043081
874.3436039,0.0109999999403954
874.3592289,0.0099999997764825
874.3748539,0.0089999996125698
874.3904789,0.0080000003799796
874.4061039,0.0070000002160668
874.4217289,0.0070000002160668
874.4373539,0.006000000052154
874.4529789,0.006000000052154
874.4686039,0.0049999998882412
874.4842289,0.0049999998882412
874.4998539,0.0049999998882412
874.5154789,0.0049999998882412
874.5311039,0.0040000001899898
874.5467289,0.0040000001899898
874.5623539,0.0040000001899898
874.5779789,0.0040000001899898
874.5936039,0.0040000001899898
874.6092289,0.0040000001899898
874.6248539,0.003000000026077
874.6404789,0.003000000026077
874.6561039,0.003000000026077
874.6717289,0.003000000026077
874.6873539,0.003000000026077
874.7029789,0.003000000026077
874.7186039,0.003000000026077
874.7342289,0.003000000026077
874.7498539,0.003000000026077
874.7654789,0.003000000026077
874.7811039,0.003000000026077
874.7967289,0.003000000026077
874.8123539,0.003000000026077
874.8279789,0.003000000026077
874.8436039,0.003000000026077
874.8592289,0.003000000026077
874.8748539,0.003000000026077
874.8904789,0.003000000026077
874.9061039,0.003000000026077
874.9217289,0.003000000026077
874.9373539,0.003000000026077
874.9529789,0.003000000026077
874.9686039,0.003000000026077
874.9842289,0.003000000026077
874.9998539,0.003000000026077
875.0154789,0.0020000000949949
875.0311039,0.0020000000949949
875.0467289,0.0020000000949949
875.0623539,0.0020000000949949
875.0779789,0.0020000000949949
875.0936039,0.0020000000949949
875.1092289,0.0020000000949949
875.1248539,0.0020000000949949
875.1404789,0.0020000000949949
875.1561039,0.0020000000949949
875.1717289,0.0020000000949949
875.1873539,0.0020000000949949
875.2029789,0.0020000000949949
875.2186039,0.0020000000949949
875.2342289,0.0020000000949949
875.2498539,0.0020000000949949
875.2654789,0.0020000000949949
875.2811039,0.0020000000949949
875.2967289,0.0020000000949949
875.3123539,0.0020000000949949
875.3279789,0.0020000000949949
875.3436039,0.0020000000949949
875.3592289,0.0020000000949949
875.3748539,0.0020000000949949
875.3904789,0.0020000000949949
875.4061039,0.0020000000949949
875.4217289,0.0020000000949949
875.4373539,0.0020000000949949
875.4529789,0.0020000000949949
875.4686039,0.0020000000949949
875.4842289,0.0020000000949949
875.4998539,0.0020000000949949
875.5154789,0.0020000000949949
875.5311039,0.0020000000949949
875.5467289,0.0020000000949949
875.5623539,0.0020000000949949
875.5779789,0.0020000000949949
875.5936039,0.0020000000949949
875.6092289,0.0020000000949949
875.6248539,0.0020000000949949
875.6404789,0.0020000000949949
875.6561039,0.0020000000949949
875.6717289,0.0020000000949949
875.6873539,0.0020000000949949
875.7029789,0.0020000000949949
875.7186039,0.0020000000949949
875.7342289,0.0020000000949949
875.7498539,0.0020000000949949
875.7654789,0.0020000000949949
875.7811039,0.0020000000949949
875.7967289,0.0020000000949949
875.8123539,0.0020000000949949
875.8279789,0.0020000000949949
875.8436039,0.0020000000949949
875.8592289,0.0020000000949949
875.8748539,0.0020000000949949
875.8904789,0.0020000000949949
875.9061039,0.0020000000949949
875.9217289,0.0020000000949949
875.9373539,0.0020000000949949
875.9529789,0.0020000000949949
875.9686039,0.0020000000949949
875.9842289,0.0020000000949949
875.9998539,0.0020000000949949
876.0154789,0.0020000000949949
876.0311039,0.0020000000949949
876.0467289,0.0020000000949949
876.0623539,0.0020000000949949
876.0779789,0.0020000000949949
876.0936039,0.0020000000949949
876.1092289,0.0020000000949949
876.1248539,0.0020000000949949
876.1404789,0.0020000000949949
876.1561039,0.0020000000949949
876.1717289,0.0020000000949949
876.1873539,0.0020000000949949
876.2029789,0.0020000000949949
876.2186039,0.0020000000949949
876.2342289,0.0020000000949949
876.2498539,0.0020000000949949
876.2654789,0.0020000000949949
876.2811039,0.0020000000949949
876.2967289,0.0020000000949949
876.3123539,0.0020000000949949
876.3279789,0.0020000000949949
876.3436039,0.0020000000949949
876.3592289,0.0020000000949949
876.3748539,0.0020000000949949
876.3904789,0.0020000000949949
876.4061039,0.0020000000949949
876.4217289,0.0020000000949949
876.4373539,0.0020000000949949
876.4529789,0.0020000000949949
876.4686039,0.0020000000949949
876.4842289,0.0020000000949949
876.4998539,0.0020000000949949
876.5154789,0.0020000000949949
876.5311039,0.0020000000949949
876.5467289,0.0020000000949949
876.5623539,0.0020000000949949
876.5779789,0.0020000000949949
876.5936039,0.0020000000949949
876.6092289,0.0020000000949949
876.6248539,0.0020000000949949
876.6404789,0.0020000000949949
876.6561039,0.0020000000949949
876.6717289,0.0020000000949949
876.6873539,0.0020000000949949
876.7029789,0.0020000000949949
876.7186039,0.0020000000949949
876.7342289,0.0020000000949949
876.7498539,0.0020000000949949
876.7654789,0.0020000000949949
876.7811039,0.0020000000949949
876.7967289,0.0020000000949949
876.8123539,0.0020000000949949
876.8279789,0.0020000000949949
876.8436039,0.0020000000949949
876.8592289,0.0020000000949949
876.8748539,0.0020000000949949
876.8904789,0.0020000000949949
876.9061039,0.0020000000949949
876.9217289,0.0020000000949949
876.9373539,0.0020000000949949
876.9529789,0.0020000000949949
876.9686039,0.0020000000949949
876.9842289,0.0020000000949949
876.9998539,0.0020000000949949
877.0154789,0.0020000000949949
877.0311039,0.0020000000949949
877.0467289,0.0020000000949949
877.0623539,0.0020000000949949
877.0779789,0.0020000000949949
877.0936039,0.0020000000949949
877.1092289,0.0020000000949949
877.1248539,0.0020000000949949
877.1404789,0.0020000000949949
877.1561039,0.0020000000949949
877.1717289,0.0020000000949949
877.1873539,0.0020000000949949
877.2029789,0.0020000000949949
877.2186039,0.0020000000949949
877.2342289,0.0020000000949949
877.2498539,0.0020000000949949
877.2654789,0.0020000000949949
877.2811039,0.0020000000949949
877.2967289,0.0020000000949949
877.3123539,0.0020000000949949
877.3279789,0.0020000000949949
877.3436039,0.0020000000949949
877.3592289,0.0020000000949949
877.3748539,0.0020000000949949
877.3904789,0.0020000000949949
877.4061039,0.0020000000949949
877.4217289,0.0020000000949949
877.4373539,0.0020000000949949
877.4529789,0.0020000000949949
877.4686039,0.0020000000949949
877.4842289,0.0020000000949949
877.4998539,0.0020000000949949
877.5154789,0.0020000000949949
877.5311039,0.0020000000949949
877.5467289,0.0020000000949949
877.5623539,0.0020000000949949
877.5779789,0.0020000000949949
877.5936039,0.0020000000949949
877.6092289,0.0020000000949949
877.6248539,0.0020000000949949
877.6404789,0.0020000000949949
877.6561039,0.0020000000949949
877.6717289,0.0020000000949949
877.6873539,0.0020000000949949
877.7029789,0.0020000000949949
877.7186039,0.0020000000949949
877.7342289,0.0020000000949949
877.7498539,0.0020000000949949
877.7654789,0.0020000000949949
877.7811039,0.0020000000949949
877.7967289,0.0020000000949949
877.8123539,0.0020000000949949
877.8279789,0.0020000000949949
877.8436039,0.0020000000949949
877.8592289,0.0020000000949949
877.8748539,0.0020000000949949
877.8904789,0.0020000000949949
877.9061039,0.0020000000949949
877.9217289,0.0020000000949949
877.9373539,0.0020000000949949
877.9529789,0.0020000000949949
877.9686039,0.0020000000949949
877.9842289,0.0020000000949949
877.9998539,0.0020000000949949
878.0154789,0.0020000000949949
878.0311039,0.0020000000949949
878.0467289,0.0020000000949949
878.0623539,0.0020000000949949
878.0779789,0.0020000000949949
878.0936039,0.0020000000949949
878.1092289,0.0020000000949949
878.1248539,0.0020000000949949
878.1404789,0.0020000000949949
878.1561039,0.0020000000949949
878.1717289,0.0020000000949949
878.1873539,0.0020000000949949
878.2029789,0.0020000000949949
878.2186039,0.0020000000949949
878.2342289,0.0020000000949949
878.2498539,0.0020000000949949
878.2654789,0.0020000000949949
878.2811039,0.0020000000949949
878.2967289,0.0020000000949949
878.3123539,0.0020000000949949
878.3279789,0.0020000000949949
878.3436039,0.0020000000949949
878.3592289,0.0020000000949949
878.3748539,0.0020000000949949
878.3904789,0.0020000000949949
878.4061039,0.0020000000949949
878.4217289,0.0020000000949949
878.4373539,0.0020000000949949
878.4529789,0.0020000000949949
878.4686039,0.0020000000949949
878.4842289,0.0020000000949949
878.4998539,0.0020000000949949
878.5154789,0.0020000000949949
878.5311039,0.0020000000949949
878.5467289,0.0020000000949949
878.5623539,0.0020000000949949
878.5779789,0.0020000000949949
878.5936039,0.0020000000949949
878.6092289,0.0020000000949949
878.6248539,0.0020000000949949
878.6404789,0.0020000000949949
878.6561039,0.0020000000949949
878.6717289,0.0020000000949949
878.6873539,0.0020000000949949
878.7029789,0.0020000000949949
878.7186039,0.0020000000949949
878.7342289,0.0020000000949949
878.7498539,0.0020000000949949
878.7654789,0.0020000000949949
878.7811039,0.0020000000949949
878.7967289,0.0020000000949949
878.8123539,0.0020000000949949
878.8279789,0.0020000000949949
878.8436039,0.0020000000949949
878.8592289,0.0020000000949949
878.8748539,0.0020000000949949
878.8904789,0.0020000000949949
878.9061039,0.0020000000949949
878.9217289,0.0020000000949949
878.9373539,0.0020000000949949
878.9529789,0.0020000000949949
878.9686039,0.0020000000949949
878.9842289,0.0020000000949949
878.9998539,0.0020000000949949
879.0154789,0.0020000000949949
879.0311039,0.0020000000949949
879.0467289,0.0020000000949949
879.0623539,0.0020000000949949
879.0779789,0.0020000000949949
879.0936039,0.0020000000949949
879.1092289,0.0020000000949949
879.1248539,0.0020000000949949
879.1404789,0.0020000000949949
879.1561039,0.0020000000949949
879.1717289,0.0020000000949949
879.1873539,0.0020000000949949
879.2029789,0.0020000000949949
879.2186039,0.0020000000949949
879.2342289,0.0020000000949949
879.2498539,0.0020000000949949
879.2654789,0.0020000000949949
879.2811039,0.0020000000949949
879.2967289,0.0020000000949949
879.3123539,0.0020000000949949
879.3279789,0.0020000000949949
879.3436039,0.0020000000949949
879.3592289,0.0020000000949949
879.3748539,0.0020000000949949
879.3904789,0.0020000000949949
879.4061039,0.0020000000949949
