Time(s),Value(%)
1148.0128731,-6.03000020980835
1148.0284981,-5.82999992370605
1148.0441231,-5.53999996185303
1148.0597481,-5.28000020980835
1148.0753731,-5.11999988555908
1148.0909981,-5.0
1148.1066231,-4.92999982833862
1148.1222481,-4.92000007629395
1148.1378731,-4.92999982833862
1148.1534981,-4.92000007629395
1148.1691231,-4.82000017166138
1148.1847481,-4.55999994277954
1148.2003731,-4.05999994277954
1148.2159981,-3.16000008583069
1148.2316231,-1.75999999046326
1148.2472481,0.0500000007450581
1148.2628731,2.03999996185303
1148.2784981,3.9300000667572
1148.2941231,5.59999990463257
1148.3097481,6.98000001907349
1148.3253731,7.98999977111816
1148.3409981,8.56999969482422
1148.3566231,8.72999954223633
1148.3722481,8.61999988555908
1148.3878731,8.43000030517578
1148.4034981,8.26000022888184
1148.4191231,8.05000019073486
1148.4347481,7.73999977111816
1148.4503731,7.26000022888184
1148.4659981,6.59000015258789
1148.4816231,5.76000022888184
1148.4972481,4.8899998664856
1148.5128731,4.05999994277954
1148.5284981,3.38000011444092
1148.5441231,2.91000008583069
1148.5597481,2.59999990463257
1148.5753731,2.30999994277954
1148.5909981,1.85000002384186
1148.6066231,1.22000002861023
1148.6222481,0.540000021457672
1148.6378731,-0.0599999986588955
1148.6534981,-0.610000014305115
1148.6691231,-1.20000004768372
1148.6847481,-1.86000001430511
1148.7003731,-2.51999998092651
1148.7159981,-3.01999998092651
1148.7316231,-3.3199999332428
1148.7472481,-3.49000000953674
1148.7628731,-3.67000007629395
1148.7784981,-3.94000005722046
1148.7941231,-4.23999977111816
1148.8097481,-4.44999980926514
1148.8253731,-4.48999977111816
1148.8409981,-4.40000009536743
1148.8566231,-4.28999996185303
1148.8722481,-4.28000020980835
1148.8878731,-4.38000011444092
1148.9034981,-4.6399998664856
1148.9191231,-5.03000020980835
1148.9347481,-5.46000003814697
1148.9503731,-5.80000019073486
1148.9659981,-5.98999977111816
1148.9816231,-6.0
1148.9972481,-5.76999998092651
1149.0128731,-5.32000017166138
1149.0284981,-4.86999988555908
1149.0441231,-4.59999990463257
1149.0597481,-4.51999998092651
1149.0753731,-4.42999982833862
1149.0909981,-4.15999984741211
1149.1066231,-3.67000007629395
1149.1222481,-3.02999997138977
1149.1378731,-2.29999995231628
1149.1534981,-1.41999995708466
1149.1691231,-0.28999999165535
1149.1847481,1.19000005722046
1149.2003731,3.0
1149.2159981,4.94000005722046
1149.2316231,6.80999994277954
1149.2472481,8.4399995803833
1149.2628731,9.73999977111816
1149.2784981,10.710000038147
1149.2941231,11.3699998855591
1149.3097481,11.6899995803833
1149.3253731,11.6499996185303
1149.3409981,11.3199996948242
1149.3566231,10.8800001144409
1149.3722481,10.460000038147
1149.3878731,10.0600004196167
1149.4034981,9.53999996185303
1149.4191231,8.81999969482422
1149.4347481,7.84999990463257
1149.4503731,6.6399998664856
1149.4659981,5.34999990463257
1149.4816231,4.21000003814697
1149.4972481,3.3199999332428
1149.5128731,2.54999995231628
1149.5284981,1.73000001907349
1149.5441231,0.839999973773956
1149.5597481,-0.0299999993294477
1149.5753731,-0.819999992847443
1149.5909981,-1.50999999046326
1149.6066231,-2.09999990463257
1149.6222481,-2.57999992370605
1149.6378731,-2.99000000953674
1149.6534981,-3.36999988555908
1149.6691231,-3.8199999332428
1149.6847481,-4.38000011444092
1149.7003731,-5.03000020980835
1149.7159981,-5.63000011444092
1149.7316231,-6.07000017166138
1149.7472481,-6.28999996185303
1149.7628731,-6.34999990463257
1149.7784981,-6.3899998664856
1149.7941231,-6.53000020980835
1149.8097481,-6.78000020980835
1149.8253731,-7.03999996185303
1149.8409981,-7.28000020980835
1149.8566231,-7.51000022888184
1149.8722481,-7.75
1149.8878731,-7.88000011444092
1149.9034981,-7.78000020980835
1149.9191231,-7.46999979019165
1149.9347481,-7.1100001335144
1149.9503731,-6.8600001335144
1149.9659981,-6.73999977111816
1149.9816231,-6.67000007629395
1149.9972481,-6.57000017166138
1150.0128731,-6.44000005722046
1150.0284981,-6.26999998092651
1150.0441231,-6.0
1150.0597481,-5.57999992370605
1150.0753731,-5.01999998092651
1150.0909981,-4.44999980926514
1150.1066231,-3.95000004768372
1150.1222481,-3.48000001907349
1150.1378731,-2.86999988555908
1150.1534981,-1.94000005722046
1150.1691231,-0.569999992847443
1150.1847481,1.32000005245209
1150.2003731,3.63000011444092
1150.2159981,5.96999979019165
1150.2316231,8.01000022888184
1150.2472481,9.60999965667725
1150.2628731,10.789999961853
1150.2784981,11.539999961853
1150.2941231,11.8599996566772
1150.3097481,11.8400001525879
1150.3253731,11.6599998474121
1150.3409981,11.4300003051758
1150.3566231,11.2200002670288
1150.3722481,11.0200004577637
1150.3878731,10.7200002670288
1150.4034981,10.2399997711182
1150.4191231,9.47000026702881
1150.4347481,8.39000034332275
1150.4503731,7.13000011444092
1150.4659981,5.94000005722046
1150.4816231,4.92000007629395
1150.4972481,3.99000000953674
1150.5128731,3.08999991416931
1150.5284981,2.25999999046326
1150.5441231,1.50999999046326
1150.5597481,0.769999980926514
1150.5753731,-0.0599999986588955
1150.5909981,-1.0
1150.6066231,-1.96000003814697
1150.6222481,-2.76999998092651
1150.6378731,-3.33999991416931
1150.6534981,-3.75999999046326
1150.6691231,-4.19999980926514
1150.6847481,-4.78000020980835
1150.7003731,-5.48000001907349
1150.7159981,-6.19999980926514
1150.7316231,-6.78999996185303
1150.7472481,-7.15000009536743
1150.7628731,-7.32000017166138
1150.7784981,-7.3899998664856
1150.7941231,-7.44999980926514
1150.8097481,-7.55000019073486
1150.8253731,-7.71999979019165
1150.8409981,-7.94999980926514
1150.8566231,-8.18000030517578
1150.8722481,-8.30000019073486
1150.8878731,-8.21000003814697
1150.9034981,-7.92000007629395
1150.9191231,-7.53999996185303
1150.9347481,-7.15000009536743
1150.9503731,-6.84999990463257
1150.9659981,-6.71999979019165
1150.9816231,-6.73999977111816
1150.9972481,-6.76000022888184
1151.0128731,-6.59999990463257
1151.0284981,-6.15000009536743
1151.0441231,-5.46999979019165
1151.0597481,-4.71999979019165
1151.0753731,-4.07000017166138
1151.0909981,-3.57999992370605
1151.1066231,-3.21000003814697
1151.1222481,-2.73000001907349
1151.1378731,-1.8400000333786
1151.1534981,-0.400000005960464
1151.1691231,1.52999997138977
1151.1847481,3.78999996185303
1151.2003731,6.07000017166138
1151.2159981,8.13000011444092
1151.2316231,9.75
1151.2472481,10.7799997329712
1151.2628731,11.2399997711182
1151.2784981,11.3400001525879
1151.2941231,11.3699998855591
1151.3097481,11.4700002670288
1151.3253731,11.5500001907349
1151.3409981,11.3800001144409
1151.3566231,10.8299999237061
1151.3722481,9.89000034332275
1151.3878731,8.73999977111816
1151.4034981,7.5
1151.4191231,6.30999994277954
1151.4347481,5.32999992370605
1151.4503731,4.67999982833862
1151.4659981,4.28999996185303
1151.4816231,4.0
1151.4972481,3.65000009536743
1151.5128731,3.1800000667572
1151.5284981,2.58999991416931
1151.5441231,1.92999994754791
1151.5597481,1.26999998092651
1151.5753731,0.649999976158142
1151.5909981,0.0700000002980232
1151.6066231,-0.490000009536743
1151.6222481,-1.02999997138977
1151.6378731,-1.53999996185303
1151.6534981,-2.02999997138977
1151.6691231,-2.53999996185303
1151.6847481,-3.05999994277954
1151.7003731,-3.53999996185303
1151.7159981,-3.96000003814697
1151.7316231,-4.34000015258789
1151.7472481,-4.69000005722046
1151.7628731,-5.03000020980835
1151.7784981,-5.3600001335144
1151.7941231,-5.65999984741211
1151.8097481,-5.8899998664856
1151.8253731,-6.01999998092651
1151.8409981,-5.94999980926514
1151.8566231,-5.65000009536743
1151.8722481,-5.19000005722046
1151.8878731,-4.78000020980835
1151.9034981,-4.53000020980835
1151.9191231,-4.44999980926514
1151.9347481,-4.46000003814697
1151.9503731,-4.44999980926514
1151.9659981,-4.42000007629395
1151.9816231,-4.34000015258789
1151.9972481,-4.1399998664856
1152.0128731,-3.8199999332428
1152.0284981,-3.4300000667572
1152.0441231,-3.01999998092651
1152.0597481,-2.58999991416931
1152.0753731,-2.02999997138977
1152.0909981,-1.24000000953674
1152.1066231,-0.119999997317791
1152.1222481,1.33000004291534
1152.1378731,3.05999994277954
1152.1534981,4.90999984741211
1152.1691231,6.59000015258789
1152.1847481,7.86999988555908
1152.2003731,8.68000030517578
1152.2159981,9.06999969482422
1152.2316231,9.14999961853027
1152.2472481,9.06999969482422
1152.2628731,8.97999954223633
1152.2784981,8.88000011444092
1152.2941231,8.67000007629395
1152.3097481,8.27999973297119
1152.3253731,7.65999984741211
1152.3409981,6.84999990463257
1152.3566231,5.92999982833862
1152.3722481,5.0
1152.3878731,4.07999992370605
1152.4034981,3.22000002861023
1152.4191231,2.49000000953674
1152.4347481,1.96000003814697
1152.4503731,1.55999994277954
1152.4659981,1.19000005722046
1152.4816231,0.769999980926514
1152.4972481,0.259999990463257
1152.5128731,-0.340000003576279
1152.5284981,-0.990000009536743
1152.5441231,-1.61000001430511
1152.5597481,-2.14000010490417
1152.5753731,-2.63000011444092
1152.5909981,-3.17000007629395
1152.6066231,-3.78999996185303
1152.6222481,-4.3899998664856
1152.6378731,-4.82000017166138
1152.6534981,-5.01000022888184
1152.6691231,-5.05999994277954
1152.6847481,-5.13000011444092
1152.7003731,-5.28000020980835
1152.7159981,-5.3899998664856
1152.7316231,-5.3600001335144
1152.7472481,-5.23000001907349
1152.7628731,-5.1399998664856
1152.7784981,-5.1399998664856
1152.7941231,-5.11999988555908
1152.8097481,-4.94999980926514
1152.8253731,-4.61999988555908
1152.8409981,-4.21999979019165
1152.8566231,-3.84999990463257
1152.8722481,-3.5699999332428
1152.8878731,-3.41000008583069
1152.9034981,-3.33999991416931
1152.9191231,-3.29999995231628
1152.9347481,-3.27999997138977
1152.9503731,-3.25999999046326
1152.9659981,-3.1800000667572
1152.9816231,-3.01999998092651
1152.9972481,-2.78999996185303
1153.0128731,-2.5
1153.0284981,-2.0699999332428
1153.0441231,-1.37999999523163
1153.0597481,-0.300000011920929
1153.0753731,1.19000005722046
1153.0909981,3.00999999046326
1153.1066231,4.90000009536743
1153.1222481,6.57000017166138
1153.1378731,7.82999992370605
1153.1534981,8.67000007629395
1153.1691231,9.14000034332275
1153.1847481,9.39000034332275
1153.2003731,9.55000019073486
1153.2159981,9.64000034332275
1153.2316231,9.60000038146973
1153.2472481,9.43000030517578
1153.2628731,9.15999984741211
1153.2784981,8.75
1153.2941231,8.18000030517578
1153.3097481,7.42999982833862
1153.3253731,6.53999996185303
1153.3409981,5.55000019073486
1153.3566231,4.51999998092651
1153.3722481,3.52999997138977
1153.3878731,2.64000010490417
1153.4034981,1.80999994277954
1153.4191231,1.00999999046326
1153.4347481,0.259999990463257
1153.4503731,-0.300000011920929
1153.4659981,-0.639999985694885
1153.4816231,-0.839999973773956
1153.4972481,-1.0900000333786
1153.5128731,-1.52999997138977
1153.5284981,-2.14000010490417
1153.5441231,-2.80999994277954
1153.5597481,-3.41000008583069
1153.5753731,-3.8199999332428
1153.5909981,-4.01999998092651
1153.6066231,-4.09999990463257
1153.6222481,-4.25
1153.6378731,-4.65999984741211
1153.6534981,-5.30999994277954
1153.6691231,-6.03000020980835
1153.6847481,-6.61999988555908
1153.7003731,-6.96999979019165
1153.7159981,-7.07000017166138
1153.7316231,-6.94999980926514
1153.7472481,-6.71000003814697
1153.7628731,-6.46999979019165
1153.7784981,-6.28000020980835
1153.7941231,-6.13000011444092
1153.8097481,-6.03000020980835
1153.8253731,-6.03000020980835
1153.8409981,-6.09000015258789
1153.8566231,-6.09000015258789
1153.8722481,-5.96000003814697
1153.8878731,-5.80999994277954
1153.9034981,-5.71999979019165
1153.9191231,-5.65999984741211
1153.9347481,-5.55000019073486
1153.9503731,-5.34999990463257
1153.9659981,-5.07999992370605
1153.9816231,-4.73000001907349
1153.9972481,-4.34000015258789
1154.0128731,-3.95000004768372
1154.0284981,-3.60999989509583
1154.0441231,-3.29999995231628
1154.0597481,-2.91000008583069
1154.0753731,-2.21000003814697
1154.0909981,-0.980000019073486
1154.1066231,0.75
1154.1222481,2.77999997138977
1154.1378731,4.80999994277954
1154.1534981,6.61999988555908
1154.1691231,8.02000045776367
1154.1847481,8.89000034332275
1154.2003731,9.34000015258789
1154.2159981,9.64000034332275
1154.2316231,9.98999977111816
1154.2472481,10.3699998855591
1154.2628731,10.5799999237061
1154.2784981,10.4700002670288
1154.2941231,10.0600004196167
1154.3097481,9.4399995803833
1154.3253731,8.71000003814697
1154.3409981,7.92999982833862
1154.3566231,7.11999988555908
1154.3722481,6.26000022888184
1154.3878731,5.40000009536743
1154.4034981,4.59999990463257
1154.4191231,3.86999988555908
1154.4347481,3.16000008583069
1154.4503731,2.50999999046326
1154.4659981,1.94000005722046
1154.4816231,1.46000003814697
1154.4972481,0.980000019073486
1154.5128731,0.430000007152557
1154.5284981,-0.189999997615814
1154.5441231,-0.860000014305115
1154.5597481,-1.48000001907349
1154.5753731,-2.03999996185303
1154.5909981,-2.54999995231628
1154.6066231,-3.01999998092651
1154.6222481,-3.4300000667572
1154.6378731,-3.77999997138977
1154.6534981,-4.07999992370605
1154.6691231,-4.3899998664856
1154.6847481,-4.76000022888184
1154.7003731,-5.17999982833862
1154.7159981,-5.55999994277954
1154.7316231,-5.80000019073486
1154.7472481,-5.92000007629395
1154.7628731,-6.01999998092651
1154.7784981,-6.11999988555908
1154.7941231,-6.21000003814697
1154.8097481,-6.23999977111816
1154.8253731,-6.17999982833862
1154.8409981,-6.07000017166138
1154.8566231,-5.94999980926514
1154.8722481,-5.84999990463257
1154.8878731,-5.76999998092651
1154.9034981,-5.59000015258789
1154.9191231,-5.21999979019165
1154.9347481,-4.67000007629395
1154.9503731,-4.1100001335144
1154.9659981,-3.72000002861023
1154.9816231,-3.64000010490417
1154.9972481,-3.77999997138977
1155.0128731,-3.95000004768372
1155.0284981,-3.88000011444092
1155.0441231,-3.42000007629395
1155.0597481,-2.53999996185303
1155.0753731,-1.24000000953674
1155.0909981,0.439999997615814
1155.1066231,2.4300000667572
1155.1222481,4.48999977111816
1155.1378731,6.34000015258789
1155.1534981,7.78999996185303
1155.1691231,8.8100004196167
1155.1847481,9.40999984741211
1155.2003731,9.60999965667725
1155.2159981,9.51000022888184
1155.2316231,9.27000045776367
1155.2472481,8.97999954223633
1155.2628731,8.59000015258789
1155.2784981,8.09000015258789
1155.2941231,7.53999996185303
1155.3097481,7.01000022888184
1155.3253731,6.51000022888184
1155.3409981,6.01000022888184
1155.3566231,5.46999979019165
1155.3722481,4.8600001335144
1155.3878731,4.17999982833862
1155.4034981,3.42000007629395
1155.4191231,2.61999988555908
1155.4347481,1.88999998569489
1155.4503731,1.27999997138977
1155.4659981,0.819999992847443
1155.4816231,0.469999998807907
1155.4972481,0.0700000002980232
1155.5128731,-0.490000009536743
1155.5284981,-1.16999995708466
1155.5441231,-1.78999996185303
1155.5597481,-2.27999997138977
1155.5753731,-2.66000008583069
1155.5909981,-3.0
1155.6066231,-3.33999991416931
1155.6222481,-3.70000004768372
1155.6378731,-4.07000017166138
1155.6534981,-4.40999984741211
1155.6691231,-4.71999979019165
1155.6847481,-4.98000001907349
1155.7003731,-5.17000007629395
1155.7159981,-5.26999998092651
1155.7316231,-5.28000020980835
1155.7472481,-5.19999980926514
1155.7628731,-5.07999992370605
1155.7784981,-4.94999980926514
1155.7941231,-4.80999994277954
1155.8097481,-4.71000003814697
1155.8253731,-4.69000005722046
1155.8409981,-4.76999998092651
1155.8566231,-4.8600001335144
1155.8722481,-4.8600001335144
1155.8878731,-4.76000022888184
1155.9034981,-4.59000015258789
1155.9191231,-4.36999988555908
1155.9347481,-4.05999994277954
1155.9503731,-3.70000004768372
1155.9659981,-3.29999995231628
1155.9816231,-2.88000011444092
1155.9972481,-2.4300000667572
1156.0128731,-1.87999999523163
1156.0284981,-1.11000001430511
1156.0441231,0.0299999993294477
1156.0597481,1.64999997615814
1156.0753731,3.60999989509583
1156.0909981,5.63000011444092
1156.1066231,7.40000009536743
1156.1222481,8.67000007629395
1156.1378731,9.32999992370605
1156.1534981,9.5
1156.1691231,9.43000030517578
1156.1847481,9.32999992370605
1156.2003731,9.27000045776367
1156.2159981,9.1899995803833
1156.2316231,9.02000045776367
1156.2472481,8.75
1156.2628731,8.38000011444092
1156.2784981,7.8600001335144
1156.2941231,7.09999990463257
1156.3097481,6.05000019073486
1156.3253731,4.82999992370605
1156.3409981,3.67000007629395
1156.3566231,2.74000000953674
1156.3722481,2.05999994277954
1156.3878731,1.52999997138977
1156.4034981,1.08000004291534
1156.4191231,0.680000007152557
1156.4347481,0.360000014305115
1156.4503731,0.100000001490116
1156.4659981,-0.219999998807907
1156.4816231,-0.790000021457672
1156.4972481,-1.62000000476837
1156.5128731,-2.60999989509583
1156.5284981,-3.57999992370605
1156.5441231,-4.3899998664856
1156.5597481,-5.03000020980835
1156.5753731,-5.55999994277954
1156.5909981,-6.0
1156.6066231,-6.30999994277954
1156.6222481,-6.48999977111816
1156.6378731,-6.59000015258789
1156.6534981,-6.69000005722046
1156.6691231,-6.75
1156.6847481,-6.71000003814697
1156.7003731,-6.59000015258789
1156.7159981,-6.46999979019165
1156.7316231,-6.42000007629395
1156.7472481,-6.3600001335144
1156.7628731,-6.21999979019165
1156.7784981,-6.01999998092651
1156.7941231,-5.82999992370605
1156.8097481,-5.67000007629395
1156.8253731,-5.55000019073486
1156.8409981,-5.44999980926514
1156.8566231,-5.34999990463257
1156.8722481,-5.19000005722046
1156.8878731,-4.92000007629395
1156.9034981,-4.55999994277954
1156.9191231,-4.15999984741211
1156.9347481,-3.79999995231628
1156.9503731,-3.54999995231628
1156.9659981,-3.44000005722046
1156.9816231,-3.38000011444092
1156.9972481,-3.16000008583069
1157.0128731,-2.50999999046326
1157.0284981,-1.3400000333786
1157.0441231,0.259999990463257
1157.0597481,2.13000011444092
1157.0753731,4.1100001335144
1157.0909981,6.0
1157.1066231,7.6100001335144
1157.1222481,8.89999961853027
1157.1378731,9.89000034332275
1157.1534981,10.6000003814697
1157.1691231,11.0299997329712
1157.1847481,11.2399997711182
1157.2003731,11.289999961853
1157.2159981,11.210000038147
1157.2316231,10.9799995422363
1157.2472481,10.6000003814697
1157.2628731,10.039999961853
1157.2784981,9.38000011444092
1157.2941231,8.71000003814697
1157.3097481,8.01000022888184
1157.3253731,7.15999984741211
1157.3409981,6.1100001335144
1157.3566231,5.0
1157.3722481,3.99000000953674
1157.3878731,3.14000010490417
1157.4034981,2.40000009536743
1157.4191231,1.70000004768372
1157.4347481,1.01999998092651
1157.4503731,0.360000014305115
1157.4659981,-0.25
1157.4816231,-0.879999995231628
1157.4972481,-1.53999996185303
1157.5128731,-2.25
1157.5284981,-3.00999999046326
1157.5441231,-3.74000000953674
1157.5597481,-4.30000019073486
1157.5753731,-4.59000015258789
1157.5909981,-4.67999982833862
1157.6066231,-4.76999998092651
1157.6222481,-5.0
1157.6378731,-5.38000011444092
1157.6534981,-5.8899998664856
1157.6691231,-6.42999982833862
1157.6847481,-6.8899998664856
1157.7003731,-7.23000001907349
1157.7159981,-7.3899998664856
1157.7316231,-7.40000009536743
1157.7472481,-7.3600001335144
1157.7628731,-7.36999988555908
1157.7784981,-7.46000003814697
1157.7941231,-7.53999996185303
1157.8097481,-7.53000020980835
1157.8253731,-7.44000005722046
1157.8409981,-7.28000020980835
1157.8566231,-7.07999992370605
1157.8722481,-6.8600001335144
1157.8878731,-6.59999990463257
1157.9034981,-6.21999979019165
1157.9191231,-5.69999980926514
1157.9347481,-5.15999984741211
1157.9503731,-4.73999977111816
1157.9659981,-4.42000007629395
1157.9816231,-3.96000003814697
1157.9972481,-3.09999990463257
1158.0128731,-1.69000005722046
1158.0284981,0.219999998807907
1158.0441231,2.46000003814697
1158.0597481,4.73999977111816
1158.0753731,6.82000017166138
1158.0909981,8.52000045776367
1158.1066231,9.6899995803833
1158.1222481,10.2399997711182
1158.1378731,10.3199996948242
1158.1534981,10.2200002670288
1158.1691231,10.1700000762939
1158.1847481,10.1700000762939
1158.2003731,10.1000003814697
1158.2159981,9.80000019073486
1158.2316231,9.22000026702881
1158.2472481,8.35999965667725
1158.2628731,7.3600001335144
1158.2784981,6.34000015258789
1158.2941231,5.42000007629395
1158.3097481,4.67000007629395
1158.3253731,4.07999992370605
1158.3409981,3.53999996185303
1158.3566231,2.94000005722046
