Time(s),Value(%)
1336.0039886,-83.2900009155273
1336.0196136,-81.7099990844727
1336.0352386,-79.0699996948242
1336.0508636,-75.5999984741211
1336.0664886,-71.6900024414063
1336.0821136,-67.7099990844727
1336.0977386,-63.8499984741211
1336.1133636,-60.0999984741211
1336.1289886,-56.2999992370605
1336.1446136,-52.2999992370605
1336.1602386,-47.810001373291
1336.1758636,-42.1199989318848
1336.1914886,-34.1100006103516
1336.2071136,-22.75
1336.2227386,-8.03999996185303
1336.2383636,8.86999988555908
1336.2539886,26.6000003814697
1336.2696136,44.2099990844727
1336.2852386,61.1699981689453
1336.3008636,76.9100036621094
1336.3164886,90.6399993896484
1336.3321136,101.589996337891
1336.3477386,109.480003356934
1336.3633636,114.290000915527
1336.3789886,115.76000213623
1336.3946136,113.529998779297
1336.4102386,107.629997253418
1336.4258636,98.5299987792969
1336.4414886,86.8199996948242
1336.4571136,73.0
1336.4727386,57.4599990844727
1336.4883636,40.5400009155273
1336.5039886,22.7999992370605
1336.5196136,5.21000003814697
1336.5352386,-11.0900001525879
1336.5508636,-25.3099994659424
1336.5664886,-37.0800018310547
1336.5821136,-46.6199989318848
1336.5977386,-54.560001373291
1336.6133636,-61.4799995422363
1336.6289886,-67.4800033569336
1336.6446136,-72.2900009155273
1336.6602386,-75.620002746582
1336.6758636,-77.4100036621094
1336.6914886,-77.8399963378906
1336.7071136,-77.2200012207031
1336.7227386,-75.6800003051758
1336.7383636,-73.4000015258789
1336.7539886,-70.8300018310547
1336.7696136,-68.4700012207031
1336.7852386,-66.3600006103516
1336.8008636,-64.1900024414063
1336.8164886,-61.6399993896484
1336.8321136,-58.5400009155273
1336.8477386,-54.9700012207031
1336.8633636,-51.2999992370605
1336.8789886,-47.8600006103516
1336.8946136,-44.5299987792969
1336.9102386,-40.8699989318848
1336.9258636,-36.4000015258789
1336.9414886,-30.6200008392334
1336.9571136,-22.7299995422363
1336.9727386,-11.7799997329712
1336.9883636,3.0
1337.0039886,21.8400001525879
1337.0196136,43.7400016784668
1337.0352386,66.25
1337.0508636,86.4599990844727
1337.0664886,102.190002441406
1337.0821136,112.680000305176
1337.0977386,118.449996948242
1337.1133636,120.660003662109
1337.1289886,120.269996643066
1337.1446136,117.540000915527
1337.1602386,112.309997558594
1337.1758636,104.449996948242
1337.1914886,94.0400009155273
1337.2071136,81.370002746582
1337.2227386,66.9100036621094
1337.2383636,51.3499984741211
1337.2539886,35.4799995422363
1337.2696136,20.1399993896484
1337.2852386,6.13000011444092
1337.3008636,-5.94999980926514
1337.3164886,-15.9700002670288
1337.3321136,-24.0900001525879
1337.3477386,-30.7900009155273
1337.3633636,-36.7000007629395
1337.3789886,-42.2200012207031
1337.3946136,-47.2599983215332
1337.4102386,-51.5499992370605
1337.4258636,-54.8899993896484
1337.4414886,-57.2599983215332
1337.4571136,-58.7900009155273
1337.4727386,-59.5800018310547
1337.4883636,-59.7999992370605
1337.5039886,-59.7299995422363
1337.5196136,-59.5200004577637
1337.5352386,-59.060001373291
1337.5508636,-58.0999984741211
1337.5664886,-56.4599990844727
1337.5821136,-54.1100006103516
1337.5977386,-51.1100006103516
1337.6133636,-47.6500015258789
1337.6289886,-43.9500007629395
1337.6446136,-40.1300010681152
1337.6602386,-36.060001373291
1337.6758636,-31.1599998474121
1337.6914886,-24.4300003051758
1337.7071136,-14.710000038147
1337.7227386,-1.30999994277954
1337.7383636,15.6400003433228
1337.7539886,35.3800010681152
1337.7696136,56.4300003051758
1337.7852386,76.6800003051758
1337.8008636,93.9599990844727
1337.8164886,106.870002746582
1337.8321136,115.059997558594
1337.8477386,119.019996643066
1337.8633636,119.629997253418
1337.8789886,117.720001220703
1337.8946136,113.559997558594
1337.9102386,106.949996948242
1337.9258636,97.620002746582
1337.9414886,85.4800033569336
1337.9571136,70.7900009155273
1337.9727386,54.1100006103516
1337.9883636,36.2400016784668
1338.0039886,18.0400009155273
1338.0196136,0.370000004768372
1338.0352386,-15.9799995422363
1338.0508636,-30.4500007629395
1338.0664886,-42.7000007629395
1338.0821136,-52.7200012207031
1338.0977386,-60.8600006103516
1338.1133636,-67.620002746582
1338.1289886,-73.3499984741211
1338.1446136,-78.129997253418
1338.1602386,-81.8199996948242
1338.1758636,-84.3300018310547
1338.1914886,-85.7900009155273
1338.2071136,-86.4100036621094
1338.2227386,-86.3899993896484
1338.2383636,-85.8499984741211
1338.2539886,-84.9700012207031
1338.2696136,-83.879997253418
1338.2852386,-82.4599990844727
1338.3008636,-80.3600006103516
1338.3164886,-77.2900009155273
1338.3321136,-73.2200012207031
1338.3477386,-68.3199996948242
1338.3633636,-62.9099998474121
1338.3789886,-57.3699989318848
1338.3946136,-51.9000015258789
1338.4102386,-46.2799987792969
1338.4258636,-39.6500015258789
1338.4414886,-30.7000007629395
1338.4571136,-18.25
1338.4727386,-1.74000000953674
1338.4883636,18.6000003814697
1338.5039886,41.9599990844727
1338.5196136,66.7600021362305
1338.5352386,90.5199966430664
1338.5508636,110.709999084473
1338.5664886,125.650001525879
1338.5821136,134.880004882813
1338.5977386,138.869995117188
1338.6133636,138.570007324219
1338.6289886,134.800003051758
1338.6446136,127.879997253418
1338.6602386,117.809997558594
1338.6758636,104.720001220703
1338.6914886,89.1399993896484
1338.7071136,71.9100036621094
1338.7227386,53.939998626709
1338.7383636,36.1199989318848
1338.7539886,19.2399997711182
1338.7696136,3.97000002861023
1338.7852386,-9.05000019073486
1338.8008636,-19.3400001525879
1338.8164886,-26.7999992370605
1338.8321136,-31.8400001525879
1338.8477386,-35.3300018310547
1338.8633636,-38.3600006103516
1338.8789886,-41.7000007629395
1338.8946136,-45.4599990844727
1338.9102386,-49.2400016784668
1338.9258636,-52.5999984741211
1338.9414886,-55.3499984741211
1338.9571136,-57.4900016784668
1338.9727386,-59.0400009155273
1338.9883636,-60.0999984741211
1339.0039886,-60.7900009155273
1339.0196136,-61.1100006103516
1339.0352386,-60.8400001525879
1339.0508636,-59.8400001525879
1339.0664886,-58.0299987792969
1339.0821136,-55.439998626709
1339.0977386,-52.1800003051758
1339.1133636,-48.6199989318848
1339.1289886,-45.1100006103516
1339.1446136,-41.5699996948242
1339.1602386,-37.4000015258789
1339.1758636,-31.5300006866455
1339.1914886,-22.8199996948242
1339.2071136,-10.5699996948242
1339.2227386,5.09999990463257
1339.2383636,23.3199996948242
1339.2539886,42.7700004577637
1339.2696136,61.8300018310547
1339.2852386,78.6600036621094
1339.3008636,91.7099990844727
1339.3164886,100.25
1339.3321136,104.360000610352
1339.3477386,104.769996643066
1339.3633636,102.300003051758
1339.3789886,97.4599990844727
1339.3946136,90.2799987792969
1339.4102386,80.5999984741211
1339.4258636,68.3499984741211
1339.4414886,53.8199996948242
1339.4571136,37.7000007629395
1339.4727386,21.1599998474121
1339.4883636,5.36999988555908
1339.5039886,-8.80000019073486
1339.5196136,-20.8099994659424
1339.5352386,-30.3500003814697
1339.5508636,-37.5
1339.5664886,-42.6699981689453
1339.5821136,-46.4700012207031
1339.5977386,-49.6199989318848
1339.6133636,-52.7099990844727
1339.6289886,-55.9599990844727
1339.6446136,-59.1800003051758
1339.6602386,-61.9500007629395
1339.6758636,-63.9199981689453
1339.6914886,-64.9400024414063
1339.7071136,-65.120002746582
1339.7227386,-64.7200012207031
1339.7383636,-63.9199981689453
1339.7539886,-62.5999984741211
1339.7696136,-60.4300003051758
1339.7852386,-57.2700004577637
1339.8008636,-53.4599990844727
1339.8164886,-49.5099983215332
1339.8321136,-45.6500015258789
1339.8477386,-41.8499984741211
1339.8633636,-37.8699989318848
1339.8789886,-33.5299987792969
1339.8946136,-28.7199993133545
1339.9102386,-23.2600002288818
1339.9258636,-16.6499996185303
1339.9414886,-8.0600004196167
1339.9571136,3.27999997138977
1339.9727386,17.4400005340576
1339.9883636,33.310001373291
1340.0039886,48.7299995422363
1340.0196136,61.689998626709
1340.0352386,72.0
1340.0508636,81.0
1340.0664886,89.7600021362305
1340.0821136,98.0699996948242
1340.0977386,104.860000610352
1340.1133636,109.029998779297
1340.1289886,110.110000610352
1340.1446136,108.169998168945
1340.1602386,103.349998474121
1340.1758636,95.5299987792969
1340.1914886,84.5599975585938
1340.2071136,70.6500015258789
1340.2227386,54.5800018310547
1340.2383636,37.5499992370605
1340.2539886,20.7600002288818
1340.2696136,4.98999977111816
1340.2852386,-9.4399995803833
1340.3008636,-22.4300003051758
1340.3164886,-33.810001373291
1340.3321136,-43.4799995422363
1340.3477386,-51.5
1340.3633636,-58.0200004577637
1340.3789886,-63.2099990844727
1340.3946136,-67.4300003051758
1340.4102386,-70.9800033569336
1340.4258636,-73.9700012207031
1340.4414886,-76.2900009155273
1340.4571136,-77.8099975585938
1340.4727386,-78.4599990844727
1340.4883636,-78.370002746582
1340.5039886,-77.8199996948242
1340.5196136,-77.0199966430664
1340.5352386,-76.0500030517578
1340.5508636,-74.8199996948242
1340.5664886,-73.120002746582
1340.5821136,-70.7600021362305
1340.5977386,-67.6600036621094
1340.6133636,-63.810001373291
1340.6289886,-59.2799987792969
1340.6446136,-54.1599998474121
1340.6602386,-48.2400016784668
1340.6758636,-40.6800003051758
1340.6914886,-30.2299995422363
1340.7071136,-16.0400009155273
1340.7227386,1.80999994277954
1340.7383636,22.25
1340.7539886,43.4900016784668
1340.7696136,63.810001373291
1340.7852386,82.1100006103516
1340.8008636,97.8000030517578
1340.8164886,110.379997253418
1340.8321136,119.349998474121
1340.8477386,124.48999786377
1340.8633636,125.930000305176
1340.8789886,124.040000915527
1340.8946136,119.23999786377
1340.9102386,111.839996337891
1340.9258636,101.970001220703
1340.9414886,89.8199996948242
1340.9571136,75.8899993896484
1340.9727386,61.0400009155273
1340.9883636,46.189998626709
1341.0039886,32.060001373291
1341.0196136,19.0200004577637
1341.0352386,7.07999992370605
1341.0508636,-3.82999992370605
1341.0664886,-13.6999998092651
1341.0821136,-22.4200000762939
1341.0977386,-29.9899997711182
1341.1133636,-36.4900016784668
1341.1289886,-42.1399993896484
1341.1446136,-47.2099990844727
1341.1602386,-51.9199981689453
1341.1758636,-56.1399993896484
1341.1914886,-59.5800018310547
1341.2071136,-61.9500007629395
1341.2227386,-63.0999984741211
1341.2383636,-63.189998626709
1341.2539886,-62.560001373291
1341.2696136,-61.6399993896484
1341.2852386,-60.7799987792969
1341.3008636,-60.1100006103516
1341.3164886,-59.4000015258789
1341.3321136,-58.1199989318848
1341.3477386,-55.8800010681152
1341.3633636,-52.6199989318848
1341.3789886,-48.5499992370605
1341.3946136,-43.7099990844727
1341.4102386,-37.5099983215332
1341.4258636,-28.7399997711182
1341.4414886,-16.2299995422363
1341.4571136,0.259999990463257
1341.4727386,19.75
1341.4883636,40.4099998474121
1341.5039886,60.1399993896484
1341.5196136,77.2300033569336
1341.5352386,90.8399963378906
1341.5508636,100.830001831055
1341.5664886,107.220001220703
1341.5821136,110.029998779297
1341.5977386,109.440002441406
1341.6133636,105.73999786377
1341.6289886,99.1500015258789
1341.6446136,89.8300018310547
1341.6602386,78.0699996948242
1341.6758636,64.4899978637695
1341.6914886,50.0
1341.7071136,35.5699996948242
1341.7227386,21.8999996185303
1341.7383636,9.36999988555908
1341.7539886,-1.87000000476837
1341.7696136,-12.0200004577637
1341.7852386,-21.5699996948242
1341.8008636,-30.9300003051758
1341.8164886,-39.8899993896484
1341.8321136,-47.8800010681152
1341.8477386,-54.4599990844727
1341.8633636,-59.6300010681152
1341.8789886,-63.5400009155273
1341.8946136,-66.4599990844727
1341.9102386,-68.620002746582
1341.9258636,-70.2099990844727
1341.9414886,-71.3099975585938
1341.9571136,-71.9100036621094
1341.9727386,-71.9199981689453
1341.9883636,-71.2200012207031
1342.0039886,-69.7699966430664
1342.0196136,-67.6800003051758
1342.0352386,-65.2600021362305
1342.0508636,-62.7799987792969
1342.0664886,-60.2000007629395
1342.0821136,-57.3199996948242
1342.0977386,-53.9700012207031
1342.1133636,-50.0800018310547
1342.1289886,-45.2799987792969
1342.1446136,-38.5400009155273
1342.1602386,-28.4899997711182
1342.1758636,-14.2700004577637
1342.1914886,3.79999995231628
1342.2071136,24.25
1342.2227386,45.1100006103516
1342.2383636,64.7699966430664
1342.2539886,82.3399963378906
1342.2696136,97.5999984741211
1342.2852386,110.660003662109
1342.3008636,121.269996643066
1342.3164886,128.520004272461
1342.3321136,131.399993896484
1342.3477386,129.520004272461
1342.3633636,123.199996948242
1342.3789886,112.730003356934
1342.3946136,97.9499969482422
1342.4102386,78.7900009155273
1342.4258636,56.1500015258789
1342.4414886,31.8799991607666
1342.4571136,8.0600004196167
1342.4727386,-13.6599998474121
1342.4883636,-32.3300018310547
1342.5039886,-47.5800018310547
1342.5196136,-59.4799995422363
1342.5352386,-68.3899993896484
1342.5508636,-74.7200012207031
1342.5664886,-78.75
1342.5821136,-80.7900009155273
1342.5977386,-81.1800003051758
1342.6133636,-80.3399963378906
1342.6289886,-78.9599990844727
1342.6446136,-77.9199981689453
1342.6602386,-77.7600021362305
1342.6758636,-78.3399963378906
1342.6914886,-79.120002746582
1342.7071136,-79.6100006103516
1342.7227386,-79.5
1342.7383636,-78.6600036621094
1342.7539886,-77.0100021362305
1342.7696136,-74.620002746582
1342.7852386,-71.6699981689453
1342.8008636,-68.2300033569336
1342.8164886,-64.0699996948242
1342.8321136,-58.7799987792969
1342.8477386,-52.0200004577637
1342.8633636,-43.5800018310547
1342.8789886,-32.9300003051758
1342.8946136,-19.0200004577637
1342.9102386,-1.07000005245209
1342.9258636,20.5200004577637
1342.9414886,44.1300010681152
1342.9571136,67.5800018310547
1342.9727386,88.8899993896484
1342.9883636,106.690002441406
1343.0039886,120.349998474121
1343.0196136,129.639999389648
1343.0352386,134.5
1343.0508636,135.149993896484
1343.0664886,132.399993896484
1343.0821136,127.419998168945
1343.0977386,121.050003051758
1343.1133636,113.580001831055
1343.1289886,104.889999389648
1343.1446136,94.7300033569336
1343.1602386,82.9800033569336
1343.1758636,69.9300003051758
1343.1914886,56.2000007629395
1343.2071136,42.439998626709
1343.2227386,29.0799999237061
1343.2383636,16.3700008392334
1343.2539886,4.46000003814697
1343.2696136,-6.69000005722046
1343.2852386,-17.5
1343.3008636,-28.5900001525879
1343.3164886,-40.3800010681152
1343.3321136,-52.689998626709
1343.3477386,-64.7600021362305
1343.3633636,-75.6100006103516
1343.3789886,-84.3499984741211
1343.3946136,-90.4800033569336
1343.4102386,-94.0899963378906
1343.4258636,-95.5500030517578
1343.4414886,-95.1900024414063
1343.4571136,-93.1999969482422
1343.4727386,-89.7799987792969
1343.4883636,-85.1999969482422
1343.5039886,-79.8300018310547
1343.5196136,-73.8600006103516
1343.5352386,-67.2699966430664
1343.5508636,-60.1199989318848
1343.5664886,-52.8600006103516
1343.5821136,-46.1399993896484
1343.5977386,-40.3800010681152
1343.6133636,-35.4799995422363
1343.6289886,-30.6900005340576
1343.6446136,-24.6700000762939
1343.6602386,-15.75
1343.6758636,-2.5699999332428
1343.6914886,15.0100002288818
1343.7071136,35.6599998474121
1343.7227386,57.0999984741211
1343.7383636,77.0800018310547
1343.7539886,93.9199981689453
1343.7696136,106.849998474121
1343.7852386,115.800003051758
1343.8008636,121.150001525879
1343.8164886,123.459999084473
1343.8321136,123.110000610352
1343.8477386,119.959999084473
1343.8633636,113.599998474121
1343.8789886,103.680000305176
1343.8946136,90.25
1343.9102386,73.7799987792969
1343.9258636,55.1800003051758
1343.9414886,35.7000007629395
1343.9571136,16.7999992370605
1343.9727386,-0.219999998807907
1343.9883636,-14.6599998474121
1344.0039886,-26.4400005340576
1344.0196136,-35.8899993896484
1344.0352386,-43.5299987792969
1344.0508636,-49.8400001525879
1344.0664886,-55.1800003051758
1344.0821136,-59.810001373291
1344.0977386,-63.7999992370605
1344.1133636,-67.0400009155273
1344.1289886,-69.3899993896484
1344.1446136,-70.7399978637695
1344.1602386,-71.1800003051758
1344.1758636,-71.0100021362305
1344.1914886,-70.5400009155273
1344.2071136,-69.8499984741211
1344.2227386,-68.75
1344.2383636,-66.9800033569336
1344.2539886,-64.4300003051758
1344.2696136,-61.1300010681152
1344.2852386,-57.2599983215332
1344.3008636,-53.0800018310547
1344.3164886,-48.8699989318848
1344.3321136,-44.75
1344.3477386,-40.3899993896484
1344.3633636,-35.0099983215332
1344.3789886,-27.5499992370605
1344.3946136,-16.9599990844727
1344.4102386,-2.46000003814697
1344.4258636,16.2099990844727
1344.4414886,38.1699981689453
1344.4571136,61.2000007629395
1344.4727386,82.6600036621094
1344.4883636,100.559997558594
1344.5039886,113.930000305176
1344.5196136,122.73999786377
1344.5352386,127.419998168945
1344.5508636,128.699996948242
1344.5664886,127.410003662109
1344.5821136,123.959999084473
1344.5977386,118.089996337891
1344.6133636,109.209999084473
1344.6289886,96.9599990844727
1344.6446136,81.5400009155273
1344.6602386,63.7200012207031
1344.6758636,44.5900001525879
1344.6914886,25.3199996948242
1344.7071136,7.0
1344.7227386,-9.60000038146973
1344.7383636,-24.1599998474121
1344.7539886,-36.7000007629395
1344.7696136,-47.4000015258789
1344.7852386,-56.5200004577637
1344.8008636,-64.3899993896484
1344.8164886,-71.4199981689453
1344.8321136,-77.8600006103516
1344.8477386,-83.4300003051758
1344.8633636,-87.5999984741211
1344.8789886,-90.0299987792969
1344.8946136,-90.75
1344.9102386,-90.1100006103516
1344.9258636,-88.6600036621094
1344.9414886,-86.8899993896484
1344.9571136,-84.870002746582
1344.9727386,-82.2799987792969
1344.9883636,-78.8300018310547
1345.0039886,-74.5800018310547
1345.0196136,-69.8199996948242
1345.0352386,-64.7900009155273
1345.0508636,-59.6699981689453
1345.0664886,-54.6800003051758
1345.0821136,-49.8400001525879
1345.0977386,-44.689998626709
1345.1133636,-38.25
1345.1289886,-29.1299991607666
1345.1446136,-16.0200004577637
1345.1602386,1.62999999523163
1345.1758636,23.3400001525879
1345.1914886,47.3199996948242
1345.2071136,70.879997253418
1345.2227386,91.4499969482422
1345.2383636,107.370002746582
1345.2539886,118.120002746582
1345.2696136,124.23999786377
1345.2852386,126.819999694824
1345.3008636,126.879997253418
1345.3164886,124.980003356934
1345.3321136,121.040000915527
1345.3477386,114.360000610352
1345.3633636,104.190002441406
1345.3789886,90.379997253418
1345.3946136,73.5999984741211
1345.4102386,55.0800018310547
1345.4258636,36.0499992370605
1345.4414886,17.5100002288818
1345.4571136,0.370000004768372
1345.4727386,-14.5299997329712
1345.4883636,-26.8799991607666
1345.5039886,-36.8800010681152
1345.5196136,-45.0299987792969
1345.5352386,-51.8400001525879
1345.5508636,-57.7599983215332
1345.5664886,-63.189998626709
1345.5821136,-68.3399963378906
1345.5977386,-72.9199981689453
1345.6133636,-76.4300003051758
1345.6289886,-78.4800033569336
1345.6446136,-78.9199981689453
1345.6602386,-77.8899993896484
1345.6758636,-75.8099975585938
1345.6914886,-73.1699981689453
1345.7071136,-70.2099990844727
1345.7227386,-66.9499969482422
1345.7383636,-63.2999992370605
1345.7539886,-59.1399993896484
1345.7696136,-54.4700012207031
1345.7852386,-49.4700012207031
1345.8008636,-44.4500007629395
1345.8164886,-39.7000007629395
1345.8321136,-35.2400016784668
1345.8477386,-30.4599990844727
1345.8633636,-24.0900001525879
1345.8789886,-14.5
1345.8946136,-0.509999990463257
1345.9102386,17.8700008392334
1345.9258636,39.5
1345.9414886,62.2099990844727
1345.9571136,83.4400024414063
1345.9727386,101.059997558594
1345.9883636,114.059997558594
1346.0039886,122.519996643066
1346.0196136,127.080001831055
1346.0352386,128.419998168945
1346.0508636,126.930000305176
1346.0664886,122.690002441406
1346.0821136,115.440002441406
1346.0977386,104.769996643066
1346.1133636,90.5500030517578
1346.1289886,73.3199996948242
1346.1446136,54.2799987792969
1346.1602386,34.9099998474121
1346.1758636,16.3600006103516
1346.1914886,-0.680000007152557
1346.2071136,-15.75
1346.2227386,-28.5699996948242
1346.2383636,-39.2299995422363
1346.2539886,-48.1199989318848
1346.2696136,-55.810001373291
1346.2852386,-62.8300018310547
1346.3008636,-69.3099975585938
1346.3164886,-74.7600021362305
1346.3321136,-78.5699996948242
1346.3477386,-80.7099990844727
1346.3633636,-81.8199996948242
1346.3789886,-82.6900024414063
