Time(s),Value(μS)
542.0150509,6.44500017166138
542.0306759,6.44999980926514
542.0463009,6.45300006866455
542.0619259,6.45699977874756
542.0775509,6.46199989318848
542.0931759,6.46400022506714
542.1088009,6.46999979019165
542.1244259,6.47599983215332
542.1400509,6.48600006103516
542.1556759,6.49399995803833
542.1713009,6.50600004196167
542.1869259,6.5149998664856
542.2025509,6.52199983596802
542.2181759,6.53200006484985
542.2338009,6.54300022125244
542.2494259,6.55600023269653
542.2650509,6.56699991226196
542.2806759,6.58199977874756
542.2963009,6.59299993515015
542.3119259,6.60400009155273
542.3275509,6.61299991607666
542.3431759,6.61999988555908
542.3588009,6.62900018692017
542.3744259,6.63600015640259
542.3900509,6.64499998092651
542.4056759,6.65299987792969
542.4213009,6.66599988937378
542.4369259,6.67500019073486
542.4525509,6.68400001525879
542.4681759,6.69500017166138
542.4838009,6.70300006866455
542.4994259,6.71500015258789
542.5150509,6.72599983215332
542.5306759,6.74300003051758
542.5463009,6.75400018692017
542.5619259,6.76800012588501
542.5775509,6.77699995040894
542.5931759,6.78399991989136
542.6088009,6.78900003433228
542.6244259,6.79099988937378
542.6400509,6.79500007629395
542.6556759,6.79899978637695
542.6713009,6.80499982833862
542.6869259,6.80800008773804
542.7025509,6.81699991226196
542.7181759,6.82100009918213
542.7338009,6.82299995422363
542.7494259,6.82800006866455
542.7650509,6.83300018310547
542.7806759,6.83900022506714
542.7963009,6.84299993515015
542.8119259,6.85300016403198
542.8275509,6.85599994659424
542.8431759,6.86199998855591
542.8588009,6.86299991607666
542.8744259,6.8600001335144
542.8900509,6.85599994659424
542.9056759,6.84700012207031
542.9213009,6.83699989318848
542.9369259,6.82600021362305
542.9525509,6.81899976730347
542.9681759,6.80800008773804
542.9838009,6.80200004577637
542.9994259,6.79699993133545
543.0150509,6.79099988937378
543.0306759,6.79099988937378
543.0463009,6.79199981689453
543.0619259,6.79699993133545
543.0775509,6.80100011825562
543.0931759,6.81199979782104
543.1088009,6.81799983978271
543.1244259,6.82600021362305
543.1400509,6.83300018310547
543.1556759,6.83699989318848
543.1713009,6.84200000762939
543.1869259,6.84499979019165
543.2025509,6.84999990463257
543.2181759,6.85099983215332
543.2338009,6.85799980163574
543.2494259,6.8600001335144
543.2650509,6.85900020599365
543.2806759,6.86100006103516
543.2963009,6.86199998855591
543.3119259,6.86499977111816
543.3275509,6.86800003051758
543.3431759,6.87599992752075
543.3588009,6.87900018692017
543.3744259,6.88500022888184
543.3900509,6.88899993896484
543.4056759,6.88899993896484
543.4213009,6.89200019836426
543.4369259,6.89300012588501
543.4525509,6.89699983596802
543.4681759,6.90100002288818
543.4838009,6.91200017929077
543.4994259,6.91699981689453
543.5150509,6.92399978637695
543.5306759,6.92999982833862
543.5463009,6.93200016021729
543.5619259,6.93800020217896
543.5775509,6.94299983978271
543.5931759,6.95100021362305
543.6088009,6.95699977874756
543.6244259,6.9689998626709
543.6400509,6.97399997711182
543.6556759,6.97800016403198
543.6713009,6.98199987411499
543.6869259,6.98099994659424
543.7025509,6.98299980163574
543.7181759,6.98400020599365
543.7338009,6.98699998855591
543.7494259,6.98600006103516
543.7650509,6.99100017547607
543.7806759,6.98999977111816
543.7963009,6.98699998855591
543.8119259,6.98600006103516
543.8275509,6.9850001335144
543.8431759,6.9850001335144
543.8588009,6.9850001335144
543.8744259,6.98999977111816
543.8900509,6.99100017547607
543.9056759,6.99499988555908
543.9213009,6.99700021743774
543.9369259,6.99700021743774
543.9525509,6.99900007247925
543.9681759,6.9980001449585
543.9838009,6.99900007247925
543.9994259,7.0
544.0150509,7.00500011444092
544.0306759,7.00500011444092
544.0463009,7.00500011444092
544.0619259,7.0019998550415
544.0775509,6.99499988555908
544.0931759,6.99100017547607
544.1088009,6.98799991607666
544.1244259,6.98799991607666
544.1400509,6.98699998855591
544.1556759,6.99399995803833
544.1713009,6.99499988555908
544.1869259,6.99900007247925
544.2025509,7.00299978256226
544.2181759,7.00299978256226
544.2338009,7.00699996948242
544.2494259,7.01200008392334
544.2650509,7.01900005340576
544.2806759,7.02500009536743
544.2963009,7.03800010681152
544.3119259,7.04500007629395
544.3275509,7.05000019073486
544.3431759,7.05800008773804
544.3588009,7.06500005722046
544.3744259,7.07299995422363
544.3900509,7.08099985122681
544.4056759,7.0939998626709
544.4213009,7.10300016403198
544.4369259,7.11299991607666
544.4525509,7.12099981307983
544.4681759,7.12599992752075
544.4838009,7.13199996948242
544.4994259,7.13600015640259
544.5150509,7.14400005340576
544.5306759,7.15199995040894
544.5463009,7.16400003433228
544.5619259,7.17199993133545
544.5775509,7.18100023269653
544.5931759,7.18699979782104
544.6088009,7.18800020217896
544.6244259,7.19299983978271
544.6400509,7.19899988174438
544.6556759,7.20599985122681
544.6713009,7.21199989318848
544.6869259,7.22300004959106
544.7025509,7.22800016403198
544.7181759,7.23400020599365
544.7338009,7.23799991607666
544.7494259,7.23799991607666
544.7650509,7.24399995803833
544.7806759,7.24900007247925
544.7963009,7.25699996948242
544.8119259,7.26399993896484
544.8275509,7.27799987792969
544.8431759,7.28499984741211
544.8588009,7.28800010681152
544.8744259,7.29400014877319
544.8900509,7.30100011825562
544.9056759,7.30600023269653
544.9213009,7.31300020217896
544.9369259,7.32299995422363
544.9525509,7.3289999961853
544.9681759,7.33599996566772
544.9838009,7.34100008010864
544.9994259,7.34600019454956
545.0150509,7.35200023651123
545.0306759,7.35599994659424
545.0463009,7.36399984359741
545.0619259,7.36999988555908
545.0775509,7.38000011444092
545.0931759,7.38500022888184
545.1088009,7.39300012588501
545.1244259,7.39699983596802
545.1400509,7.39599990844727
545.1556759,7.40000009536743
545.1713009,7.4060001373291
545.1869259,7.41200017929077
545.2025509,7.41800022125244
545.2181759,7.42899990081787
545.2338009,7.43200016021729
545.2494259,7.43499994277954
545.2650509,7.43300008773804
545.2806759,7.42500019073486
545.2963009,7.41900014877319
545.3119259,7.41200017929077
545.3275509,7.40000009536743
545.3431759,7.38600015640259
545.3588009,7.37400007247925
545.3744259,7.35400009155273
545.3900509,7.33400011062622
545.4056759,7.31799983978271
545.4213009,7.30600023269653
545.4369259,7.30200004577637
545.4525509,7.30299997329712
545.4681759,7.31300020217896
545.4838009,7.32100009918213
545.4994259,7.33400011062622
545.5150509,7.34299993515015
545.5306759,7.35099983215332
545.5463009,7.3600001335144
545.5619259,7.36600017547607
545.5775509,7.3730001449585
545.5931759,7.38000011444092
545.6088009,7.3899998664856
545.6244259,7.39599990844727
545.6400509,7.40700006484985
545.6556759,7.41300010681152
545.6713009,7.41400003433228
545.6869259,7.41800022125244
545.7025509,7.4210000038147
545.7181759,7.42199993133545
545.7338009,7.42000007629395
545.7494259,7.4229998588562
545.7650509,7.41599988937378
545.7806759,7.40899991989136
545.7963009,7.40000009536743
545.8119259,7.38700008392334
545.8275509,7.37900018692017
545.8431759,7.37200021743774
545.8588009,7.36700010299683
545.8744259,7.36199998855591
545.8900509,7.36399984359741
545.9056759,7.3600001335144
545.9213009,7.35500001907349
545.9369259,7.35099983215332
545.9525509,7.3439998626709
545.9681759,7.34000015258789
545.9838009,7.33599996566772
545.9994259,7.33599996566772
546.0150509,7.33199977874756
546.0306759,7.33300018310547
546.0463009,7.3289999961853
546.0619259,7.32399988174438
546.0775509,7.32000017166138
546.0931759,7.31199979782104
546.1088009,7.30800008773804
546.1244259,7.30299997329712
546.1400509,7.30100011825562
546.1556759,7.29699993133545
546.1713009,7.29400014877319
546.1869259,7.28999996185303
546.2025509,7.2810001373291
546.2181759,7.27699995040894
546.2338009,7.27500009536743
546.2494259,7.27600002288818
546.2650509,7.27400016784668
546.2806759,7.27899980545044
546.2963009,7.27699995040894
546.3119259,7.27799987792969
546.3275509,7.27699995040894
546.3431759,7.27199983596802
546.3588009,7.27099990844727
546.3744259,7.26900005340576
546.3900509,7.26800012588501
546.4056759,7.2649998664856
546.4213009,7.26900005340576
546.4369259,7.26599979400635
546.4525509,7.26300001144409
546.4681759,7.25899982452393
546.4838009,7.2519998550415
546.4994259,7.24700021743774
546.5150509,7.24300003051758
546.5306759,7.24200010299683
546.5463009,7.23799991607666
546.5619259,7.23899984359741
546.5775509,7.23600006103516
546.5931759,7.23299980163574
546.6088009,7.23099994659424
546.6244259,7.22499990463257
546.6400509,7.22300004959106
546.6556759,7.22100019454956
546.6713009,7.22100019454956
546.6869259,7.21700000762939
546.7025509,7.21999979019165
546.7181759,7.21600008010864
546.7338009,7.21000003814697
546.7494259,7.20699977874756
546.7650509,7.2039999961853
546.7806759,7.20100021362305
546.7963009,7.19899988174438
546.8119259,7.2020001411438
546.8275509,7.19899988174438
546.8431759,7.19799995422363
546.8588009,7.19500017166138
546.8744259,7.19000005722046
546.8900509,7.18599987030029
546.9056759,7.18200016021729
546.9213009,7.17999982833862
546.9369259,7.17799997329712
546.9525509,7.18200016021729
546.9681759,7.18100023269653
546.9838009,7.17999982833862
546.9994259,7.17899990081787
547.0150509,7.17999982833862
547.0306759,7.17999982833862
547.0463009,7.18100023269653
547.0619259,7.18800020217896
547.0775509,7.19199991226196
547.0931759,7.19799995422363
547.1088009,7.2020001411438
547.1244259,7.20699977874756
547.1400509,7.21299982070923
547.1556759,7.21600008010864
547.1713009,7.22200012207031
547.1869259,7.22700023651123
547.2025509,7.23400020599365
547.2181759,7.23799991607666
547.2338009,7.24599981307983
547.2494259,7.25
547.2650509,7.25
547.2806759,7.25400018692017
547.2963009,7.25799989700317
547.3119259,7.26300001144409
547.3275509,7.26800012588501
547.3431759,7.27899980545044
547.3588009,7.28399991989136
547.3744259,7.29199981689453
547.3900509,7.2979998588562
547.4056759,7.30100011825562
547.4213009,7.30700016021729
547.4369259,7.30999994277954
547.4525509,7.31599998474121
547.4681759,7.32200002670288
547.4838009,7.33300018310547
547.4994259,7.33900022506714
547.5150509,7.34800004959106
547.5306759,7.35400009155273
547.5463009,7.35699987411499
547.5619259,7.36299991607666
547.5775509,7.37099981307983
547.5931759,7.38100004196167
547.6088009,7.38899993896484
547.6244259,7.40399980545044
547.6400509,7.41300010681152
547.6556759,7.4210000038147
547.6713009,7.42999982833862
547.6869259,7.43499994277954
547.7025509,7.44299983978271
547.7181759,7.44999980926514
547.7338009,7.45900011062622
547.7494259,7.46500015258789
547.7650509,7.47499990463257
547.7806759,7.48099994659424
547.7963009,7.4850001335144
547.8119259,7.49300003051758
547.8275509,7.49700021743774
547.8431759,7.50699996948242
547.8588009,7.51300001144409
547.8744259,7.52299976348877
547.8900509,7.52600002288818
547.9056759,7.53399991989136
547.9213009,7.53700017929077
547.9369259,7.53599977493286
547.9525509,7.53900003433228
547.9681759,7.53999996185303
547.9838009,7.54300022125244
547.9994259,7.5460000038147
548.0150509,7.55600023269653
548.0306759,7.55999994277954
548.0463009,7.56799983978271
548.0619259,7.57399988174438
548.0775509,7.57800006866455
548.0931759,7.58500003814697
548.1088009,7.59200000762939
548.1244259,7.59999990463257
548.1400509,7.60699987411499
548.1556759,7.61899995803833
548.1713009,7.62599992752075
548.1869259,7.63199996948242
548.2025509,7.63800001144409
548.2181759,7.63700008392334
548.2338009,7.63800001144409
548.2494259,7.63800001144409
548.2650509,7.63700008392334
548.2806759,7.63199996948242
548.2963009,7.62799978256226
548.3119259,7.61899995803833
548.3275509,7.60500001907349
548.3431759,7.59600019454956
548.3588009,7.58500003814697
548.3744259,7.58400011062622
548.3900509,7.58400011062622
548.4056759,7.5939998626709
548.4213009,7.60200023651123
548.4369259,7.61899995803833
548.4525509,7.63199996948242
548.4681759,7.64300012588501
548.4838009,7.6560001373291
548.4994259,7.66499996185303
548.5150509,7.68100023269653
548.5306759,7.7020001411438
548.5463009,7.73799991607666
548.5619259,7.77799987792969
548.5775509,7.83300018310547
548.5931759,7.90100002288818
548.6088009,7.98000001907349
548.6244259,8.07100009918213
548.6400509,8.16699981689453
548.6556759,8.25899982452393
548.6713009,8.33399963378906
548.6869259,8.39299964904785
548.7025509,8.42700004577637
548.7181759,8.44600009918213
548.7338009,8.45100021362305
548.7494259,8.44400024414063
548.7650509,8.4350004196167
548.7806759,8.42300033569336
548.7963009,8.4069995880127
548.8119259,8.38899993896484
548.8275509,8.37600040435791
548.8431759,8.35499954223633
548.8588009,8.32800006866455
548.8744259,8.30399990081787
548.8900509,8.27499961853027
548.9056759,8.25100040435791
548.9213009,8.22900009155273
548.9369259,8.2189998626709
548.9525509,8.20800018310547
548.9681759,8.20699977874756
548.9838009,8.20400047302246
548.9994259,8.19900035858154
549.0150509,8.19600009918213
549.0306759,8.1899995803833
549.0463009,8.1870002746582
549.0619259,8.18099975585938
549.0775509,8.17800045013428
549.0931759,8.16899967193604
549.1088009,8.16300010681152
549.1244259,8.15299987792969
549.1400509,8.13799953460693
549.1556759,8.13000011444092
549.1713009,8.12100028991699
549.1869259,8.11400032043457
549.2025509,8.10499954223633
549.2181759,8.10400009155273
549.2338009,8.09500026702881
549.2494259,8.08800029754639
549.2650509,8.07900047302246
549.2806759,8.06400012969971
549.2963009,8.05300045013428
549.3119259,8.04199981689453
549.3275509,8.02999973297119
549.3431759,8.01799964904785
549.3588009,8.01299953460693
549.3744259,8.00100040435791
549.3900509,7.98799991607666
549.4056759,7.97700023651123
549.4213009,7.96400022506714
549.4369259,7.9539999961853
549.4525509,7.94500017166138
549.4681759,7.94199991226196
549.4838009,7.93400001525879
549.4994259,7.93100023269653
549.5150509,7.92399978637695
549.5306759,7.91699981689453
549.5463009,7.91099977493286
549.5619259,7.90399980545044
549.5775509,7.90100002288818
549.5931759,7.89799976348877
549.6088009,7.89900016784668
549.6244259,7.89699983596802
549.6400509,7.89699983596802
549.6556759,7.89400005340576
549.6713009,7.88899993896484
549.6869259,7.88700008392334
549.7025509,7.88399982452393
549.7181759,7.88299989700317
549.7338009,7.88000011444092
549.7494259,7.88100004196167
549.7650509,7.87599992752075
549.7806759,7.87200021743774
549.7963009,7.86399984359741
549.8119259,7.85099983215332
549.8275509,7.84100008010864
549.8431759,7.82999992370605
549.8588009,7.82000017166138
549.8744259,7.80900001525879
549.8900509,7.80399990081787
549.9056759,7.79500007629395
549.9213009,7.78599977493286
549.9369259,7.77799987792969
549.9525509,7.76900005340576
549.9681759,7.7649998664856
549.9838009,7.76100015640259
549.9994259,7.75899982452393
550.0150509,7.75500011444092
550.0306759,7.75600004196167
550.0463009,7.7519998550415
550.0619259,7.74599981307983
550.0775509,7.74300003051758
550.0931759,7.73699998855591
550.1088009,7.73299980163574
550.1244259,7.72900009155273
550.1400509,7.72800016403198
550.1556759,7.72300004959106
550.1713009,7.71999979019165
550.1869259,7.71400022506714
550.2025509,7.70300006866455
550.2181759,7.69600009918213
550.2338009,7.68800020217896
550.2494259,7.68400001525879
550.2650509,7.67500019073486
550.2806759,7.67399978637695
550.2963009,7.66599988937378
550.3119259,7.66099977493286
550.3275509,7.65500020980835
550.3431759,7.64400005340576
550.3588009,7.63899993896484
550.3744259,7.63399982452393
550.3900509,7.63199996948242
550.4056759,7.63199996948242
550.4213009,7.64099979400635
550.4369259,7.64699983596802
550.4525509,7.6560001373291
550.4681759,7.66800022125244
550.4838009,7.67799997329712
550.4994259,7.69000005722046
550.5150509,7.69999980926514
550.5306759,7.71000003814697
550.5463009,7.71299982070923
550.5619259,7.71799993515015
550.5775509,7.71700000762939
550.5931759,7.71400022506714
550.6088009,7.71400022506714
550.6244259,7.71099996566772
550.6400509,7.71600008010864
550.6556759,7.72300004959106
550.6713009,7.73699998855591
550.6869259,7.7480001449585
550.7025509,7.76599979400635
550.7181759,7.77699995040894
550.7338009,7.78399991989136
550.7494259,7.79300022125244
550.7650509,7.80200004577637
550.7806759,7.81099987030029
550.7963009,7.82000017166138
550.8119259,7.83500003814697
550.8275509,7.84299993515015
550.8431759,7.85200023651123
550.8588009,7.85799980163574
550.8744259,7.8600001335144
550.8900509,7.86600017547607
550.9056759,7.86800003051758
550.9213009,7.87400007247925
550.9369259,7.87900018692017
550.9525509,7.8899998664856
550.9681759,7.89599990844727
550.9838009,7.9060001373291
550.9994259,7.91499996185303
551.0150509,7.9229998588562
551.0306759,7.93599987030029
551.0463009,7.94899988174438
551.0619259,7.96299982070923
551.0775509,7.97499990463257
551.0931759,7.98999977111816
551.1088009,8.0
551.1244259,8.00699996948242
551.1400509,8.01500034332275
551.1556759,8.01799964904785
551.1713009,8.02499961853027
551.1869259,8.02999973297119
551.2025509,8.03699970245361
551.2181759,8.03899955749512
551.2338009,8.04500007629395
551.2494259,8.04599952697754
551.2650509,8.04300022125244
551.2806759,8.04599952697754
551.2963009,8.05099964141846
551.3119259,8.05799961090088
551.3275509,8.06599998474121
551.3431759,8.08199977874756
551.3588009,8.09099960327148
551.3744259,8.10299968719482
551.3900509,8.11100006103516
551.4056759,8.11400032043457
551.4213009,8.11999988555908
551.4369259,8.11999988555908
551.4525509,8.12100028991699
551.4681759,8.11699962615967
551.4838009,8.11600017547607
551.4994259,8.10499954223633
551.5150509,8.09000015258789
551.5306759,8.07499980926514
551.5463009,8.05799961090088
551.5619259,8.04800033569336
551.5775509,8.04399967193604
551.5931759,8.05399990081787
551.6088009,8.0649995803833
551.6244259,8.08600044250488
551.6400509,8.10000038146973
551.6556759,8.10799980163574
551.6713009,8.11100006103516
551.6869259,8.10299968719482
551.7025509,8.09799957275391
551.7181759,8.0930004119873
551.7338009,8.09700012207031
551.7494259,8.10000038146973
551.7650509,8.11400032043457
551.7806759,8.11999988555908
551.7963009,8.11999988555908
551.8119259,8.12100028991699
551.8275509,8.11299991607666
551.8431759,8.09899997711182
551.8588009,8.07900047302246
551.8744259,8.0600004196167
551.8900509,8.0319995880127
551.9056759,8.00899982452393
551.9213009,7.98400020599365
551.9369259,7.95900011062622
551.9525509,7.94000005722046
551.9681759,7.91900014877319
551.9838009,7.90299987792969
551.9994259,7.88600015640259
552.0150509,7.87599992752075
552.0306759,7.85900020599365
552.0463009,7.84499979019165
552.0619259,7.8289999961853
552.0775509,7.80900001525879
552.0931759,7.79500007629395
552.1088009,7.7810001373291
552.1244259,7.77299976348877
552.1400509,7.7649998664856
552.1556759,7.7649998664856
552.1713009,7.76000022888184
552.1869259,7.75600004196167
552.2025509,7.75
552.2181759,7.73899984359741
552.2338009,7.73099994659424
552.2494259,7.72100019454956
552.2650509,7.71199989318848
552.2806759,7.70300006866455
552.2963009,7.69299983978271
552.3119259,7.68599987030029
552.3275509,7.67700004577637
552.3431759,7.6710000038147
552.3588009,7.66200017929077
552.3744259,7.66099977493286
552.3900509,7.65399980545044
552.4056759,7.65000009536743
552.4213009,7.64200019836426
552.4369259,7.63700008392334
552.4525509,7.62799978256226
552.4681759,7.61499977111816
552.4838009,7.60500001907349
552.4994259,7.59200000762939
552.5150509,7.58400011062622
552.5306759,7.57600021362305
552.5463009,7.57499980926514
552.5619259,7.57000017166138
552.5775509,7.57100009918213
552.5931759,7.57100009918213
552.6088009,7.57000017166138
552.6244259,7.57399988174438
552.6400509,7.58099985122681
552.6556759,7.59000015258789
552.6713009,7.59899997711182
552.6869259,7.61299991607666
552.7025509,7.62200021743774
552.7181759,7.63100004196167
552.7338009,7.63899993896484
552.7494259,7.6399998664856
552.7650509,7.64499998092651
552.7806759,7.64900016784668
552.7963009,7.65199995040894
552.8119259,7.65399980545044
552.8275509,7.65999984741211
