Time(s),Value(%)
542.0150509,-9.22000026702881
542.0306759,-7.21999979019165
542.0463009,-5.86999988555908
542.0619259,-5.44999980926514
542.0775509,-5.90999984741211
542.0931759,-6.92000007629395
542.1088009,-7.96000003814697
542.1244259,-8.53999996185303
542.1400509,-8.34000015258789
542.1556759,-7.17999982833862
542.1713009,-4.42999982833862
542.1869259,1.33000004291534
542.2025509,11.4899997711182
542.2181759,26.0499992370605
542.2338009,43.1699981689453
542.2494259,60.310001373291
542.2650509,76.4700012207031
542.2806759,93.2600021362305
542.2963009,112.819999694824
542.3119259,134.850006103516
542.3275509,156.529998779297
542.3431759,174.740005493164
542.3588009,188.050003051758
542.3744259,197.320007324219
542.3900509,205.850006103516
542.4056759,218.589996337891
542.4213009,239.490005493164
542.4369259,269.529998779297
542.4525509,308.160003662109
542.4681759,327.670013427734
542.4838009,327.670013427734
542.4994259,327.670013427734
542.5150509,327.670013427734
542.5306759,327.670013427734
542.5463009,327.670013427734
542.5619259,327.670013427734
542.5775509,327.670013427734
542.5931759,327.670013427734
542.6088009,327.670013427734
542.6244259,327.670013427734
542.6400509,327.670013427734
542.6556759,327.670013427734
542.6713009,327.670013427734
542.6869259,327.670013427734
542.7025509,327.670013427734
542.7181759,327.670013427734
542.7338009,327.670013427734
542.7494259,327.670013427734
542.7650509,327.670013427734
542.7806759,327.670013427734
542.7963009,327.670013427734
542.8119259,327.670013427734
542.8275509,327.670013427734
542.8431759,327.670013427734
542.8588009,327.670013427734
542.8744259,327.670013427734
542.8900509,327.670013427734
542.9056759,327.670013427734
542.9213009,296.519989013672
542.9369259,242.160003662109
542.9525509,189.199996948242
542.9681759,139.759994506836
542.9838009,95.2699966430664
542.9994259,56.060001373291
543.0150509,22.4099998474121
543.0306759,-4.48000001907349
543.0463009,-23.3199996948242
543.0619259,-34.7700004577637
543.0775509,-42.8899993896484
543.0931759,-53.9700012207031
543.1088009,-72.3199996948242
543.1244259,-96.9199981689453
543.1400509,-123.629997253418
543.1556759,-149.710006713867
543.1713009,-172.539993286133
543.1869259,-193.419998168945
543.2025509,-211.300003051758
543.2181759,-225.660003662109
543.2338009,-238.130004882813
543.2494259,-252.490005493164
543.2650509,-271.920013427734
543.2806759,-296.5
543.2963009,-324.029998779297
543.3119259,-327.679992675781
543.3275509,-327.679992675781
543.3431759,-327.679992675781
543.3588009,-327.679992675781
543.3744259,-327.679992675781
543.3900509,-327.679992675781
543.4056759,-327.679992675781
543.4213009,-327.679992675781
543.4369259,-327.679992675781
543.4525509,-327.679992675781
543.4681759,-327.679992675781
543.4838009,-327.679992675781
543.4994259,-327.679992675781
543.5150509,-327.679992675781
543.5306759,-327.679992675781
543.5463009,-327.679992675781
543.5619259,-327.679992675781
543.5775509,-327.679992675781
543.5931759,-327.679992675781
543.6088009,-327.679992675781
543.6244259,-327.679992675781
543.6400509,-327.679992675781
543.6556759,-327.679992675781
543.6713009,-327.679992675781
543.6869259,-327.679992675781
543.7025509,-327.679992675781
543.7181759,-327.679992675781
543.7338009,-327.679992675781
543.7494259,-327.679992675781
543.7650509,-327.679992675781
543.7806759,-327.679992675781
543.7963009,-327.679992675781
543.8119259,-327.679992675781
543.8275509,-327.679992675781
543.8431759,-327.679992675781
543.8588009,-327.679992675781
543.8744259,-327.679992675781
543.8900509,-327.679992675781
543.9056759,-327.679992675781
543.9213009,-327.679992675781
543.9369259,-327.679992675781
543.9525509,-327.679992675781
543.9681759,-327.679992675781
543.9838009,-327.679992675781
543.9994259,-327.679992675781
544.0150509,-327.679992675781
544.0306759,-327.679992675781
544.0463009,-327.679992675781
544.0619259,-327.679992675781
544.0775509,-327.679992675781
544.0931759,-327.679992675781
544.1088009,-327.679992675781
544.1244259,-327.679992675781
544.1400509,-327.679992675781
544.1556759,-317.350006103516
544.1713009,-296.239990234375
544.1869259,-275.869995117188
544.2025509,-256.869995117188
544.2181759,-239.380004882813
544.2338009,-222.990005493164
544.2494259,-206.979995727539
544.2650509,-190.770004272461
544.2806759,-174.100006103516
544.2963009,-156.789993286133
544.3119259,-138.479995727539
544.3275509,-118.860000610352
544.3431759,-98.2099990844727
544.3588009,-77.8600006103516
544.3744259,-59.9099998474121
544.3900509,-46.0499992370605
544.4056759,-36.5400009155273
544.4213009,-30.4400005340576
544.4369259,-26.6299991607666
544.4525509,-24.2900009155273
544.4681759,-22.8500003814697
544.4838009,-21.7999992370605
544.4994259,-20.7199993133545
544.5150509,-19.5699996948242
544.5306759,-18.7399997711182
544.5463009,-18.7099990844727
544.5619259,-19.6299991607666
544.5775509,-21.2199993133545
544.5931759,-22.9699993133545
544.6088009,-24.4500007629395
544.6244259,-25.3600006103516
544.6400509,-25.3999996185303
544.6556759,-24.1700000762939
544.6713009,-21.2900009155273
544.6869259,-16.5799999237061
544.7025509,-10.1800003051758
544.7181759,-2.47000002861023
544.7338009,6.03000020980835
544.7494259,14.8500003814697
544.7650509,23.6399993896484
544.7806759,32.1800003051758
544.7963009,40.3300018310547
544.8119259,47.9199981689453
544.8275509,54.7999992370605
544.8431759,61.0699996948242
544.8588009,67.3300018310547
544.8744259,74.620002746582
544.8900509,83.8399963378906
544.9056759,95.1800003051758
544.9213009,107.970001220703
544.9369259,121.25
544.9525509,134.449996948242
544.9681759,147.630004882813
544.9838009,160.919998168945
544.9994259,173.839996337891
545.0150509,185.440002441406
545.0306759,195.029998779297
545.0463009,202.639999389648
545.0619259,208.720001220703
545.0775509,213.440002441406
545.0931759,216.149993896484
545.1088009,215.990005493164
545.1244259,212.789993286133
545.1400509,207.350006103516
545.1556759,201.039993286133
545.1713009,195.089996337891
545.1869259,190.130004882813
545.2025509,186.070007324219
545.2181759,182.309997558594
545.2338009,178.179992675781
545.2494259,173.289993286133
545.2650509,167.229995727539
545.2806759,159.300003051758
545.2963009,148.889999389648
545.3119259,136.210006713867
545.3275509,122.730003356934
545.3431759,110.480003356934
545.3588009,100.370002746582
545.3744259,91.1100006103516
545.3900509,80.6500015258789
545.4056759,68.1600036621094
545.4213009,53.5699996948242
545.4369259,35.939998626709
545.4525509,13.7200002670288
545.4681759,-13.1700000762939
545.4838009,-42.0900001525879
545.4994259,-68.4100036621094
545.5150509,-88.5800018310547
545.5306759,-102.370002746582
545.5463009,-111.379997253418
545.5619259,-116.150001525879
545.5775509,-115.98999786377
545.5931759,-110.889999389648
545.6088009,-102.419998168945
545.6244259,-92.6699981689453
545.6400509,-82.5400009155273
545.6556759,-71.0599975585938
545.6713009,-56.6800003051758
545.6869259,-39.0400009155273
545.7025509,-19.0900001525879
545.7181759,1.92999994754791
545.7338009,23.2900009155273
545.7494259,44.6199989318848
545.7650509,65.6900024414063
545.7806759,86.2699966430664
545.7963009,106.23999786377
545.8119259,125.650001525879
545.8275509,144.610000610352
545.8431759,163.139999389648
545.8588009,180.910003662109
545.8744259,197.270004272461
545.8900509,211.649993896484
545.9056759,223.940002441406
545.9213009,234.690002441406
545.9369259,244.869995117188
545.9525509,255.210006713867
545.9681759,265.859985351563
545.9838009,276.510009765625
545.9994259,287.0
546.0150509,297.380004882813
546.0306759,307.720001220703
546.0463009,317.929992675781
546.0619259,327.670013427734
546.0775509,327.670013427734
546.0931759,327.670013427734
546.1088009,327.670013427734
546.1244259,327.670013427734
546.1400509,327.670013427734
546.1556759,327.670013427734
546.1713009,327.670013427734
546.1869259,327.670013427734
546.2025509,327.670013427734
546.2181759,327.670013427734
546.2338009,327.670013427734
546.2494259,327.670013427734
546.2650509,327.670013427734
546.2806759,327.670013427734
546.2963009,327.670013427734
546.3119259,327.670013427734
546.3275509,327.670013427734
546.3431759,327.670013427734
546.3588009,327.670013427734
546.3744259,327.670013427734
546.3900509,327.670013427734
546.4056759,327.670013427734
546.4213009,327.670013427734
546.4369259,327.670013427734
546.4525509,327.670013427734
546.4681759,327.670013427734
546.4838009,327.670013427734
546.4994259,327.670013427734
546.5150509,327.670013427734
546.5306759,327.670013427734
546.5463009,327.670013427734
546.5619259,327.670013427734
546.5775509,327.670013427734
546.5931759,327.670013427734
546.6088009,327.670013427734
546.6244259,327.670013427734
546.6400509,327.670013427734
546.6556759,327.670013427734
546.6713009,327.670013427734
546.6869259,327.670013427734
546.7025509,327.670013427734
546.7181759,327.670013427734
546.7338009,327.670013427734
546.7494259,327.670013427734
546.7650509,327.670013427734
546.7806759,327.670013427734
546.7963009,327.670013427734
546.8119259,326.010009765625
546.8275509,313.970001220703
546.8431759,301.730010986328
546.8588009,289.140014648438
546.8744259,275.980010986328
546.8900509,262.170013427734
546.9056759,247.880004882813
546.9213009,233.490005493164
546.9369259,219.490005493164
546.9525509,206.259994506836
546.9681759,193.830001831055
546.9838009,181.850006103516
546.9994259,169.75
547.0150509,157.080001831055
547.0306759,143.619995117188
547.0463009,129.210006713867
547.0619259,113.599998474121
547.0775509,96.7099990844727
547.0931759,79.0199966430664
547.1088009,61.4799995422363
547.1244259,45.0099983215332
547.1400509,30.0499992370605
547.1556759,16.4500007629395
547.1713009,3.76999998092651
547.1869259,-9.15999984741211
547.2025509,-22.9099998474121
547.2181759,-37.9700012207031
547.2338009,-54.6699981689453
547.2494259,-72.9400024414063
547.2650509,-92.6999969482422
547.2806759,-114.150001525879
547.2963009,-137.589996337891
547.3119259,-162.889999389648
547.3275509,-189.259994506836
547.3431759,-215.630004882813
547.3588009,-241.380004882813
547.3744259,-266.589996337891
547.3900509,-291.459991455078
547.4056759,-315.410003662109
547.4213009,-327.679992675781
547.4369259,-327.679992675781
547.4525509,-327.679992675781
547.4681759,-327.679992675781
547.4838009,-327.679992675781
547.4994259,-327.679992675781
547.5150509,-327.679992675781
547.5306759,-327.679992675781
547.5463009,-327.679992675781
547.5619259,-327.679992675781
547.5775509,-327.679992675781
547.5931759,-327.679992675781
547.6088009,-327.679992675781
547.6244259,-327.679992675781
547.6400509,-327.679992675781
547.6556759,-327.679992675781
547.6713009,-327.679992675781
547.6869259,-327.679992675781
547.7025509,-327.679992675781
547.7181759,-327.679992675781
547.7338009,-327.679992675781
547.7494259,-327.679992675781
547.7650509,-327.679992675781
547.7806759,-327.679992675781
547.7963009,-327.679992675781
547.8119259,-327.679992675781
547.8275509,-327.679992675781
547.8431759,-327.679992675781
547.8588009,-327.679992675781
547.8744259,-327.679992675781
547.8900509,-327.679992675781
547.9056759,-327.679992675781
547.9213009,-327.679992675781
547.9369259,-327.679992675781
547.9525509,-327.679992675781
547.9681759,-327.679992675781
547.9838009,-327.679992675781
547.9994259,-327.679992675781
548.0150509,-327.679992675781
548.0306759,-303.119995117188
548.0463009,-274.019989013672
548.0619259,-246.440002441406
548.0775509,-222.360000610352
548.0931759,-200.389999389648
548.1088009,-177.899993896484
548.1244259,-154.460006713867
548.1400509,-132.270004272461
548.1556759,-113.949996948242
548.1713009,-100.620002746582
548.1869259,-91.25
548.2025509,-82.7600021362305
548.2181759,-70.879997253418
548.2338009,-52.2799987792969
548.2494259,-26.2900009155273
548.2650509,6.11999988555908
548.2806759,44.3400001525879
548.2963009,88.1699981689453
548.3119259,135.850006103516
548.3275509,181.990005493164
548.3431759,218.080001831055
548.3588009,237.229995727539
548.3744259,238.570007324219
548.3900509,226.210006713867
548.4056759,204.860000610352
548.4213009,177.5
548.4369259,145.970001220703
548.4525509,112.080001831055
548.4681759,78.8300018310547
548.4838009,53.4500007629395
548.4994259,48.0400009155273
548.5150509,73.0400009155273
548.5306759,134.889999389648
548.5463009,251.559997558594
548.5619259,327.670013427734
548.5775509,327.670013427734
548.5931759,327.670013427734
548.6088009,327.670013427734
548.6244259,327.670013427734
548.6400509,327.670013427734
548.6556759,327.670013427734
548.6713009,327.670013427734
548.6869259,327.670013427734
548.7025509,327.670013427734
548.7181759,327.670013427734
548.7338009,327.670013427734
548.7494259,327.670013427734
548.7650509,327.670013427734
548.7806759,327.670013427734
548.7963009,327.670013427734
548.8119259,293.320007324219
548.8275509,-102.650001525879
548.8431759,-327.679992675781
548.8588009,-327.679992675781
548.8744259,-327.679992675781
548.8900509,-327.679992675781
548.9056759,-327.679992675781
548.9213009,-327.679992675781
548.9369259,-327.679992675781
548.9525509,-327.679992675781
548.9681759,-327.679992675781
548.9838009,-327.679992675781
548.9994259,-327.679992675781
549.0150509,-327.679992675781
549.0306759,-327.679992675781
549.0463009,-327.679992675781
549.0619259,-327.679992675781
549.0775509,-327.679992675781
549.0931759,-327.679992675781
549.1088009,-327.679992675781
549.1244259,-327.679992675781
549.1400509,-327.679992675781
549.1556759,-327.679992675781
549.1713009,-327.679992675781
549.1869259,-327.679992675781
549.2025509,-327.679992675781
549.2181759,-327.679992675781
549.2338009,-327.679992675781
549.2494259,-327.679992675781
549.2650509,-327.679992675781
549.2806759,-327.679992675781
549.2963009,-327.679992675781
549.3119259,-327.679992675781
549.3275509,-327.679992675781
549.3431759,-327.679992675781
549.3588009,-327.679992675781
549.3744259,-327.679992675781
549.3900509,-327.679992675781
549.4056759,-327.679992675781
549.4213009,-327.679992675781
549.4369259,-327.679992675781
549.4525509,-327.679992675781
549.4681759,-327.679992675781
549.4838009,-327.679992675781
549.4994259,-327.679992675781
549.5150509,-327.679992675781
549.5306759,-327.679992675781
549.5463009,-327.679992675781
549.5619259,-327.679992675781
549.5775509,-327.679992675781
549.5931759,-327.679992675781
549.6088009,-327.679992675781
549.6244259,-327.679992675781
549.6400509,-327.679992675781
549.6556759,-327.679992675781
549.6713009,-327.679992675781
549.6869259,-327.679992675781
549.7025509,-327.679992675781
549.7181759,-327.679992675781
549.7338009,-327.679992675781
549.7494259,-327.679992675781
549.7650509,-327.679992675781
549.7806759,-327.679992675781
549.7963009,-327.679992675781
549.8119259,-327.679992675781
549.8275509,-327.679992675781
549.8431759,-327.679992675781
549.8588009,-327.679992675781
549.8744259,-327.679992675781
549.8900509,-327.679992675781
549.9056759,-327.679992675781
549.9213009,-327.679992675781
549.9369259,-327.679992675781
549.9525509,-327.679992675781
549.9681759,-327.679992675781
549.9838009,-327.679992675781
549.9994259,-327.679992675781
550.0150509,-327.679992675781
550.0306759,-327.679992675781
550.0463009,-318.070007324219
550.0619259,-290.799987792969
550.0775509,-259.380004882813
550.0931759,-224.850006103516
550.1088009,-187.559997558594
550.1244259,-148.0
550.1400509,-107.300003051758
550.1556759,-66.6699981689453
550.1713009,-26.6800003051758
550.1869259,13.0200004577637
550.2025509,52.9000015258789
550.2181759,92.6999969482422
550.2338009,131.580001831055
550.2494259,169.020004272461
550.2650509,205.119995117188
550.2806759,240.330001831055
550.2963009,275.059997558594
550.3119259,309.390014648438
550.3275509,327.670013427734
550.3431759,327.670013427734
550.3588009,327.670013427734
550.3744259,327.670013427734
550.3900509,327.670013427734
550.4056759,327.670013427734
550.4213009,327.670013427734
550.4369259,327.670013427734
550.4525509,327.670013427734
550.4681759,327.670013427734
550.4838009,327.670013427734
550.4994259,327.670013427734
550.5150509,327.670013427734
550.5306759,327.670013427734
550.5463009,327.670013427734
550.5619259,327.670013427734
550.5775509,327.670013427734
550.5931759,327.670013427734
550.6088009,327.670013427734
550.6244259,327.670013427734
550.6400509,327.670013427734
550.6556759,327.670013427734
550.6713009,327.670013427734
550.6869259,327.670013427734
550.7025509,327.670013427734
550.7181759,327.670013427734
550.7338009,327.670013427734
550.7494259,327.670013427734
550.7650509,327.670013427734
550.7806759,327.670013427734
550.7963009,327.670013427734
550.8119259,327.670013427734
550.8275509,327.670013427734
550.8431759,327.670013427734
550.8588009,327.670013427734
550.8744259,327.670013427734
550.8900509,327.670013427734
550.9056759,327.670013427734
550.9213009,327.670013427734
550.9369259,327.670013427734
550.9525509,327.670013427734
550.9681759,327.670013427734
550.9838009,327.670013427734
550.9994259,327.670013427734
551.0150509,327.670013427734
551.0306759,327.670013427734
551.0463009,327.670013427734
551.0619259,327.670013427734
551.0775509,327.670013427734
551.0931759,327.670013427734
551.1088009,327.670013427734
551.1244259,327.670013427734
551.1400509,327.670013427734
551.1556759,327.670013427734
551.1713009,327.670013427734
551.1869259,327.670013427734
551.2025509,327.670013427734
551.2181759,327.670013427734
551.2338009,327.670013427734
551.2494259,327.670013427734
551.2650509,327.670013427734
551.2806759,327.670013427734
551.2963009,327.670013427734
551.3119259,327.670013427734
551.3275509,327.670013427734
551.3431759,327.670013427734
551.3588009,327.670013427734
551.3744259,327.670013427734
551.3900509,327.670013427734
551.4056759,327.670013427734
551.4213009,327.670013427734
551.4369259,327.670013427734
551.4525509,327.670013427734
551.4681759,327.670013427734
551.4838009,327.670013427734
551.4994259,327.670013427734
551.5150509,327.670013427734
551.5306759,327.670013427734
551.5463009,327.670013427734
551.5619259,327.670013427734
551.5775509,327.670013427734
551.5931759,327.670013427734
551.6088009,327.670013427734
551.6244259,327.670013427734
551.6400509,327.670013427734
551.6556759,327.670013427734
551.6713009,327.670013427734
551.6869259,327.670013427734
551.7025509,327.670013427734
551.7181759,327.670013427734
551.7338009,327.670013427734
551.7494259,327.670013427734
551.7650509,327.670013427734
551.7806759,327.670013427734
551.7963009,327.670013427734
551.8119259,327.670013427734
551.8275509,327.670013427734
551.8431759,327.670013427734
551.8588009,327.670013427734
551.8744259,327.670013427734
551.8900509,327.670013427734
551.9056759,327.670013427734
551.9213009,327.670013427734
551.9369259,327.670013427734
551.9525509,327.670013427734
551.9681759,263.429992675781
551.9838009,142.860000610352
551.9994259,33.3499984741211
552.0150509,-62.0200004577637
552.0306759,-138.460006713867
552.0463009,-191.699996948242
552.0619259,-222.309997558594
552.0775509,-236.050003051758
552.0931759,-240.610000610352
552.1088009,-242.279998779297
552.1244259,-244.779998779297
552.1400509,-249.779998779297
552.1556759,-257.899993896484
552.1713009,-269.190002441406
552.1869259,-283.070007324219
552.2025509,-298.989990234375
552.2181759,-317.089996337891
552.2338009,-327.679992675781
552.2494259,-327.679992675781
552.2650509,-327.679992675781
552.2806759,-327.679992675781
552.2963009,-327.679992675781
552.3119259,-327.679992675781
552.3275509,-327.679992675781
552.3431759,-327.679992675781
552.3588009,-327.679992675781
552.3744259,-327.679992675781
552.3900509,-327.679992675781
552.4056759,-327.679992675781
552.4213009,-327.679992675781
552.4369259,-327.679992675781
552.4525509,-327.679992675781
552.4681759,-327.679992675781
552.4838009,-327.679992675781
552.4994259,-327.679992675781
552.5150509,-327.679992675781
552.5306759,-327.679992675781
552.5463009,-327.679992675781
552.5619259,-327.679992675781
552.5775509,-327.679992675781
552.5931759,-327.679992675781
552.6088009,-327.679992675781
552.6244259,-327.679992675781
