Time(s),Value(%)
1298.0022828,-27.0499992370605
1298.0179078,-29.2399997711182
1298.0335328,-28.1599998474121
1298.0491578,-25.4300003051758
1298.0647828,-22.8500003814697
1298.0804078,-21.8600006103516
1298.0960328,-23.2099990844727
1298.1116578,-26.8299999237061
1298.1272828,-32.1399993896484
1298.1429078,-38.4000015258789
1298.1585328,-45.0
1298.1741578,-51.5999984741211
1298.1897828,-58.1500015258789
1298.2054078,-64.7399978637695
1298.2210328,-71.2300033569336
1298.2366578,-77.0599975585938
1298.2522828,-81.4899978637695
1298.2679078,-84.0599975585938
1298.2835328,-84.6999969482422
1298.2991578,-83.6999969482422
1298.3147828,-81.5899963378906
1298.3304078,-78.75
1298.3460328,-75.1699981689453
1298.3616578,-70.6100006103516
1298.3772828,-64.9800033569336
1298.3929078,-58.2200012207031
1298.4085328,-49.8300018310547
1298.4241578,-38.0800018310547
1298.4397828,-19.3299999237061
1298.4554078,10.6999998092651
1298.4710328,52.7099990844727
1298.4866578,100.889999389648
1298.5022828,145.320007324219
1298.5179078,177.210006713867
1298.5335328,192.559997558594
1298.5491578,192.520004272461
1298.5647828,181.320007324219
1298.5804078,163.759994506836
1298.5960328,143.550003051758
1298.6116578,122.809997558594
1298.6272828,102.269996643066
1298.6429078,81.8399963378906
1298.6585328,61.2400016784668
1298.6741578,40.5200004577637
1298.6897828,20.2900009155273
1298.7054078,1.64999997615814
1298.7210328,-13.9200000762939
1298.7366578,-24.8700008392334
1298.7522828,-30.1499996185303
1298.7679078,-29.8600006103516
1298.7835328,-25.2900009155273
1298.7991578,-18.6200008392334
1298.8147828,-12.1899995803833
1298.8304078,-7.80999994277954
1298.8460328,-6.34999990463257
1298.8616578,-7.71000003814697
1298.8772828,-11.2299995422363
1298.8929078,-15.9700002670288
1298.9085328,-21.0100002288818
1298.9241578,-25.6599998474121
1298.9397828,-29.7600002288818
1298.9554078,-33.6500015258789
1298.9710328,-37.7700004577637
1298.9866578,-42.1399993896484
1299.0022828,-46.3800010681152
1299.0179078,-50.0499992370605
1299.0335328,-52.9199981689453
1299.0491578,-55.0499992370605
1299.0647828,-56.6300010681152
1299.0804078,-57.4199981689453
1299.0960328,-55.939998626709
1299.1116578,-49.4500007629395
1299.1272828,-34.8800010681152
1299.1429078,-10.7200002670288
1299.1585328,21.4500007629395
1299.1741578,56.9799995422363
1299.1897828,89.9499969482422
1299.2054078,115.370002746582
1299.2210328,130.190002441406
1299.2366578,133.330001831055
1299.2522828,125.589996337891
1299.2679078,109.419998168945
1299.2835328,88.0899963378906
1299.2991578,64.6100006103516
1299.3147828,40.9700012207031
1299.3304078,18.2099990844727
1299.3460328,-2.91000008583069
1299.3616578,-21.6900005340576
1299.3772828,-37.5099983215332
1299.3929078,-49.9500007629395
1299.4085328,-58.7799987792969
1299.4241578,-63.9199981689453
1299.4397828,-65.5599975585938
1299.4554078,-64.3000030517578
1299.4710328,-61.1699981689453
1299.4866578,-57.3899993896484
1299.5022828,-54.0900001525879
1299.5179078,-52.189998626709
1299.5335328,-52.1300010681152
1299.5491578,-53.7299995422363
1299.5647828,-56.4900016784668
1299.5804078,-59.9500007629395
1299.5960328,-63.8499984741211
1299.6116578,-68.0100021362305
1299.6272828,-72.2200012207031
1299.6429078,-76.3199996948242
1299.6585328,-80.0599975585938
1299.6741578,-83.120002746582
1299.6897828,-85.1399993896484
1299.7054078,-85.9199981689453
1299.7210328,-85.7300033569336
1299.7366578,-84.9300003051758
1299.7522828,-83.5199966430664
1299.7679078,-81.1999969482422
1299.7835328,-77.620002746582
1299.7991578,-72.4700012207031
1299.8147828,-64.7399978637695
1299.8304078,-51.9099998474121
1299.8460328,-30.4899997711182
1299.8616578,1.62999999523163
1299.8772828,42.939998626709
1299.8929078,88.0599975585938
1299.9085328,129.970001220703
1299.9241578,162.789993286133
1299.9397828,183.240005493164
1299.9554078,190.619995117188
1299.9710328,186.449996948242
1299.9866578,174.020004272461
1300.0022828,157.339996337891
1300.0179078,139.639999389648
1300.0335328,122.559997558594
1300.0491578,106.139999389648
1300.0647828,89.5
1300.0804078,72.0299987792969
1300.0960328,54.1800003051758
1300.1116578,37.5999984741211
1300.1272828,24.25
1300.1429078,15.3699998855591
1300.1585328,10.9499998092651
1300.1741578,9.82999992370605
1300.1897828,10.1499996185303
1300.2054078,9.97999954223633
1300.2210328,7.90999984741211
1300.2366578,3.42000007629395
1300.2522828,-3.30999994277954
1300.2679078,-11.8699998855591
1300.2835328,-21.7999992370605
1300.2991578,-32.6800003051758
1300.3147828,-44.0499992370605
1300.3304078,-55.3899993896484
1300.3460328,-66.1399993896484
1300.3616578,-75.5
1300.3772828,-82.4100036621094
1300.3929078,-86.120002746582
1300.4085328,-86.6800003051758
1300.4241578,-84.8399963378906
1300.4397828,-81.6999969482422
1300.4554078,-78.3399963378906
1300.4710328,-75.5599975585938
1300.4866578,-73.8099975585938
1300.5022828,-72.9400024414063
1300.5179078,-72.129997253418
1300.5335328,-70.2099990844727
1300.5491578,-66.0199966430664
1300.5647828,-58.1100006103516
1300.5804078,-43.9199981689453
1300.5960328,-20.1200008392334
1300.6116578,14.5
1300.6272828,56.560001373291
1300.6429078,98.9899978637695
1300.6585328,134.220001220703
1300.6741578,157.0
1300.6897828,165.470001220703
1300.7054078,160.75
1300.7210328,145.839996337891
1300.7366578,124.569999694824
1300.7522828,100.529998779297
1300.7679078,76.2200012207031
1300.7835328,52.8400001525879
1300.7991578,30.6700000762939
1300.8147828,9.85000038146973
1300.8304078,-9.22000026702881
1300.8460328,-25.7800006866455
1300.8616578,-38.9300003051758
1300.8772828,-48.0400009155273
1300.8929078,-53.0800018310547
1300.9085328,-54.7000007629395
1300.9241578,-53.9900016784668
1300.9397828,-52.1599998474121
1300.9554078,-50.2200012207031
1300.9710328,-48.8499984741211
1300.9866578,-48.5999984741211
1301.0022828,-49.8699989318848
1301.0179078,-52.7700004577637
1301.0335328,-57.060001373291
1301.0491578,-62.4199981689453
1301.0647828,-68.3899993896484
1301.0804078,-74.3199996948242
1301.0960328,-79.5899963378906
1301.1116578,-83.7399978637695
1301.1272828,-86.4000015258789
1301.1429078,-87.3499984741211
1301.1585328,-86.4300003051758
1301.1741578,-83.620002746582
1301.1897828,-79.3000030517578
1301.2054078,-74.25
1301.2210328,-69.1100006103516
1301.2366578,-64.129997253418
1301.2522828,-59.1800003051758
1301.2679078,-53.9500007629395
1301.2835328,-48.0200004577637
1301.2991578,-40.8699989318848
1301.3147828,-31.6599998474121
1301.3304078,-18.6100006103516
1301.3460328,0.889999985694885
1301.3616578,28.3899993896484
1301.3772828,62.2299995422363
1301.3929078,97.5599975585938
1301.4085328,128.070007324219
1301.4241578,148.0
1301.4397828,153.699996948242
1301.4554078,144.270004272461
1301.4710328,121.440002441406
1301.4866578,88.9300003051758
1301.5022828,51.6800003051758
1301.5179078,14.7600002288818
1301.5335328,-17.9799995422363
1301.5491578,-44.5999984741211
1301.5647828,-64.6999969482422
1301.5804078,-79.1399993896484
1301.5960328,-89.5599975585938
1301.6116578,-97.3600006103516
1301.6272828,-102.610000610352
1301.6429078,-104.059997558594
1301.6585328,-100.120002746582
1301.6741578,-90.0299987792969
1301.6897828,-74.5299987792969
1301.7054078,-55.689998626709
1301.7210328,-36.0999984741211
1301.7366578,-18.1900005340576
1301.7522828,-3.74000000953674
1301.7679078,6.59999990463257
1301.7835328,13.4300003051758
1301.7991578,18.1599998474121
1301.8147828,22.3400001525879
1301.8304078,26.8999996185303
1301.8460328,31.9799995422363
1301.8616578,37.3400001525879
1301.8772828,43.060001373291
1301.8929078,49.8499984741211
1301.9085328,58.7599983215332
1301.9241578,70.3000030517578
1301.9397828,83.4000015258789
1301.9554078,95.4800033569336
1301.9710328,103.540000915527
1301.9866578,105.51000213623
1302.0022828,101.089996337891
1302.0179078,91.8499984741211
1302.0335328,80.4599990844727
1302.0491578,69.3199996948242
1302.0647828,59.9300003051758
1302.0804078,53.2099990844727
1302.0960328,50.810001373291
1302.1116578,55.5900001525879
1302.1272828,70.3099975585938
1302.1429078,95.2399978637695
1302.1585328,126.830001831055
1302.1741578,158.630004882813
1302.1897828,184.020004272461
1302.2054078,198.539993286133
1302.2210328,200.889999389648
1302.2366578,192.429992675781
1302.2522828,176.029998779297
1302.2679078,154.729995727539
1302.2835328,130.869995117188
1302.2991578,105.940002441406
1302.3147828,80.9800033569336
1302.3304078,56.9599990844727
1302.3460328,34.7299995422363
1302.3616578,14.9799995422363
1302.3772828,-1.55999994277954
1302.3929078,-14.1599998474121
1302.4085328,-22.4899997711182
1302.4241578,-27.0699996948242
1302.4397828,-29.1499996185303
1302.4554078,-30.2399997711182
1302.4710328,-31.8099994659424
1302.4866578,-34.9700012207031
1302.5022828,-40.2299995422363
1302.5179078,-47.5299987792969
1302.5335328,-56.4700012207031
1302.5491578,-66.5
1302.5647828,-76.9599990844727
1302.5804078,-87.0400009155273
1302.5960328,-96.0500030517578
1302.6116578,-103.610000610352
1302.6272828,-109.589996337891
1302.6429078,-114.069999694824
1302.6585328,-117.199996948242
1302.6741578,-119.199996948242
1302.6897828,-120.25
1302.7054078,-120.389999389648
1302.7210328,-119.410003662109
1302.7366578,-116.860000610352
1302.7522828,-112.48999786377
1302.7679078,-106.569999694824
1302.7835328,-100.029998779297
1302.7991578,-93.7600021362305
1302.8147828,-87.5800018310547
1302.8304078,-79.4499969482422
1302.8460328,-65.3899993896484
1302.8616578,-41.0900001525879
1302.8772828,-5.42999982833862
1302.8929078,37.1599998474121
1302.9085328,78.6600036621094
1302.9241578,111.209999084473
1302.9397828,130.210006713867
1302.9554078,135.029998779297
1302.9710328,128.020004272461
1302.9866578,112.480003356934
1303.0022828,91.2900009155273
1303.0179078,66.4700012207031
1303.0335328,39.5099983215332
1303.0491578,11.6300001144409
1303.0647828,-15.9899997711182
1303.0804078,-42.1199989318848
1303.0960328,-65.4800033569336
1303.1116578,-84.8099975585938
1303.1272828,-98.8600006103516
1303.1429078,-106.629997253418
1303.1585328,-107.970001220703
1303.1741578,-103.980003356934
1303.1897828,-96.5100021362305
1303.2054078,-87.3399963378906
1303.2210328,-77.8300018310547
1303.2366578,-69.2600021362305
1303.2522828,-62.7599983215332
1303.2679078,-59.0099983215332
1303.2835328,-58.1399993896484
1303.2991578,-59.8400001525879
1303.3147828,-63.3800010681152
1303.3304078,-67.629997253418
1303.3460328,-71.4000015258789
1303.3616578,-74.0699996948242
1303.3772828,-76.0
1303.3929078,-77.9899978637695
1303.4085328,-80.3099975585938
1303.4241578,-82.5899963378906
1303.4397828,-84.1100006103516
1303.4554078,-84.25
1303.4710328,-82.7300033569336
1303.4866578,-79.5800018310547
1303.5022828,-75.1800003051758
1303.5179078,-69.9499969482422
1303.5335328,-63.9500007629395
1303.5491578,-56.2000007629395
1303.5647828,-44.3699989318848
1303.5804078,-24.9599990844727
1303.5960328,5.61999988555908
1303.6116578,49.6199989318848
1303.6272828,106.910003662109
1303.6429078,173.059997558594
1303.6585328,237.75
1303.6741578,287.390014648438
1303.6897828,310.510009765625
1303.7054078,302.779998779297
1303.7210328,268.600006103516
1303.7366578,218.279998779297
1303.7522828,162.850006103516
1303.7679078,109.980003356934
1303.7835328,63.1399993896484
1303.7991578,22.9599990844727
1303.8147828,-11.2600002288818
1303.8304078,-40.5699996948242
1303.8460328,-65.6399993896484
1303.8616578,-86.7300033569336
1303.8772828,-103.76000213623
1303.8929078,-116.389999389648
1303.9085328,-123.98999786377
1303.9241578,-126.050003051758
1303.9397828,-122.669998168945
1303.9554078,-114.569999694824
1303.9710328,-103.019996643066
1303.9866578,-89.7799987792969
1304.0022828,-76.9800033569336
1304.0179078,-66.4400024414063
1304.0335328,-59.1699981689453
1304.0491578,-55.4199981689453
1304.0647828,-55.25
1304.0804078,-59.1399993896484
1304.0960328,-68.1399993896484
1304.1116578,-83.2699966430664
1304.1272828,-104.430000305176
1304.1429078,-128.869995117188
1304.1585328,-150.960006713867
1304.1741578,-164.899993896484
1304.1897828,-167.600006103516
1304.2054078,-159.589996337891
1304.2210328,-144.039993286133
1304.2366578,-125.169998168945
1304.2522828,-106.690002441406
1304.2679078,-90.5199966430664
1304.2835328,-75.5500030517578
1304.2991578,-56.6599998474121
1304.3147828,-26.4099998474121
1304.3304078,20.75
1304.3460328,84.1399993896484
1304.3616578,155.520004272461
1304.3772828,222.529998779297
1304.3929078,274.160003662109
1304.4085328,304.850006103516
1304.4241578,315.679992675781
1304.4397828,312.649993896484
1304.4554078,303.119995117188
1304.4710328,292.399993896484
1304.4866578,282.239990234375
1304.5022828,271.390014648438
1304.5179078,257.559997558594
1304.5335328,239.559997558594
1304.5491578,218.410003662109
1304.5647828,196.75
1304.5804078,176.979995727539
1304.5960328,160.330001831055
1304.6116578,147.729995727539
1304.6272828,140.759994506836
1304.6429078,140.240005493164
1304.6585328,143.800003051758
1304.6741578,145.979995727539
1304.6897828,141.589996337891
1304.7054078,128.850006103516
1304.7210328,109.400001525879
1304.7366578,86.379997253418
1304.7522828,62.5400009155273
1304.7679078,39.189998626709
1304.7835328,16.0100002288818
1304.7991578,-8.07999992370605
1304.8147828,-33.6199989318848
1304.8304078,-59.8899993896484
1304.8460328,-85.1600036621094
1304.8616578,-107.620002746582
1304.8772828,-126.279998779297
1304.8929078,-141.279998779297
1304.9085328,-153.350006103516
1304.9241578,-163.320007324219
1304.9397828,-171.679992675781
1304.9554078,-178.419998168945
1304.9710328,-183.119995117188
1304.9866578,-185.039993286133
1305.0022828,-182.779998779297
1305.0179078,-173.720001220703
1305.0335328,-155.130004882813
1305.0491578,-126.209999084473
1305.0647828,-89.3399963378906
1305.0804078,-49.6399993896484
1305.0960328,-13.3000001907349
1305.1116578,14.3000001907349
1305.1272828,30.1399993896484
1305.1429078,33.7200012207031
1305.1585328,26.5699996948242
1305.1741578,11.5600004196167
1305.1897828,-7.94999980926514
1305.2054078,-28.9500007629395
1305.2210328,-49.25
1305.2366578,-67.6800003051758
1305.2522828,-83.870002746582
1305.2679078,-97.9100036621094
1305.2835328,-109.669998168945
1305.2991578,-118.480003356934
1305.3147828,-123.529998779297
1305.3304078,-124.470001220703
1305.3460328,-121.709999084473
1305.3616578,-116.389999389648
1305.3772828,-109.900001525879
1305.3929078,-103.459999084473
1305.4085328,-97.870002746582
1305.4241578,-93.4199981689453
1305.4397828,-90.0299987792969
1305.4554078,-87.4100036621094
1305.4710328,-85.2600021362305
1305.4866578,-83.4400024414063
1305.5022828,-82.0899963378906
1305.5179078,-81.4400024414063
1305.5335328,-81.370002746582
1305.5491578,-81.1800003051758
1305.5647828,-79.9199981689453
1305.5804078,-76.9100036621094
1305.5960328,-72.0
1305.6116578,-65.5
1305.6272828,-58.0499992370605
1305.6429078,-50.3300018310547
1305.6585328,-42.689998626709
1305.6741578,-35.0900001525879
1305.6897828,-27.2900009155273
1305.7054078,-18.9300003051758
1305.7210328,-9.18000030517578
1305.7366578,3.59999990463257
1305.7522828,22.1599998474121
1305.7679078,49.3800010681152
1305.7835328,85.4899978637695
1305.7991578,126.199996948242
1305.8147828,164.330001831055
1305.8304078,193.199996948242
1305.8460328,209.050003051758
1305.8616578,211.610000610352
1305.8772828,203.179992675781
1305.8929078,187.330001831055
1305.9085328,167.639999389648
1305.9241578,146.889999389648
1305.9397828,126.690002441406
1305.9554078,107.580001831055
1305.9710328,89.5299987792969
1305.9866578,72.5100021362305
1306.0022828,56.9300003051758
1306.0179078,43.4799995422363
1306.0335328,32.8499984741211
1306.0491578,25.5
1306.0647828,21.4599990844727
1306.0804078,20.0599994659424
1306.0960328,20.0300006866455
1306.1116578,20.0900001525879
1306.1272828,19.3199996948242
1306.1429078,17.2099990844727
1306.1585328,13.5699996948242
1306.1741578,8.55000019073486
1306.1897828,2.46000003814697
1306.2054078,-4.38000011444092
1306.2210328,-11.7700004577637
1306.2366578,-19.4400005340576
1306.2522828,-26.8400001525879
1306.2679078,-33.2200012207031
1306.2835328,-37.9599990844727
1306.2991578,-41.1500015258789
1306.3147828,-43.5200004577637
1306.3304078,-45.7999992370605
1306.3460328,-48.2299995422363
1306.3616578,-50.5099983215332
1306.3772828,-52.0900001525879
1306.3929078,-52.6399993896484
1306.4085328,-52.2299995422363
1306.4241578,-50.9500007629395
1306.4397828,-48.6500015258789
1306.4554078,-44.8400001525879
1306.4710328,-38.3300018310547
1306.4866578,-26.5799999237061
1306.5022828,-6.48000001907349
1306.5179078,23.1700000762939
1306.5335328,60.0099983215332
1306.5491578,98.0500030517578
1306.5647828,129.520004272461
1306.5804078,148.25
1306.5960328,152.089996337891
1306.6116578,143.139999389648
1306.6272828,125.910003662109
1306.6429078,105.050003051758
1306.6585328,83.8199996948242
1306.6741578,63.7999992370605
1306.6897828,45.3600006103516
1306.7054078,28.4400005340576
1306.7210328,13.0799999237061
1306.7366578,-0.560000002384186
1306.7522828,-12.1700000762939
1306.7679078,-21.1499996185303
1306.7835328,-26.9500007629395
1306.7991578,-29.6800003051758
1306.8147828,-30.1599998474121
1306.8304078,-29.5200004577637
1306.8460328,-28.7000007629395
1306.8616578,-28.1700000762939
1306.8772828,-28.0200004577637
1306.8929078,-28.2700004577637
1306.9085328,-28.9500007629395
1306.9241578,-30.1599998474121
1306.9397828,-31.9599990844727
1306.9554078,-34.2999992370605
1306.9710328,-37.0499992370605
1306.9866578,-40.0699996948242
1307.0022828,-43.4000015258789
1307.0179078,-47.4199981689453
1307.0335328,-52.7000007629395
1307.0491578,-59.7099990844727
1307.0647828,-68.1100006103516
1307.0804078,-76.3199996948242
1307.0960328,-82.2600021362305
1307.1116578,-84.5299987792969
1307.1272828,-83.0699996948242
1307.1429078,-78.8399963378906
1307.1585328,-72.9400024414063
1307.1741578,-65.7099990844727
1307.1897828,-56.0999984741211
1307.2054078,-41.6399993896484
1307.2210328,-19.2199993133545
1307.2366578,12.8299999237061
1307.2522828,52.3899993896484
1307.2679078,93.4100036621094
1307.2835328,128.490005493164
1307.2991578,151.889999389648
1307.3147828,161.259994506836
1307.3304078,157.479995727539
1307.3460328,143.710006713867
1307.3616578,124.110000610352
1307.3772828,102.48999786377
1307.3929078,81.3099975585938
1307.4085328,61.3899993896484
1307.4241578,42.7000007629395
1307.4397828,25.2399997711182
1307.4554078,9.40999984741211
1307.4710328,-4.07999992370605
1307.4866578,-14.5799999237061
1307.5022828,-21.6399993896484
1307.5179078,-25.3099994659424
1307.5335328,-26.1499996185303
1307.5491578,-25.1499996185303
1307.5647828,-23.5100002288818
1307.5804078,-22.4200000762939
1307.5960328,-22.75
1307.6116578,-25.0300006866455
1307.6272828,-29.4699993133545
1307.6429078,-35.9099998474121
1307.6585328,-43.8499984741211
1307.6741578,-52.4099998474121
1307.6897828,-60.5499992370605
1307.7054078,-67.379997253418
1307.7210328,-72.4700012207031
1307.7366578,-75.9100036621094
1307.7522828,-78.1900024414063
1307.7679078,-79.9400024414063
1307.7835328,-81.5500030517578
1307.7991578,-83.0299987792969
1307.8147828,-83.9599990844727
1307.8304078,-83.6999969482422
1307.8460328,-81.870002746582
1307.8616578,-78.3199996948242
1307.8772828,-72.2799987792969
1307.8929078,-61.1500015258789
1307.9085328,-40.8400001525879
1307.9241578,-9.19999980926514
1307.9397828,30.4899997711182
1307.9554078,70.3000030517578
1307.9710328,101.690002441406
1307.9866578,119.349998474121
1308.0022828,122.480003356934
1308.0179078,113.949996948242
1308.0335328,98.4199981689453
1308.0491578,80.3499984741211
1308.0647828,62.7299995422363
1308.0804078,46.8400001525879
1308.0960328,32.5699996948242
1308.1116578,19.1000003814697
1308.1272828,5.63000011444092
1308.1429078,-8.0
1308.1585328,-21.1200008392334
1308.1741578,-32.5200004577637
1308.1897828,-41.0099983215332
1308.2054078,-45.9000015258789
1308.2210328,-47.0400009155273
1308.2366578,-44.8199996948242
1308.2522828,-40.3899993896484
1308.2679078,-35.6399993896484
1308.2835328,-32.5800018310547
1308.2991578,-32.3499984741211
1308.3147828,-34.7299995422363
1308.3304078,-38.6300010681152
