Time(s),Value(%)
0.0272421,9.82999992370605
0.0428671,8.22999954223633
0.0584921,6.76999998092651
0.0741171,5.57000017166138
0.0897421,4.57000017166138
0.1053671,3.57999992370605
0.1209921,2.49000000953674
0.1366171,1.33000004291534
0.1522421,0.140000000596046
0.1678671,-1.0
0.1834921,-2.01999998092651
0.1991171,-2.88000011444092
0.2147421,-3.58999991416931
0.2303671,-4.21999979019165
0.2459921,-4.86999988555908
0.2616171,-5.59999990463257
0.2772421,-6.30999994277954
0.2928671,-6.82000017166138
0.3084921,-7.05999994277954
0.3241171,-7.19999980926514
0.3397421,-7.46000003814697
0.3553671,-7.8600001335144
0.3709921,-8.22999954223633
0.3866171,-6.96777725219727
0.4022421,-5.7055549621582
0.4178671,-4.4433331489563
0.4334921,-3.18111085891724
0.4491171,-1.91888856887817
0.4647421,-0.65666675567627
0.4803671,0.605555534362793
0.4959921,1.86777782440186
0.5116171,3.13000011444092
0.5272421,4.94999980926514
0.5428671,6.21999979019165
0.5584921,6.96999979019165
0.5741171,7.34999990463257
0.5897421,7.55999994277954
0.6053671,7.6399998664856
0.6209921,7.59999990463257
0.6366171,-8.38000011444092
0.6522421,-8.25
0.6678671,-7.82999992370605
0.6834921,-7.05999994277954
0.6991171,-5.76000022888184
0.7147421,-3.86999988555908
0.7303671,-1.52999997138977
0.7459921,0.899999976158142
0.7616171,1.62555551528931
0.7772421,2.35111093521118
0.7928671,3.07666683197021
0.8084921,3.80222225189209
0.8241171,4.52777767181396
0.8397421,5.253333568573
0.8553671,5.97888898849487
0.8709921,6.70444440841675
0.8866171,7.42999982833862
0.9022421,7.15999984741211
0.9178671,6.71999979019165
0.9334921,6.05000019073486
0.9491171,5.07999992370605
0.9647421,3.8199999332428
0.9803671,2.34999990463257
0.9959921,0.860000014305115
1.0116171,-0.419999986886978
1.0272421,-1.35000002384186
1.0428671,-1.94000005722046
1.0584921,-2.35999989509583
1.0741171,-2.78999996185303
1.0897421,-3.3199999332428
1.1053671,-3.91000008583069
1.1209921,-4.51999998092651
1.1366171,-5.13000011444092
1.1522421,-5.76999998092651
1.1678671,-6.5
1.1834921,-7.26000022888184
1.1991171,-7.92999982833862
1.2147421,-8.39999961853027
1.2303671,-8.59000015258789
1.2459921,-8.55000019073486
1.2616171,-8.38000011444092
1.2772421,-8.21000003814697
1.2928671,-8.03999996185303
1.3084921,-7.86999988555908
1.3241171,-7.70000028610229
1.3397421,-7.53000020980835
1.3553671,-7.3600001335144
1.3709921,-7.19000005722046
1.3866171,-7.01999998092651
1.4022421,-6.92999982833862
1.4178671,-6.88000011444092
1.4334921,-6.71000003814697
1.4491171,-6.28999996185303
1.4647421,-5.59999990463257
1.4803671,-4.82000017166138
1.4959921,-4.1399998664856
1.5116171,-3.64000010490417
1.5272421,-3.19000005722046
1.5428671,-2.4300000667572
1.5584921,-0.970000028610229
1.5741171,1.33000004291534
1.5897421,4.28999996185303
1.6053671,7.53999996185303
1.6209921,10.6899995803833
1.6366171,13.3900003433228
1.6522421,15.4399995803833
1.6678671,16.8299999237061
1.6834921,17.7199993133545
1.6991171,18.3099994659424
1.7147421,18.7600002288818
1.7303671,19.0900001525879
1.7459921,19.2900009155273
1.7616171,19.3700008392334
1.7772421,19.2299995422363
1.7928671,18.6299991607666
1.8084921,17.3400001525879
1.8241171,15.3900003433228
1.8397421,13.1199998855591
1.8553671,10.8699998855591
1.8709921,8.8100004196167
1.8866171,6.92999982833862
1.9022421,5.23000001907349
1.9178671,3.75999999046326
1.9334921,2.5
1.9491171,1.25
1.9647421,-0.119999997317791
1.9803671,-1.62000000476837
1.9959921,-3.11999988555908
2.0116171,-4.5
2.0272421,-5.69999980926514
2.0428671,-6.71999979019165
2.0584921,-7.59000015258789
2.0741171,-8.34000015258789
2.0897421,-8.97999954223633
2.1053671,-9.48999977111816
2.1209921,-9.84000015258789
2.1366171,-10.039999961853
2.1522421,-10.1499996185303
2.1678671,-10.1800003051758
2.1834921,-10.1999998092651
2.1991171,-10.289999961853
2.2147421,-10.5
2.2303671,-10.710000038147
2.2459921,-10.6999998092651
2.2616171,-10.1899995803833
2.2772421,-8.92000007629395
2.2928671,-6.82999992370605
2.3084921,-4.17999982833862
2.3241171,-1.5
2.3397421,0.699999988079071
2.3553671,2.24000000953674
2.3709921,3.23000001907349
2.3866171,3.91000008583069
2.4022421,4.44000005722046
2.4178671,4.94999980926514
2.4334921,5.44999980926514
2.4491171,5.80999994277954
2.4647421,5.84999990463257
2.4803671,5.46000003814697
2.4959921,4.63000011444092
2.5116171,3.38000011444092
2.5272421,1.79999995231628
2.5428671,0.170000001788139
2.5584921,-1.19000005722046
2.5741171,-2.11999988555908
2.5897421,-2.60999989509583
2.6053671,-2.86999988555908
2.6209921,-3.14000010490417
2.6366171,-3.55999994277954
2.6522421,-4.11999988555908
2.6678671,-4.76000022888184
2.6834921,-5.44999980926514
2.6991171,-6.11999988555908
2.7147421,-6.71999979019165
2.7303671,-7.23000001907349
2.7459921,-7.65999984741211
2.7616171,-8.0
2.7772421,-8.21000003814697
2.7928671,-8.25
2.8084921,-8.09000015258789
2.8241171,-7.84999990463257
2.8397421,-7.71999979019165
2.8553671,-7.78000020980835
2.8709921,-7.92000007629395
2.8866171,-7.94999980926514
2.9022421,-7.73999977111816
2.9178671,-7.40000009536743
2.9334921,-7.17999982833862
2.9491171,-7.15999984741211
2.9647421,-7.17999982833862
2.9803671,-6.98000001907349
2.9959921,-6.44999980926514
3.0116171,-5.67999982833862
3.0272421,-4.86999988555908
3.0428671,-4.07999992370605
3.0584921,-3.20000004768372
3.0741171,-1.98000001907349
3.0897421,-0.189999997615814
3.1053671,2.21000003814697
3.1209921,5.1399998664856
3.1366171,8.27000045776367
3.1522421,11.2700004577637
3.1678671,13.789999961853
3.1834921,15.6400003433228
3.1991171,16.9099998474121
3.2147421,17.7999992370605
3.2303671,18.4300003051758
3.2459921,18.8700008392334
3.2616171,19.1299991607666
3.2772421,19.2399997711182
3.2928671,19.1000003814697
3.3084921,18.5400009155273
3.3241171,17.5
3.3397421,16.0799999237061
3.3553671,14.460000038147
3.3709921,12.7700004577637
3.3866171,11.1099996566772
3.4022421,9.48999977111816
3.4178671,7.96000003814697
3.4334921,6.51000022888184
3.4491171,5.1100001335144
3.4647421,3.71000003814697
3.4803671,2.26999998092651
3.4959921,0.779999971389771
3.5116171,-0.649999976158142
3.5272421,-1.91999995708466
3.5428671,-3.00999999046326
3.5584921,-4.03999996185303
3.5741171,-5.03000020980835
3.5897421,-5.90999984741211
3.6053671,-6.65999984741211
3.6209921,-7.30000019073486
3.6366171,-7.90999984741211
3.6522421,-8.60000038146973
3.6678671,-9.36999988555908
3.6834921,-10.1099996566772
3.6991171,-10.6400003433228
3.7147421,-10.9099998474121
3.7303671,-10.8699998855591
3.7459921,-10.4499998092651
3.7616171,-9.48999977111816
3.7772421,-7.82999992370605
3.7928671,-5.48999977111816
3.8084921,-2.77999997138977
3.8241171,-0.180000007152557
3.8397421,1.92999994754791
3.8553671,3.4300000667572
3.8709921,4.3899998664856
3.8866171,5.03999996185303
3.9022421,5.53000020980835
3.9178671,6.0
3.9334921,6.51000022888184
3.9491171,6.92000007629395
3.9647421,6.98999977111816
3.9803671,6.53999996185303
3.9959921,5.57999992370605
4.0116171,4.23999977111816
4.0272421,2.75
4.0428671,1.30999994277954
4.0584921,0.0799999982118607
4.0741171,-0.899999976158142
4.0897421,-1.73000001907349
4.1053671,-2.5699999332428
4.1209921,-3.53999996185303
4.1366171,-4.6399998664856
4.1522421,-5.76000022888184
4.1678671,-6.80000019073486
4.1834921,-7.6399998664856
4.1991171,-8.23999977111816
4.2147421,-8.69999980926514
4.2303671,-9.14000034332275
4.2459921,-9.67000007629395
4.2616171,-10.2700004577637
4.2772421,-10.9200000762939
4.2928671,-11.4799995422363
4.3084921,-11.9099998474121
4.3241171,-12.2700004577637
4.3397421,-12.5500001907349
4.3553671,-12.5799999237061
4.3709921,-12.2200002670288
4.3866171,-11.5799999237061
4.4022421,-10.9499998092651
4.4178671,-10.5500001907349
4.4334921,-10.4099998474121
4.4491171,-10.4300003051758
4.4647421,-10.4200000762939
4.4803671,-10.210000038147
4.4959921,-9.73999977111816
4.5116171,-9.07999992370605
4.5272421,-8.35000038146973
4.5428671,-7.51000022888184
4.5584921,-6.26000022888184
4.5741171,-4.21999979019165
4.5897421,-1.33000004291534
4.6053671,2.09999990463257
4.6209921,5.71000003814697
4.6366171,9.18000030517578
4.6522421,12.2200002670288
4.6678671,14.6199998855591
4.6834921,16.2999992370605
4.6991171,17.4099998474121
4.7147421,18.1900005340576
4.7303671,18.7900009155273
4.7459921,19.3199996948242
4.7616171,19.8899993896484
4.7772421,20.5100002288818
4.7928671,21.0100002288818
4.8084921,21.0699996948242
4.8241171,20.4200000762939
4.8397421,19.0499992370605
4.8553671,17.2099990844727
4.8709921,15.2200002670288
4.8866171,13.289999961853
4.9022421,11.460000038147
4.9178671,9.6899995803833
4.9334921,8.01000022888184
4.9491171,6.42999982833862
4.9647421,4.90000009536743
4.9803671,3.32999992370605
4.9959921,1.69000005722046
5.0116171,0.0799999982118607
5.0272421,-1.4099999666214
5.0428671,-2.75999999046326
5.0584921,-3.92000007629395
5.0741171,-4.90000009536743
5.0897421,-5.78999996185303
5.1053671,-6.76000022888184
5.1209921,-7.92000007629395
5.1366171,-9.1899995803833
5.1522421,-10.3199996948242
5.1678671,-11.1099996566772
5.1834921,-11.5500001907349
5.1991171,-11.7399997711182
5.2147421,-11.8299999237061
5.2303671,-11.9200000762939
5.2459921,-11.8699998855591
5.2616171,-11.4099998474121
5.2772421,-10.2700004577637
5.2928671,-8.32999992370605
5.3084921,-5.71000003814697
5.3241171,-2.75
5.3397421,0.129999995231628
5.3553671,2.53999996185303
5.3709921,4.30000019073486
5.3866171,5.44000005722046
5.4022421,6.09000015258789
5.4178671,6.34999990463257
5.4334921,6.40000009536743
5.4491171,6.53000020980835
5.4647421,6.90999984741211
5.4803671,7.44000005722046
5.4959921,7.78000020980835
5.5116171,7.6399998664856
5.5272421,6.86999988555908
5.5428671,5.53000020980835
5.5584921,3.77999997138977
5.5741171,1.89999997615814
5.5897421,0.25
5.6053671,-0.889999985694885
5.6209921,-1.62999999523163
5.6366171,-2.28999996185303
5.6522421,-3.20000004768372
5.6678671,-4.32999992370605
5.6834921,-5.44999980926514
5.6991171,-6.44999980926514
5.7147421,-7.34999990463257
5.7303671,-8.22999954223633
5.7459921,-9.02999973297119
5.7616171,-9.61999988555908
5.7772421,-9.86999988555908
5.7928671,-9.90999984741211
5.8084921,-9.98999977111816
5.8241171,-10.210000038147
5.8397421,-10.4899997711182
5.8553671,-10.6499996185303
5.8709921,-10.6499996185303
5.8866171,-10.6199998855591
5.9022421,-10.6000003814697
5.9178671,-10.5100002288818
5.9334921,-10.289999961853
5.9491171,-10.0200004577637
5.9647421,-9.8100004196167
5.9803671,-9.6899995803833
5.9959921,-9.65999984741211
6.0116171,-9.64999961853027
6.0272421,-9.5
6.0428671,-9.07999992370605
6.0584921,-8.43000030517578
6.0741171,-7.71000003814697
6.0897421,-7.03000020980835
6.1053671,-6.36999988555908
6.1209921,-5.51999998092651
6.1366171,-4.07999992370605
6.1522421,-1.63999998569489
6.1678671,1.94000005722046
6.1834921,6.23000001907349
6.1991171,10.3599996566772
6.2147421,13.6199998855591
6.2303671,15.8000001907349
6.2459921,17.0799999237061
6.2616171,17.8199996948242
6.2772421,18.3999996185303
6.2928671,19.1800003051758
6.3084921,20.3299999237061
6.3241171,21.6900005340576
6.3397421,22.8700008392334
6.3553671,23.4200000762939
6.3709921,23.1000003814697
6.3866171,22.0
6.4022421,20.4400005340576
6.4178671,18.7600002288818
6.4334921,17.1100006103516
6.4491171,15.3500003814697
6.4647421,13.2299995422363
6.4803671,10.6700000762939
6.4959921,7.88000011444092
6.5116171,5.30999994277954
6.5272421,3.28999996185303
6.5428671,1.88999998569489
6.5584921,0.910000026226044
6.5741171,0.0199999995529652
6.5897421,-0.980000019073486
6.6053671,-2.16000008583069
6.6209921,-3.44000005722046
6.6366171,-4.67000007629395
6.6522421,-5.71000003814697
6.6678671,-6.48999977111816
6.6834921,-7.1100001335144
6.6991171,-7.75
6.7147421,-8.52999973297119
6.7303671,-9.39000034332275
6.7459921,-10.210000038147
6.7616171,-10.8900003433228
6.7772421,-11.289999961853
6.7928671,-11.25
6.8084921,-10.5900001525879
6.8241171,-9.22999954223633
6.8397421,-7.28000020980835
6.8553671,-5.0
6.8709921,-2.73000001907349
6.8866171,-0.720000028610229
6.9022421,0.930000007152557
6.9178671,2.24000000953674
6.9334921,3.20000004768372
6.9491171,3.84999990463257
6.9647421,4.30999994277954
6.9803671,4.76999998092651
6.9959921,5.32999992370605
7.0116171,5.88000011444092
7.0272421,6.1399998664856
7.0428671,5.82000017166138
7.0584921,4.78000020980835
7.0741171,3.16000008583069
7.0897421,1.39999997615814
7.1053671,-0.0099999997764825
7.1209921,-0.870000004768372
7.1366171,-1.33000004291534
7.1522421,-1.78999996185303
7.1678671,-2.53999996185303
7.1834921,-3.65000009536743
7.1991171,-4.92000007629395
7.2147421,-6.07000017166138
7.2303671,-6.90000009536743
7.2459921,-7.42000007629395
7.2616171,-7.75
7.2772421,-8.01000022888184
7.2928671,-8.32999992370605
7.3084921,-8.77000045776367
7.3241171,-9.32999992370605
7.3397421,-9.86999988555908
7.3553671,-10.289999961853
7.3709921,-10.5799999237061
7.3866171,-10.6999998092651
7.4022421,-10.6400003433228
7.4178671,-10.4399995803833
7.4334921,-10.210000038147
7.4491171,-10.0299997329712
7.4647421,-9.89999961853027
7.4803671,-9.81999969482422
7.4959921,-9.75
7.5116171,-9.59000015258789
7.5272421,-9.19999980926514
7.5428671,-8.55000019073486
7.5584921,-7.78000020980835
7.5741171,-7.03000020980835
7.5897421,-6.40999984741211
7.6053671,-5.92999982833862
7.6209921,-5.55000019073486
7.6366171,-5.15000009536743
7.6522421,-4.44000005722046
7.6678671,-3.02999997138977
7.6834921,-0.649999976158142
7.6991171,2.61999988555908
7.7147421,6.44999980926514
7.7303671,10.3100004196167
7.7459921,13.6199998855591
7.7616171,16.0100002288818
7.7772421,17.5200004577637
7.7928671,18.5
7.8084921,19.3199996948242
7.8241171,20.1800003051758
7.8397421,21.0400009155273
7.8553671,21.7099990844727
7.8709921,22.0
7.8866171,21.7700004577637
7.9022421,20.9799995422363
7.9178671,19.6599998474121
7.9334921,17.9699993133545
7.9491171,16.1800003051758
7.9647421,14.539999961853
7.9803671,13.1800003051758
7.9959921,11.9499998092651
8.0116171,10.6599998474121
8.0272421,9.27000045776367
8.0428671,7.84000015258789
8.0584921,6.36999988555908
8.0741171,4.80999994277954
8.0897421,3.17000007629395
8.1053671,1.49000000953674
8.1209921,-0.200000002980232
8.1366171,-1.89999997615814
8.1522421,-3.51999998092651
8.1678671,-4.94000005722046
8.1834921,-6.1100001335144
8.1991171,-7.1100001335144
8.2147421,-8.02000045776367
8.2303671,-8.90999984741211
8.2459921,-9.75
8.2616171,-10.4700002670288
8.2772421,-11.0100002288818
8.2928671,-11.4399995803833
8.3084921,-11.8400001525879
8.3241171,-12.1000003814697
8.3397421,-11.8699998855591
8.3553671,-10.75
8.3709921,-8.63000011444092
8.3866171,-5.80999994277954
8.4022421,-2.79999995231628
8.4178671,-0.100000001490116
8.4334921,1.99000000953674
8.4491171,3.42000007629395
8.4647421,4.30999994277954
8.4803671,4.86999988555908
8.4959921,5.34000015258789
8.5116171,5.8600001335144
8.5272421,6.51000022888184
8.5428671,7.21999979019165
8.5584921,7.71000003814697
8.5741171,7.71000003814697
8.5897421,7.09999990463257
8.6053671,5.94999980926514
8.6209921,4.42000007629395
8.6366171,2.75
8.6522421,1.16999995708466
8.6678671,-0.189999997615814
8.6834921,-1.3400000333786
8.6991171,-2.32999992370605
8.7147421,-3.26999998092651
8.7303671,-4.25
8.7459921,-5.21000003814697
8.7616171,-6.07999992370605
8.7772421,-6.86999988555908
8.7928671,-7.63000011444092
8.8084921,-8.40999984741211
8.8241171,-9.21000003814697
8.8397421,-10.0
8.8553671,-10.7799997329712
8.8709921,-11.4799995422363
8.8866171,-12.0699996948242
8.9022421,-12.5699996948242
8.9178671,-13.0100002288818
8.9334921,-13.3500003814697
8.9491171,-13.4399995803833
8.9647421,-13.3100004196167
8.9803671,-13.1499996185303
8.9959921,-13.210000038147
9.0116171,-13.4499998092651
9.0272421,-13.6700000762939
9.0428671,-13.6400003433228
9.0584921,-13.3000001907349
9.0741171,-12.7799997329712
9.0897421,-12.2399997711182
9.1053671,-11.710000038147
9.1209921,-11.0500001907349
9.1366171,-10.1800003051758
9.1522421,-9.18000030517578
9.1678671,-8.15999984741211
9.1834921,-7.01000022888184
9.1991171,-5.44999980926514
9.2147421,-3.22000002861023
9.2303671,-0.109999999403954
9.2459921,3.80999994277954
9.2616171,8.07999992370605
9.2772421,12.0200004577637
9.2928671,15.0900001525879
9.3084921,17.1599998474121
9.3241171,18.5200004577637
9.3397421,19.7700004577637
9.3553671,21.3500003814697
9.3709921,23.3400001525879
9.3866171,25.4200000762939
9.4022421,27.1100006103516
9.4178671,27.9500007629395
9.4334921,27.7600002288818
9.4491171,26.6100006103516
9.4647421,24.7299995422363
9.4803671,22.3899993896484
9.4959921,19.9500007629395
9.5116171,17.7399997711182
9.5272421,15.8599996566772
9.5428671,14.1899995803833
9.5584921,12.5699996948242
9.5741171,10.8699998855591
9.5897421,9.02999973297119
9.6053671,7.03999996185303
9.6209921,4.96000003814697
9.6366171,2.88000011444092
9.6522421,0.850000023841858
9.6678671,-1.08000004291534
9.6834921,-2.98000001907349
9.6991171,-4.86999988555908
9.7147421,-6.71000003814697
9.7303671,-8.44999980926514
9.7459921,-10.0500001907349
9.7616171,-11.5500001907349
9.7772421,-12.9300003051758
9.7928671,-14.1099996566772
9.8084921,-15.1000003814697
9.8241171,-15.9300003051758
9.8397421,-16.5799999237061
9.8553671,-16.9400005340576
9.8709921,-16.8099994659424
9.8866171,-15.9499998092651
9.9022421,-14.25
9.9178671,-11.7700004577637
9.9334921,-8.77000045776367
9.9491171,-5.65000009536743
9.9647421,-2.72000002861023
9.9803671,-0.189999997615814
9.9959921,1.91999995708466
10.0116171,3.61999988555908
10.0272421,4.96000003814697
10.0428671,5.96999979019165
10.0584921,6.6399998664856
10.0741171,6.96000003814697
10.0897421,6.92000007629395
10.1053671,6.53999996185303
10.1209921,5.76000022888184
10.1366171,4.55000019073486
10.1522421,2.9300000667572
10.1678671,1.08000004291534
10.1834921,-0.709999978542328
10.1991171,-2.20000004768372
10.2147421,-3.26999998092651
10.2303671,-4.01999998092651
10.2459921,-4.76000022888184
10.2616171,-5.76000022888184
10.2772421,-7.11999988555908
10.2928671,-8.67000007629395
10.3084921,-10.1400003433228
10.3241171,-11.3400001525879
10.3397421,-12.25
10.3553671,-12.9799995422363
10.3709921,-13.6499996185303
10.3866171,-14.3400001525879
10.4022421,-14.9799995422363
10.4178671,-15.4499998092651
10.4334921,-15.6199998855591
10.4491171,-15.5200004577637
10.4647421,-15.2700004577637
10.4803671,-15.0799999237061
10.4959921,-14.9899997711182
10.5116171,-14.9300003051758
10.5272421,-14.7399997711182
10.5428671,-14.3299999237061
10.5584921,-13.7200002670288
10.5741171,-13.0
10.5897421,-12.2200002670288
10.6053671,-11.4200000762939
10.6209921,-10.6400003433228
10.6366171,-9.89999961853027
10.6522421,-9.06999969482422
10.6678671,-7.90000009536743
10.6834921,-6.11999988555908
10.6991171,-3.5
10.7147421,0.0700000002980232
10.7303671,4.51000022888184
10.7459921,9.36999988555908
10.7616171,14.0100002288818
10.7772421,17.8500003814697
10.7928671,20.6399993896484
10.8084921,22.5799999237061
10.8241171,24.1200008392334
10.8397421,25.7800006866455
10.8553671,27.7999992370605
10.8709921,29.9699993133545
10.8866171,31.7299995422363
10.9022421,32.5099983215332
10.9178671,32.0
10.9334921,30.2900009155273
10.9491171,27.7999992370605
10.9647421,25.0900001525879
10.9803671,22.6700000762939
10.9959921,20.7299995422363
11.0116171,19.1399993896484
11.0272421,17.4699993133545
11.0428671,15.2700004577637
11.0584921,12.4099998474121
11.0741171,9.17000007629395
11.0897421,6.01000022888184
11.1053671,3.19000005722046
11.1209921,0.759999990463257
11.1366171,-1.36000001430511
11.1522421,-3.29999995231628
11.1678671,-5.11999988555908
11.1834921,-6.80999994277954
11.1991171,-8.30000019073486
11.2147421,-9.59000015258789
11.2303671,-10.9300003051758
11.2459921,-12.5900001525879
11.2616171,-14.6300001144409
11.2772421,-16.9200000762939
11.2928671,-19.1299991607666
11.3084921,-20.7299995422363
11.3241171,-21.2000007629395
11.3397421,-20.3500003814697
11.3553671,-18.4200000762939
11.3709921,-15.9099998474121
11.3866171,-13.2399997711182
11.4022421,-10.6599998474121
11.4178671,-8.1899995803833
11.4334921,-5.80999994277954
11.4491171,-3.50999999046326
11.4647421,-1.24000000953674
11.4803671,1.00999999046326
11.4959921,3.19000005722046
11.5116171,5.11999988555908
