Time(s),Value(%)
551.0047644,-2.11999988555908
551.0203894,-10.1700000762939
551.0360144,-16.6200008392334
551.0516394,-20.8400001525879
551.0672644,-22.8799991607666
551.0828894,-23.4500007629395
551.0985144,-23.5100002288818
551.1141394,-23.7299995422363
551.1297644,-24.3799991607666
551.1453894,-25.5100002288818
551.1610144,-27.1000003814697
551.1766394,-28.75
551.1922644,-29.8199996948242
551.2078894,-29.9200000762939
551.2235144,-29.2600002288818
551.2391394,-28.2399997711182
551.2547644,-27.1399993896484
551.2703894,-26.2099990844727
551.2860144,-25.7299995422363
551.3016394,-25.5799999237061
551.3172644,-24.8799991607666
551.3328894,-22.1100006103516
551.3485144,-15.7600002288818
551.3641394,-5.25
551.3797644,8.52999973297119
551.3953894,23.5699996948242
551.4110144,37.439998626709
551.4266394,48.060001373291
551.4422644,54.1100006103516
551.4578894,55.4300003051758
551.4735144,53.0900001525879
551.4891394,48.7700004577637
551.5047644,43.8300018310547
551.5203894,38.5400009155273
551.5360144,32.310001373291
551.5516394,24.5
551.5672644,15.3199996948242
551.5828894,5.98999977111816
551.5985144,-1.89999997615814
551.6141394,-7.48000001907349
551.6297644,-10.8599996566772
551.6453894,-12.8599996566772
551.6610144,-14.3100004196167
551.6766394,-15.789999961853
551.6922644,-17.4400005340576
551.7078894,-18.9599990844727
551.7235144,-19.8799991607666
551.7391394,-20.1100006103516
551.7547644,-20.2800006866455
551.7703894,-21.3400001525879
551.7860144,-23.7199993133545
551.8016394,-26.9500007629395
551.8172644,-29.9699993133545
551.8328894,-31.7399997711182
551.8485144,-31.8999996185303
551.8641394,-30.8299999237061
551.8797644,-29.1100006103516
551.8953894,-27.1599998474121
551.9110144,-24.9699993133545
551.9266394,-22.0
551.9422644,-17.2099990844727
551.9578894,-9.75
551.9735144,0.280000001192093
551.9891394,11.8900003433228
552.0047644,23.8700008392334
552.0203894,35.25
552.0360144,44.9099998474121
552.0516394,51.4199981689453
552.0672644,53.75
552.0828894,52.2200012207031
552.0985144,48.4099998474121
552.1141394,43.939998626709
552.1297644,39.5200004577637
552.1453894,34.6599998474121
552.1610144,28.3500003814697
552.1766394,20.0900001525879
552.1922644,10.3900003433228
552.2078894,0.600000023841858
552.2235144,-7.8600001335144
552.2391394,-14.2600002288818
552.2547644,-18.8099994659424
552.2703894,-22.2600002288818
552.2860144,-24.9799995422363
552.3016394,-26.6900005340576
552.3172644,-27.1499996185303
552.3328894,-26.7900009155273
552.3485144,-26.5300006866455
552.3641394,-26.8799991607666
552.3797644,-27.5599994659424
552.3953894,-27.8400001525879
552.4110144,-27.1100006103516
552.4266394,-25.3400001525879
552.4422644,-23.1900005340576
552.4578894,-21.5400009155273
552.4735144,-20.9699993133545
552.4891394,-21.5699996948242
552.5047644,-23.2099990844727
552.5203894,-25.5300006866455
552.5360144,-27.6700000762939
552.5516394,-28.0
552.5672644,-24.5499992370605
552.5828894,-16.1399993896484
552.5985144,-3.25
552.6141394,12.0299997329712
552.6297644,26.9500007629395
552.6453894,39.189998626709
552.6610144,47.5200004577637
552.6766394,51.6699981689453
552.6922644,52.1100006103516
552.7078894,49.9700012207031
552.7235144,46.6699981689453
552.7391394,43.3300018310547
552.7547644,40.1199989318848
552.7703894,36.2200012207031
552.7860144,30.3299999237061
552.8016394,21.6499996185303
552.8172644,10.6999998092651
552.8328894,-0.759999990463257
552.8485144,-10.6599998474121
552.8641394,-17.5499992370605
552.8797644,-21.1599998474121
552.8953894,-22.4799995422363
552.9110144,-23.0599994659424
552.9266394,-24.0799999237061
552.9422644,-25.9099998474121
552.9578894,-28.4200000762939
552.9735144,-31.3500003814697
552.9891394,-34.310001373291
553.0047644,-36.560001373291
553.0203894,-37.1300010681152
553.0360144,-35.5299987792969
553.0516394,-32.2400016784668
553.0672644,-28.4400005340576
553.0828894,-25.4200000762939
553.0985144,-23.9400005340576
553.1141394,-24.0
553.1297644,-24.9599990844727
553.1453894,-25.7800006866455
553.1610144,-25.1299991607666
553.1766394,-21.4899997711182
553.1922644,-13.75
553.2078894,-2.07999992370605
553.2235144,11.960000038147
553.2391394,26.2999992370605
553.2547644,39.2000007629395
553.2703894,49.4000015258789
553.2860144,55.9199981689453
553.3016394,58.1699981689453
553.3172644,56.3499984741211
553.3328894,51.5999984741211
553.3485144,45.5
553.3641394,39.3199996948242
553.3797644,33.439998626709
553.3953894,27.3400001525879
553.4110144,20.1700000762939
553.4266394,11.6999998092651
553.4422644,2.83999991416931
553.4578894,-4.73000001907349
553.4735144,-9.73999977111816
553.4891394,-12.0699996948242
553.5047644,-12.6899995803833
553.5203894,-12.6700000762939
553.5360144,-12.7799997329712
553.5516394,-13.5200004577637
553.5672644,-15.3100004196167
553.5828894,-18.3700008392334
553.5985144,-22.5599994659424
553.6141394,-27.3600006103516
553.6297644,-31.7700004577637
553.6453894,-34.5999984741211
553.6610144,-35.0200004577637
553.6766394,-33.2299995422363
553.6922644,-30.4300003051758
553.7078894,-28.1000003814697
553.7235144,-27.0400009155273
553.7391394,-26.8700008392334
553.7547644,-26.0300006866455
553.7703894,-22.4200000762939
553.7860144,-14.5100002288818
553.8016394,-2.17000007629395
553.8172644,13.1499996185303
553.8328894,28.8899993896484
553.8485144,42.3199996948242
553.8641394,51.439998626709
553.8797644,55.5800018310547
553.8953894,55.3499984741211
553.9110144,52.1300010681152
553.9266394,47.3800010681152
553.9422644,42.0400009155273
553.9578894,36.3699989318848
553.9735144,30.1399993896484
553.9891394,23.1599998474121
554.0047644,15.6400003433228
554.0203894,8.19999980926514
554.0360144,1.53999996185303
554.0516394,-3.73000001907349
554.0672644,-7.19999980926514
554.0828894,-8.81999969482422
554.0985144,-9.30000019073486
554.1141394,-9.9399995803833
554.1297644,-11.7200002670288
554.1453894,-14.6599998474121
554.1610144,-18.1299991607666
554.1766394,-21.3400001525879
554.1922644,-23.7199993133545
554.2078894,-24.9500007629395
554.2235144,-25.1599998474121
554.2391394,-24.9599990844727
554.2547644,-25.1399993896484
554.2703894,-26.2999992370605
554.2860144,-28.4400005340576
554.3016394,-30.8199996948242
554.3172644,-32.2099990844727
554.3328894,-31.3400001525879
554.3485144,-27.1900005340576
554.3641394,-19.2399997711182
554.3797644,-7.88000011444092
554.3953894,5.51000022888184
554.4110144,18.9899997711182
554.4266394,30.8600006103516
554.4422644,40.2000007629395
554.4578894,46.6100006103516
554.4735144,49.8199996948242
554.4891394,49.810001373291
554.5047644,47.2000007629395
554.5203894,43.0400009155273
554.5360144,38.1800003051758
554.5516394,32.8699989318848
554.5672644,26.7399997711182
554.5828894,19.2999992370605
554.5985144,10.5
554.6141394,1.13999998569489
554.6297644,-7.26000022888184
554.6453894,-13.2200002670288
554.6610144,-16.1800003051758
554.6766394,-16.9500007629395
554.6922644,-17.1000003814697
554.7078894,-17.8600006103516
554.7235144,-19.5300006866455
554.7391394,-21.6700000762939
554.7547644,-23.7800006866455
554.7703894,-25.5699996948242
554.7860144,-27.0400009155273
554.8016394,-28.2600002288818
554.8172644,-29.3700008392334
554.8328894,-30.4899997711182
554.8485144,-31.75
554.8641394,-33.2200012207031
554.8797644,-34.7200012207031
554.8953894,-35.5800018310547
554.9110144,-34.6199989318848
554.9266394,-30.4799995422363
554.9422644,-22.1499996185303
554.9578894,-9.65999984741211
554.9735144,5.63000011444092
554.9891394,21.6499996185303
555.0047644,36.0200004577637
555.0203894,46.7099990844727
555.0360144,52.6199989318848
555.0516394,54.0499992370605
555.0672644,52.4500007629395
555.0828894,49.7200012207031
555.0985144,47.189998626709
555.1141394,45.0900001525879
555.1297644,42.6599998474121
555.1453894,38.7599983215332
555.1610144,32.5499992370605
555.1766394,23.9699993133545
555.1922644,13.960000038147
555.2078894,4.01000022888184
555.2235144,-4.48999977111816
555.2391394,-10.8100004196167
555.2547644,-15.0100002288818
555.2703894,-17.8600006103516
555.2860144,-20.3600006103516
555.3016394,-23.25
555.3172644,-26.7000007629395
555.3328894,-30.3199996948242
555.3485144,-33.2999992370605
555.3641394,-35.060001373291
555.3797644,-35.689998626709
555.3953894,-35.939998626709
555.4110144,-36.5800018310547
555.4266394,-37.6699981689453
555.4422644,-38.5999984741211
555.4578894,-38.6300010681152
555.4735144,-37.3600006103516
555.4891394,-34.5099983215332
555.5047644,-29.4500007629395
555.5203894,-21.4099998474121
555.5360144,-10.1099996566772
555.5516394,3.76999998092651
555.5672644,18.7000007629395
555.5828894,32.7200012207031
555.5985144,44.0400009155273
555.6141394,51.6199989318848
555.6297644,55.4599990844727
555.6453894,56.4300003051758
555.6610144,55.5999984741211
555.6766394,53.7400016784668
555.6922644,51.0099983215332
555.7078894,47.1500015258789
555.7235144,41.8400001525879
555.7391394,34.9199981689453
555.7547644,26.4699993133545
555.7703894,17.0200004577637
555.7860144,7.51000022888184
555.8016394,-1.03999996185303
555.8172644,-8.02000045776367
555.8328894,-13.2299995422363
555.8485144,-16.8999996185303
555.8641394,-19.4500007629395
555.8797644,-21.25
555.8953894,-22.6700000762939
555.9110144,-24.2099990844727
555.9266394,-26.5400009155273
555.9422644,-30.0699996948242
555.9578894,-34.5900001525879
555.9735144,-39.0400009155273
555.9891394,-42.0200004577637
556.0047644,-42.7599983215332
556.0203894,-41.7400016784668
556.0360144,-40.2900009155273
556.0516394,-39.6500015258789
556.0672644,-39.9900016784668
556.0828894,-39.9900016784668
556.0985144,-37.1800003051758
556.1141394,-29.2900009155273
556.1297644,-15.8199996948242
556.1453894,1.44000005722046
556.1610144,19.2999992370605
556.1766394,34.5800018310547
556.1922644,45.3600006103516
556.2078894,51.4500007629395
556.2235144,54.0200004577637
556.2391394,54.4900016784668
556.2547644,53.6500015258789
556.2703894,51.6199989318848
556.2860144,48.1399993896484
556.3016394,42.7400016784668
556.3172644,35.0
556.3328894,24.9099998474121
556.3485144,13.3699998855591
556.3641394,2.11999988555908
556.3797644,-6.98999977111816
556.3953894,-12.960000038147
556.4110144,-15.9700002670288
556.4266394,-17.1000003814697
556.4422644,-17.6599998474121
556.4578894,-18.7800006866455
556.4735144,-21.0599994659424
556.4891394,-24.3199996948242
556.5047644,-27.5699996948242
556.5203894,-29.7700004577637
556.5360144,-30.5699996948242
556.5516394,-30.5400009155273
556.5672644,-30.7700004577637
556.5828894,-32.0999984741211
556.5985144,-34.560001373291
556.6141394,-37.4799995422363
556.6297644,-40.0099983215332
556.6453894,-41.6100006103516
556.6610144,-41.7900009155273
556.6766394,-39.5099983215332
556.6922644,-33.189998626709
556.7078894,-21.7000007629395
556.7235144,-5.55999994277954
556.7391394,13.0200004577637
556.7547644,31.1000003814697
556.7703894,46.189998626709
556.7860144,56.9000015258789
556.8016394,62.8899993896484
556.8172644,64.620002746582
556.8328894,63.2000007629395
556.8485144,60.0499992370605
556.8641394,56.2000007629395
556.8797644,51.7799987792969
556.8953894,46.1800003051758
556.9110144,38.6800003051758
556.9266394,29.1499996185303
556.9422644,18.4300003051758
556.9578894,7.98000001907349
556.9735144,-0.769999980926514
556.9891394,-7.03999996185303
557.0047644,-10.7799997329712
557.0203894,-12.7200002670288
557.0360144,-13.9399995803833
557.0516394,-15.5299997329712
557.0672644,-18.2099990844727
557.0828894,-22.1200008392334
557.0985144,-26.8099994659424
557.1141394,-31.5499992370605
557.1297644,-35.560001373291
557.1453894,-38.3600006103516
557.1610144,-39.9099998474121
557.1766394,-40.4300003051758
557.1922644,-40.0900001525879
557.2078894,-39.1399993896484
557.2235144,-38.0400009155273
557.2391394,-37.189998626709
557.2547644,-36.3600006103516
557.2703894,-34.3800010681152
557.2860144,-29.6200008392334
557.3016394,-20.9599990844727
557.3172644,-8.53999996185303
557.3328894,6.19000005722046
557.3485144,21.2999992370605
557.3641394,34.8699989318848
557.3797644,45.5299987792969
557.3953894,52.5999984741211
557.4110144,56.060001373291
557.4266394,56.4500007629395
557.4422644,54.4900016784668
557.4578894,50.9700012207031
557.4735144,46.6500015258789
557.4891394,41.9500007629395
557.5047644,36.6100006103516
557.5203894,29.7700004577637
557.5360144,20.8500003814697
557.5516394,10.4300003051758
557.5672644,0.0799999982118607
557.5828894,-8.5
557.5985144,-14.4099998474121
557.6141394,-17.5900001525879
557.6297644,-18.7099990844727
557.6453894,-18.7999992370605
557.6610144,-18.9200000762939
557.6766394,-19.8400001525879
557.6922644,-21.6599998474121
557.7078894,-23.9200000762939
557.7235144,-25.8899993896484
557.7391394,-27.0499992370605
557.7547644,-27.2999992370605
557.7703894,-26.9699993133545
557.7860144,-26.5400009155273
557.8016394,-26.4599990844727
557.8172644,-26.9699993133545
557.8328894,-27.9799995422363
557.8485144,-29.0799999237061
557.8641394,-29.2900009155273
557.8797644,-27.1100006103516
557.8953894,-21.1100006103516
557.9110144,-10.6700000762939
557.9266394,3.48000001907349
557.9422644,19.2800006866455
557.9578894,34.0499992370605
557.9735144,45.5
557.9891394,52.5699996948242
558.0047644,55.7299995422363
558.0203894,56.5400009155273
558.0360144,56.5499992370605
558.0516394,56.5299987792969
558.0672644,56.1800003051758
558.0828894,54.4099998474121
558.0985144,49.8499984741211
558.1141394,41.7200012207031
558.1297644,30.3600006103516
558.1453894,17.3500003814697
558.1610144,4.82000017166138
558.1766394,-5.51000022888184
558.1922644,-12.9099998474121
558.2078894,-17.6100006103516
558.2235144,-20.4599990844727
558.2391394,-22.4699993133545
558.2547644,-24.3299999237061
558.2703894,-26.2299995422363
558.2860144,-27.9699993133545
558.3016394,-29.1599998474121
558.3172644,-29.7600002288818
558.3328894,-30.1700000762939
558.3485144,-30.9599990844727
558.3641394,-32.4300003051758
558.3797644,-34.310001373291
558.3953894,-36.060001373291
558.4110144,-37.2200012207031
558.4266394,-37.3699989318848
558.4422644,-35.9500007629395
558.4578894,-32.3699989318848
558.4735144,-26.4300003051758
558.4891394,-18.1700000762939
558.5047644,-7.67999982833862
558.5203894,4.76999998092651
558.5360144,18.4200000762939
558.5516394,31.8600006103516
558.5672644,43.439998626709
558.5828894,51.6500015258789
558.5985144,55.6300010681152
558.6141394,55.4700012207031
558.6297644,52.2999992370605
558.6453894,47.8699989318848
558.6610144,43.7999992370605
558.6766394,40.7599983215332
558.6922644,38.0400009155273
558.7078894,34.0400009155273
558.7235144,27.3299999237061
558.7391394,17.6499996185303
558.7547644,6.1399998664856
558.7703894,-5.01000022888184
558.7860144,-13.6499996185303
558.8016394,-18.8500003814697
558.8172644,-21.2299995422363
558.8328894,-22.2199993133545
558.8485144,-23.0100002288818
558.8641394,-24.0200004577637
558.8797644,-25.1200008392334
558.8953894,-26.0400009155273
558.9110144,-26.5900001525879
558.9266394,-26.7600002288818
558.9422644,-26.7700004577637
558.9578894,-27.1100006103516
558.9735144,-28.0699996948242
558.9891394,-29.4400005340576
559.0047644,-30.6599998474121
559.0203894,-31.3299999237061
559.0360144,-31.4099998474121
559.0516394,-31.0799999237061
559.0672644,-30.3299999237061
559.0828894,-28.4799995422363
559.0985144,-24.1200008392334
559.1141394,-15.7299995422363
559.1297644,-2.77999997138977
559.1453894,13.4799995422363
559.1610144,30.3600006103516
559.1766394,44.8400001525879
559.1922644,54.7599983215332
559.2078894,59.3499984741211
559.2235144,59.0400009155273
559.2391394,55.0200004577637
559.2547644,48.939998626709
559.2703894,42.6800003051758
559.2860144,37.75
559.3016394,34.3800010681152
559.3172644,31.3600006103516
559.3328894,26.8899993896484
559.3485144,20.0
559.3641394,11.1899995803833
559.3797644,2.05999994277954
559.3953894,-5.71000003814697
559.4110144,-11.3400001525879
559.4266394,-15.1199998855591
559.4422644,-18.0400009155273
559.4578894,-21.1499996185303
559.4735144,-24.8199996948242
559.4891394,-28.5599994659424
559.5047644,-31.5599994659424
559.5203894,-33.2799987792969
559.5360144,-33.6500015258789
559.5516394,-32.9500007629395
559.5672644,-31.5799999237061
559.5828894,-29.9099998474121
559.5985144,-28.2900009155273
559.6141394,-27.1800003051758
559.6297644,-27.0799999237061
559.6453894,-28.0300006866455
559.6610144,-29.3500003814697
559.6766394,-29.9099998474121
559.6922644,-28.5200004577637
559.7078894,-24.0900001525879
559.7235144,-15.8599996566772
559.7391394,-3.90000009536743
559.7547644,10.6400003433228
559.7703894,26.0
559.7860144,40.0
559.8016394,50.560001373291
559.8172644,56.2999992370605
559.8328894,57.1699981689453
559.8485144,54.4500007629395
559.8641394,49.9500007629395
559.8797644,45.0800018310547
559.8953894,40.2599983215332
559.9110144,35.0499992370605
559.9266394,28.7399997711182
559.9422644,21.0699996948242
559.9578894,12.4700002670288
559.9735144,3.78999996185303
559.9891394,-4.07999992370605
560.0047644,-10.3900003433228
560.0203894,-14.6899995803833
560.0360144,-17.2299995422363
560.0516394,-18.8500003814697
560.0672644,-20.5400009155273
560.0828894,-22.8700008392334
560.0985144,-25.8700008392334
560.1141394,-28.9400005340576
560.1297644,-31.1800003051758
560.1453894,-31.9300003051758
560.1610144,-31.1599998474121
560.1766394,-29.3299999237061
560.1922644,-27.0699996948242
560.2078894,-25.0100002288818
560.2235144,-23.7299995422363
560.2391394,-23.5799999237061
560.2547644,-24.3999996185303
560.2703894,-25.5900001525879
560.2860144,-26.4699993133545
560.3016394,-26.4500007629395
560.3172644,-24.6599998474121
560.3328894,-19.7099990844727
560.3485144,-10.4700002670288
560.3641394,2.67000007629395
560.3797644,17.6499996185303
560.3953894,31.6100006103516
560.4110144,42.2000007629395
560.4266394,48.3300018310547
560.4422644,50.1699981689453
560.4578894,48.8600006103516
560.4735144,45.7200012207031
560.4891394,41.6699981689453
560.5047644,37.1300010681152
560.5203894,32.0999984741211
560.5360144,26.25
560.5516394,19.2299995422363
560.5672644,10.9899997711182
560.5828894,2.05999994277954
560.5985144,-6.5
560.6141394,-13.4200000762939
560.6297644,-17.7900009155273
560.6453894,-19.6200008392334
560.6610144,-19.8799991607666
560.6766394,-20.1299991607666
560.6922644,-21.5599994659424
560.7078894,-24.2999992370605
560.7235144,-27.5699996948242
560.7391394,-30.3299999237061
560.7547644,-31.7099990844727
560.7703894,-31.4400005340576
560.7860144,-29.9699993133545
560.8016394,-28.0400009155273
560.8172644,-26.25
560.8328894,-24.8400001525879
560.8485144,-23.8999996185303
560.8641394,-23.4200000762939
560.8797644,-23.3500003814697
560.8953894,-23.6100006103516
560.9110144,-23.7000007629395
560.9266394,-22.4200000762939
560.9422644,-18.0799999237061
560.9578894,-9.39000034332275
560.9735144,3.69000005722046
560.9891394,19.6000003814697
561.0047644,35.2799987792969
561.0203894,47.3300018310547
561.0360144,53.6699981689453
561.0516394,54.6800003051758
561.0672644,52.5900001525879
561.0828894,49.7599983215332
561.0985144,47.3699989318848
561.1141394,45.1199989318848
561.1297644,41.8300018310547
561.1453894,36.3600006103516
561.1610144,28.3999996185303
561.1766394,18.6399993896484
561.1922644,8.39999961853027
561.2078894,-0.860000014305115
561.2235144,-7.98999977111816
561.2391394,-12.4099998474121
561.2547644,-14.2799997329712
561.2703894,-14.5500001907349
561.2860144,-14.5
561.3016394,-15.1300001144409
561.3172644,-16.75
561.3328894,-19.0499992370605
561.3485144,-21.4200000762939
561.3641394,-23.1700000762939
561.3797644,-23.8299999237061
561.3953894,-23.4400005340576
561.4110144,-22.5499992370605
561.4266394,-21.8299999237061
561.4422644,-21.7700004577637
561.4578894,-22.4200000762939
561.4735144,-23.5300006866455
561.4891394,-24.7399997711182
561.5047644,-25.6000003814697
561.5203894,-25.4699993133545
561.5360144,-23.5300006866455
561.5516394,-18.8600006103516
561.5672644,-10.75
561.5828894,0.839999973773956
561.5985144,14.789999961853
561.6141394,29.0100002288818
561.6297644,41.2799987792969
561.6453894,50.0699996948242
561.6610144,55.0200004577637
561.6766394,56.810001373291
561.6922644,56.5299987792969
561.7078894,54.8199996948242
561.7235144,51.5900001525879
