Time(s),Value(%)
892.0099667,77.4300003051758
892.0255917,72.1999969482422
892.0412167,68.2600021362305
892.0568417,66.2099990844727
892.0724667,65.6800003051758
892.0880917,65.6800003051758
892.1037167,65.2799987792969
892.1193417,64.4700012207031
892.1349667,63.5299987792969
892.1505917,62.7799987792969
892.1662167,62.3300018310547
892.1818417,62.0099983215332
892.1974667,61.4199981689453
892.2130917,60.1699981689453
892.2287167,58.2000007629395
892.2443417,55.9700012207031
892.2599667,54.3400001525879
892.2755917,54.0699996948242
892.2912167,55.4599990844727
892.3068417,58.4700012207031
892.3224667,63.0499992370605
892.3380917,68.8499984741211
892.3537167,74.7300033569336
892.3693417,79.0400009155273
892.3849667,80.4000015258789
892.4005917,78.4700012207031
892.4162167,73.9599990844727
892.4318417,68.2200012207031
892.4474667,62.3499984741211
892.4630917,56.2799987792969
892.4787167,48.5699996948242
892.4943417,37.5099983215332
892.5099667,22.3600006103516
892.5255917,2.97000002861023
892.5412167,-21.1100006103516
892.5568417,-50.3600006103516
892.5724667,-83.75
892.5880917,-117.860000610352
892.6037167,-147.990005493164
892.6193417,-171.800003051758
892.6349667,-191.779998779297
892.6505917,-212.419998168945
892.6662167,-235.419998168945
892.6818417,-258.519989013672
892.6974667,-278.230010986328
892.7130917,-292.450012207031
892.7287167,-301.429992675781
892.7443417,-307.100006103516
892.7599667,-311.899993896484
892.7755917,-317.559997558594
892.7912167,-324.649993896484
892.8068417,-327.679992675781
892.8224667,-327.679992675781
892.8380917,-327.679992675781
892.8537167,-327.679992675781
892.8693417,-327.679992675781
892.8849667,-327.679992675781
892.9005917,-327.679992675781
892.9162167,-327.679992675781
892.9318417,-327.679992675781
892.9474667,-319.989990234375
892.9630917,-290.739990234375
892.9787167,-261.480010986328
892.9943417,-232.259994506836
893.0099667,-203.169998168945
893.0255917,-174.649993896484
893.0412167,-147.399993896484
893.0568417,-122.029998779297
893.0724667,-98.8000030517578
893.0880917,-77.879997253418
893.1037167,-59.0800018310547
893.1193417,-43.7299995422363
893.1349667,-31.3700008392334
893.1505917,-20.2399997711182
893.1662167,-7.6399998664856
893.1818417,8.39000034332275
893.1974667,27.7199993133545
893.2130917,48.6199989318848
893.2287167,69.5800018310547
893.2443417,90.0
893.2599667,109.900001525879
893.2755917,129.360000610352
893.2912167,148.220001220703
893.3068417,166.160003662109
893.3224667,182.820007324219
893.3380917,197.990005493164
893.3537167,211.649993896484
893.3693417,223.820007324219
893.3849667,234.449996948242
893.4005917,243.429992675781
893.4162167,250.949996948242
893.4318417,257.700012207031
893.4474667,264.809997558594
893.4630917,273.179992675781
893.4787167,282.820007324219
893.4943417,293.0
893.5099667,302.899993896484
893.5255917,311.910003662109
893.5412167,319.630004882813
893.5568417,325.790008544922
893.5724667,327.670013427734
893.5880917,327.670013427734
893.6037167,327.670013427734
893.6193417,327.670013427734
893.6349667,327.670013427734
893.6505917,327.670013427734
893.6662167,327.670013427734
893.6818417,327.670013427734
893.6974667,327.670013427734
893.7130917,327.670013427734
893.7287167,327.670013427734
893.7443417,327.670013427734
893.7599667,327.670013427734
893.7755917,327.670013427734
893.7912167,327.670013427734
893.8068417,327.670013427734
893.8224667,327.670013427734
893.8380917,327.670013427734
893.8537167,327.670013427734
893.8693417,327.670013427734
893.8849667,322.739990234375
893.9005917,317.5
893.9162167,312.559997558594
893.9318417,307.579986572266
893.9474667,302.320007324219
893.9630917,296.739990234375
893.9787167,290.950012207031
893.9943417,285.019989013672
894.0099667,278.950012207031
894.0255917,272.609985351563
894.0412167,265.779998779297
894.0568417,258.299987792969
894.0724667,250.100006103516
894.0880917,241.149993896484
894.1037167,227.110000610352
894.1193417,212.649993896484
894.1349667,197.889999389648
894.1505917,183.289993286133
894.1662167,169.529998779297
894.1818417,156.970001220703
894.1974667,145.360000610352
894.2130917,134.199996948242
894.2287167,123.269996643066
894.2443417,112.769996643066
894.2599667,103.0
894.2755917,94.0599975585938
894.2912167,85.8300018310547
894.3068417,78.1399993896484
894.3224667,70.9300003051758
894.3380917,64.2099990844727
894.3537167,57.939998626709
894.3693417,52.0400009155273
894.3849667,46.310001373291
894.4005917,40.5999984741211
894.4162167,34.8600006103516
894.4318417,29.1900005340576
894.4474667,23.8700008392334
894.4630917,19.1700000762939
894.4787167,15.1800003051758
894.4943417,11.8000001907349
894.5099667,8.77000045776367
894.5255917,5.82000017166138
894.5412167,2.79999995231628
894.5568417,-0.379999995231628
894.5724667,-3.69000005722046
894.5880917,-7.03000020980835
894.6037167,-10.1899995803833
894.6193417,-13.0299997329712
894.6349667,-15.4899997711182
894.6505917,-17.5699996948242
894.6662167,-19.1499996185303
894.6818417,-20.1200008392334
894.6974667,-20.5400009155273
894.7130917,-20.7600002288818
894.7287167,-21.1700000762939
894.7443417,-21.7999992370605
894.7599667,-22.0300006866455
894.7755917,-21.1299991607666
894.7912167,-19.0100002288818
894.8068417,-16.3199996948242
894.8224667,-13.9399995803833
894.8380917,-12.4799995422363
894.8537167,-11.8699998855591
894.8693417,-11.0500001907349
894.8849667,-8.01000022888184
894.9005917,-0.959999978542328
894.9162167,10.4099998474121
894.9318417,25.1800003051758
894.9474667,42.060001373291
894.9630917,60.0299987792969
894.9787167,77.9800033569336
894.9943417,93.879997253418
895.0099667,104.720001220703
895.0255917,108.279998779297
895.0412167,104.959999084473
895.0568417,97.1999969482422
895.0724667,87.4599990844727
895.0880917,77.0299987792969
895.1037167,64.9499969482422
895.1193417,52.9599990844727
895.1349667,41.1599998474121
895.1505917,30.1000003814697
895.1662167,20.7099990844727
895.1818417,13.7799997329712
895.1974667,9.42000007629395
895.2130917,7.32999992370605
895.2287167,7.32000017166138
895.2443417,9.28999996185303
895.2599667,12.6899995803833
895.2755917,16.0300006866455
895.2912167,17.1900005340576
895.3068417,14.710000038147
895.3224667,8.93000030517578
895.3380917,1.3400000333786
895.3537167,-6.8600001335144
895.3693417,-15.3999996185303
895.3849667,-24.3799991607666
895.4005917,-33.8699989318848
895.4162167,-43.5200004577637
895.4318417,-52.3699989318848
895.4474667,-58.9900016784668
895.4630917,-62.2099990844727
895.4787167,-61.8400001525879
895.4943417,-58.3300018310547
895.5099667,-51.9700012207031
895.5255917,-42.8899993896484
895.5412167,-31.8299999237061
895.5568417,-20.75
895.5724667,-12.6000003814697
895.5880917,-9.59000015258789
895.6037167,-11.7700004577637
895.6193417,-17.6200008392334
895.6349667,-25.7000007629395
895.6505917,-35.1599998474121
895.6662167,-45.1500015258789
895.6818417,-54.7200012207031
895.6974667,-63.1800003051758
895.7130917,-70.6600036621094
895.7287167,-78.0100021362305
895.7443417,-85.9599990844727
895.7599667,-94.370002746582
895.7755917,-102.610000610352
895.7912167,-110.389999389648
895.8068417,-117.98999786377
895.8224667,-125.839996337891
895.8380917,-134.089996337891
895.8537167,-142.539993286133
895.8693417,-150.860000610352
895.8849667,-158.820007324219
895.9005917,-166.309997558594
895.9162167,-173.350006103516
895.9318417,-179.839996337891
895.9474667,-185.580001831055
895.9630917,-190.339996337891
895.9787167,-194.139999389648
895.9943417,-197.419998168945
896.0099667,-200.979995727539
896.0255917,-205.360000610352
896.0412167,-210.320007324219
896.0568417,-215.139999389648
896.0724667,-219.240005493164
896.0880917,-222.490005493164
896.1037167,-234.009994506836
896.1193417,-244.839996337891
896.1349667,-255.050003051758
896.1505917,-264.089996337891
896.1662167,-270.739990234375
896.1818417,-273.760009765625
896.1974667,-272.779998779297
896.2130917,-268.5
896.2287167,-262.200012207031
896.2443417,-255.020004272461
896.2599667,-247.889999389648
896.2755917,-242.0
896.2912167,-239.119995117188
896.3068417,-240.820007324219
896.3224667,-247.220001220703
896.3380917,-256.839996337891
896.3537167,-267.559997558594
896.3693417,-277.660003662109
896.3849667,-286.279998779297
896.4005917,-293.309997558594
896.4162167,-299.070007324219
896.4318417,-303.839996337891
896.4474667,-307.609985351563
896.4630917,-310.179992675781
896.4787167,-311.459991455078
896.4943417,-311.559997558594
896.5099667,-310.799987792969
896.5255917,-309.540008544922
896.5412167,-308.019989013672
896.5568417,-306.450012207031
896.5724667,-305.119995117188
896.5880917,-304.350006103516
896.6037167,-304.299987792969
896.6193417,-304.790008544922
896.6349667,-305.350006103516
896.6505917,-305.390014648438
896.6662167,-304.510009765625
896.6818417,-302.559997558594
896.6974667,-299.600006103516
896.7130917,-295.440002441406
896.7287167,-289.549987792969
896.7443417,-281.359985351563
896.7599667,-270.720001220703
896.7755917,-257.779998779297
896.7912167,-242.619995117188
896.8068417,-225.240005493164
896.8224667,-206.070007324219
896.8380917,-186.149993896484
896.8537167,-167.0
896.8693417,-149.929992675781
896.8849667,-135.559997558594
896.9005917,-123.970001220703
896.9162167,-115.129997253418
896.9318417,-108.919998168945
896.9474667,-104.809997558594
896.9630917,-101.879997253418
896.9787167,-99.1600036621094
896.9943417,-96.0500030517578
897.0099667,-92.4800033569336
897.0255917,-88.7099990844727
897.0412167,-85.0100021362305
897.0568417,-81.4800033569336
897.0724667,-78.0500030517578
897.0880917,-74.5899963378906
897.1037167,-72.9800033569336
897.1193417,-70.4800033569336
897.1349667,-66.6699981689453
897.1505917,-61.3600006103516
897.1662167,-54.9000015258789
897.1818417,-47.9900016784668
897.1974667,-41.1800003051758
897.2130917,-34.560001373291
897.2287167,-27.8799991607666
897.2443417,-20.7999992370605
897.2599667,-13.1599998474121
897.2755917,-5.17999982833862
897.2912167,2.48000001907349
897.3068417,9.19999980926514
897.3224667,14.7299995422363
897.3380917,19.3199996948242
897.3537167,23.4200000762939
897.3693417,27.4099998474121
897.3849667,31.6900005340576
897.4005917,36.9500007629395
897.4162167,44.3600006103516
897.4318417,55.3600006103516
897.4474667,70.9800033569336
897.4630917,91.2900009155273
897.4787167,115.269996643066
897.4943417,141.179992675781
897.5099667,167.25
897.5255917,192.229995727539
897.5412167,215.410003662109
897.5568417,235.979995727539
897.5724667,252.490005493164
897.5880917,263.649993896484
897.6037167,269.309997558594
897.6193417,270.350006103516
897.6349667,267.720001220703
897.6505917,262.160003662109
897.6662167,254.570007324219
897.6818417,246.479995727539
897.6974667,239.770004272461
897.7130917,235.570007324219
897.7287167,233.559997558594
897.7443417,232.759994506836
897.7599667,232.970001220703
897.7755917,234.889999389648
897.7912167,239.169998168945
897.8068417,245.669998168945
897.8224667,253.449996948242
897.8380917,260.989990234375
897.8537167,266.570007324219
897.8693417,269.029998779297
897.8849667,268.369995117188
897.9005917,265.660003662109
897.9162167,262.359985351563
897.9318417,259.640014648438
897.9474667,258.019989013672
897.9630917,257.459991455078
897.9787167,257.690002441406
897.9943417,258.390014648438
898.0099667,259.339996337891
898.0255917,260.339996337891
898.0412167,261.140014648438
898.0568417,261.570007324219
898.0724667,261.799987792969
898.0880917,262.890014648438
898.1037167,272.339996337891
898.1193417,286.510009765625
898.1349667,306.029998779297
898.1505917,327.670013427734
898.1662167,327.670013427734
898.1818417,327.670013427734
898.1974667,327.670013427734
898.2130917,327.670013427734
898.2287167,327.670013427734
898.2443417,327.670013427734
898.2599667,327.670013427734
898.2755917,327.670013427734
898.2912167,327.670013427734
898.3068417,327.670013427734
898.3224667,327.670013427734
898.3380917,327.670013427734
898.3537167,327.670013427734
898.3693417,327.670013427734
898.3849667,327.670013427734
898.4005917,327.670013427734
898.4162167,327.670013427734
898.4318417,327.670013427734
898.4474667,327.670013427734
898.4630917,327.670013427734
898.4787167,327.670013427734
898.4943417,327.670013427734
898.5099667,327.670013427734
898.5255917,327.670013427734
898.5412167,327.670013427734
898.5568417,327.670013427734
898.5724667,327.670013427734
898.5880917,327.670013427734
898.6037167,327.670013427734
898.6193417,327.670013427734
898.6349667,327.670013427734
898.6505917,327.670013427734
898.6662167,327.670013427734
898.6818417,327.670013427734
898.6974667,327.670013427734
898.7130917,327.670013427734
898.7287167,327.670013427734
898.7443417,327.670013427734
898.7599667,327.670013427734
898.7755917,327.670013427734
898.7912167,327.670013427734
898.8068417,327.670013427734
898.8224667,327.670013427734
898.8380917,327.670013427734
898.8537167,327.670013427734
898.8693417,327.670013427734
898.8849667,327.670013427734
898.9005917,327.670013427734
898.9162167,327.670013427734
898.9318417,327.670013427734
898.9474667,327.670013427734
898.9630917,327.670013427734
898.9787167,327.670013427734
898.9943417,327.670013427734
899.0099667,327.670013427734
899.0255917,327.670013427734
899.0412167,327.670013427734
899.0568417,327.670013427734
899.0724667,319.450012207031
899.0880917,301.029998779297
899.1037167,279.950012207031
899.1193417,261.869995117188
899.1349667,246.25
899.1505917,231.770004272461
899.1662167,217.449996948242
899.1818417,202.830001831055
899.1974667,187.550003051758
899.2130917,171.25
899.2287167,154.020004272461
899.2443417,136.690002441406
899.2599667,120.559997558594
899.2755917,106.660003662109
899.2912167,95.0800018310547
899.3068417,85.3199996948242
899.3224667,77.0299987792969
899.3380917,70.1699981689453
899.3537167,64.6600036621094
899.3693417,60.1599998474121
899.3849667,56.2200012207031
899.4005917,52.7200012207031
899.4162167,50.1500015258789
899.4318417,49.1399993896484
899.4474667,49.810001373291
899.4630917,51.4500007629395
899.4787167,52.8300018310547
899.4943417,52.8499984741211
899.5099667,51.0099983215332
899.5255917,47.3199996948242
899.5412167,41.9199981689453
899.5568417,34.8600006103516
899.5724667,26.2199993133545
899.5880917,16.3799991607666
899.6037167,6.15999984741211
899.6193417,-3.54999995231628
899.6349667,-12.2299995422363
899.6505917,-19.8400001525879
899.6662167,-26.7600002288818
899.6818417,-33.4099998474121
899.6974667,-40.0900001525879
899.7130917,-46.8600006103516
899.7287167,-53.7000007629395
899.7443417,-60.7000007629395
899.7599667,-68.1500015258789
899.7755917,-76.4000015258789
899.7912167,-85.4700012207031
899.8068417,-94.9499969482422
899.8224667,-104.160003662109
899.8380917,-112.680000305176
899.8537167,-120.699996948242
899.8693417,-128.610000610352
899.8849667,-136.520004272461
899.9005917,-144.070007324219
899.9162167,-150.880004882813
899.9318417,-156.789993286133
899.9474667,-161.860000610352
899.9630917,-165.899993896484
899.9787167,-168.220001220703
899.9943417,-168.100006103516
900.0099667,-165.399993896484
900.0255917,-160.639999389648
900.0412167,-154.5
900.0568417,-147.539993286133
900.0724667,-140.289993286133
900.0880917,-133.449996948242
900.1037167,-125.610000610352
900.1193417,-120.029998779297
900.1349667,-116.809997558594
900.1505917,-115.680000305176
900.1662167,-116.300003051758
900.1818417,-118.319999694824
900.1974667,-121.330001831055
900.2130917,-124.819999694824
900.2287167,-128.339996337891
900.2443417,-131.570007324219
900.2599667,-134.360000610352
900.2755917,-136.740005493164
900.2912167,-138.800003051758
900.3068417,-140.699996948242
900.3224667,-142.529998779297
900.3380917,-144.350006103516
900.3537167,-146.160003662109
900.3693417,-147.889999389648
900.3849667,-149.490005493164
900.4005917,-150.979995727539
900.4162167,-152.550003051758
900.4318417,-154.380004882813
900.4474667,-156.539993286133
900.4630917,-158.880004882813
900.4787167,-161.199996948242
900.4943417,-163.309997558594
900.5099667,-165.119995117188
900.5255917,-166.720001220703
900.5412167,-168.279998779297
900.5568417,-170.0
900.5724667,-171.830001831055
900.5880917,-173.300003051758
900.6037167,-173.490005493164
900.6193417,-171.589996337891
900.6349667,-167.440002441406
900.6505917,-161.529998779297
900.6662167,-154.520004272461
900.6818417,-146.75
900.6974667,-138.220001220703
900.7130917,-129.119995117188
900.7287167,-120.290000915527
900.7443417,-112.889999389648
900.7599667,-107.650001525879
900.7755917,-104.480003356934
900.7912167,-102.699996948242
900.8068417,-101.709999084473
900.8224667,-101.370002746582
900.8380917,-101.849998474121
900.8537167,-103.150001525879
900.8693417,-104.959999084473
900.8849667,-106.779998779297
900.9005917,-108.230003356934
900.9162167,-109.169998168945
900.9318417,-109.669998168945
900.9474667,-109.900001525879
900.9630917,-109.959999084473
900.9787167,-109.76000213623
900.9943417,-109.129997253418
901.0099667,-108.019996643066
901.0255917,-106.540000915527
901.0412167,-104.930000305176
901.0568417,-103.400001525879
901.0724667,-102.110000610352
901.0880917,-101.169998168945
901.1037167,-98.8300018310547
901.1193417,-97.370002746582
901.1349667,-96.7900009155273
901.1505917,-96.879997253418
901.1662167,-97.25
901.1818417,-97.5199966430664
901.1974667,-97.4800033569336
901.2130917,-97.0800018310547
901.2287167,-96.2900009155273
901.2443417,-94.7200012207031
901.2599667,-91.4499969482422
901.2755917,-85.629997253418
901.2912167,-77.2099990844727
901.3068417,-66.8899993896484
901.3224667,-55.5900001525879
901.3380917,-44.0099983215332
901.3537167,-32.7700004577637
901.3693417,-22.6399993896484
901.3849667,-14.6899995803833
901.4005917,-9.77000045776367
901.4162167,-7.96999979019165
901.4318417,-8.63000011444092
901.4474667,-10.9200000762939
901.4630917,-14.1199998855591
901.4787167,-17.7099990844727
901.4943417,-21.3400001525879
901.5099667,-24.7399997711182
901.5255917,-27.6399993896484
901.5412167,-29.7399997711182
901.5568417,-30.8199996948242
901.5724667,-30.9099998474121
901.5880917,-30.2700004577637
901.6037167,-29.2199993133545
901.6193417,-28.0100002288818
901.6349667,-26.8199996948242
901.6505917,-25.8299999237061
901.6662167,-25.3199996948242
901.6818417,-25.5300006866455
901.6974667,-26.5400009155273
901.7130917,-28.2000007629395
901.7287167,-30.2299995422363
901.7443417,-32.4000015258789
901.7599667,-34.5099983215332
901.7755917,-36.4199981689453
901.7912167,-38.0999984741211
901.8068417,-39.4799995422363
901.8224667,-40.5
901.8380917,-41.0800018310547
901.8537167,-41.1599998474121
901.8693417,-40.439998626709
901.8849667,-38.2700004577637
901.9005917,-34.0400009155273
901.9162167,-27.7700004577637
901.9318417,-20.1599998474121
901.9474667,-12.2299995422363
901.9630917,-4.71000003814697
901.9787167,2.20000004768372
901.9943417,8.47000026702881
902.0099667,13.6400003433228
902.0255917,17.0499992370605
902.0412167,18.4200000762939
902.0568417,18.1200008392334
902.0724667,16.8999996185303
902.0880917,15.3599996566772
902.1037167,13.7799997329712
902.1193417,11.8000001907349
902.1349667,9.26000022888184
902.1505917,6.26999998092651
902.1662167,3.26999998092651
902.1818417,0.689999997615814
902.1974667,-1.19000005722046
902.2130917,-2.44000005722046
902.2287167,-3.26999998092651
902.2443417,-3.9300000667572
902.2599667,-4.59000015258789
902.2755917,-5.3600001335144
902.2912167,-6.38000011444092
902.3068417,-7.71999979019165
902.3224667,-9.38000011444092
902.3380917,-11.210000038147
902.3537167,-13.039999961853
902.3693417,-14.8299999237061
902.3849667,-16.7199993133545
902.4005917,-18.8899993896484
902.4162167,-21.4200000762939
902.4318417,-24.1800003051758
902.4474667,-26.9500007629395
902.4630917,-29.5200004577637
902.4787167,-31.7199993133545
902.4943417,-33.4599990844727
902.5099667,-34.4900016784668
902.5255917,-34.310001373291
902.5412167,-32.1800003051758
902.5568417,-27.5599994659424
902.5724667,-20.6299991607666
902.5880917,-12.2700004577637
902.6037167,-3.5699999332428
902.6193417,4.59000015258789
902.6349667,11.7700004577637
902.6505917,17.7299995422363
902.6662167,22.2099990844727
