Time(s),Value(%)
97.0127443,57.1100006103516
97.0283693,52.7599983215332
97.0439943,48.2799987792969
97.0596193,43.4900016784668
97.0752443,38.3899993896484
97.0908693,33.0200004577637
97.1064943,27.3199996948242
97.1221193,21.1800003051758
97.1377443,14.6700000762939
97.1533693,8.10000038146973
97.1689943,1.98000001907349
97.1846193,-3.34999990463257
97.2002443,-8.03999996185303
97.2158693,-12.3900003433228
97.2314943,-16.5
97.2471193,-20.2299995422363
97.2627443,-23.3500003814697
97.2783693,-25.8099994659424
97.2939943,-27.75
97.3096193,-29.4599990844727
97.3252443,-31.2399997711182
97.3408693,-33.3199996948242
97.3564943,-35.7099990844727
97.3721193,-38.4199981689453
97.3877443,-41.4900016784668
97.4033693,-45.0
97.4189943,-48.8600006103516
97.4346193,-52.6599998474121
97.4502443,-55.6399993896484
97.4658693,-56.9799995422363
97.4814943,-56.0800018310547
97.4971193,-52.7700004577637
97.5127443,-47.2799987792969
97.5283693,-40.3699989318848
97.5439943,-32.8499984741211
97.5596193,-25.4400005340576
97.5752443,-18.5300006866455
97.5908693,-12.0100002288818
97.6064943,-5.32999992370605
97.6221193,2.13000011444092
97.6377443,10.5699996948242
97.6533693,19.75
97.6689943,29.2299995422363
97.6846193,38.6300010681152
97.7002443,47.5900001525879
97.7158693,55.4599990844727
97.7314943,61.2400016784668
97.7471193,64.0199966430664
97.7627443,63.560001373291
97.7783693,60.4799995422363
97.7939943,55.7400016784668
97.8096193,50.3199996948242
97.8252443,44.8800010681152
97.8408693,39.7799987792969
97.8564943,35.0800018310547
97.8721193,30.6800003051758
97.8877443,26.4300003051758
97.9033693,22.2199993133545
97.9189943,17.9899997711182
97.9346193,13.6899995803833
97.9502443,9.18000030517578
97.9658693,4.32000017166138
97.9814943,-0.870000004768372
97.9971193,-6.11999988555908
98.0127443,-11.0100002288818
98.0283693,-15.3000001907349
98.0439943,-19.0900001525879
98.0596193,-22.6499996185303
98.0752443,-26.1000003814697
98.0908693,-29.2800006866455
98.1064943,-31.9799995422363
98.1221193,-34.1300010681152
98.1377443,-35.8199996948242
98.1533693,-37.25
98.1689943,-38.6599998474121
98.1846193,-40.1800003051758
98.2002443,-41.8499984741211
98.2158693,-43.7200012207031
98.2314943,-45.8800010681152
98.2471193,-48.4599990844727
98.2627443,-51.3899993896484
98.2783693,-54.3400001525879
98.2939943,-56.7099990844727
98.3096193,-58.0800018310547
98.3252443,-58.4799995422363
98.3408693,-58.25
98.3564943,-57.5999984741211
98.3721193,-56.2599983215332
98.3877443,-53.5800018310547
98.4033693,-49.0099983215332
98.4189943,-42.5699996948242
98.4346193,-34.8300018310547
98.4502443,-26.4400005340576
98.4658693,-17.5499992370605
98.4814943,-7.80000019073486
98.4971193,3.07999992370605
98.5127443,14.5600004196167
98.5283693,25.4200000762939
98.5439943,34.6300010681152
98.5596193,41.8699989318848
98.5752443,47.4900016784668
98.5908693,52.0499992370605
98.6064943,55.9099998474121
98.6221193,59.1399993896484
98.6377443,61.7099990844727
98.6533693,63.6300010681152
98.6689943,64.9599990844727
98.6846193,65.8199996948242
98.7002443,66.2900009155273
98.7158693,66.1900024414063
98.7314943,65.0500030517578
98.7471193,62.3699989318848
98.7627443,58.1100006103516
98.7783693,52.75
98.7939943,47.060001373291
98.8096193,41.7099990844727
98.8252443,37.0400009155273
98.8408693,33.0299987792969
98.8564943,29.3999996185303
98.8721193,25.7900009155273
98.8877443,21.7900009155273
98.9033693,17.1399993896484
98.9189943,11.8400001525879
98.9346193,6.05000019073486
98.9502443,-0.119999997317791
98.9658693,-6.65000009536743
98.9814943,-13.3900003433228
98.9971193,-20.0100002288818
99.0127443,-26.0200004577637
99.0283693,-31.0900001525879
99.0439943,-35.3199996948242
99.0596193,-39.0
99.0752443,-42.2999992370605
99.0908693,-45.1199989318848
99.1064943,-47.3400001525879
99.1221193,-48.939998626709
99.1377443,-50.0699996948242
99.1533693,-50.939998626709
99.1689943,-51.7599983215332
99.1846193,-52.6300010681152
99.2002443,-53.5499992370605
99.2158693,-54.4300003051758
99.2314943,-55.1199989318848
99.2471193,-55.5200004577637
99.2627443,-55.5800018310547
99.2783693,-55.2299995422363
99.2939943,-54.2000007629395
99.3096193,-51.8899993896484
99.3252443,-47.5
99.3408693,-40.5200004577637
99.3564943,-31.25
99.3721193,-20.7399997711182
99.3877443,-10.1999998092651
99.4033693,-0.540000021457672
99.4189943,7.90999984741211
99.4346193,15.2600002288818
99.4502443,21.7600002288818
99.4658693,27.6299991607666
99.4814943,33.0200004577637
99.4971193,37.9199981689453
99.5127443,42.310001373291
99.5283693,45.9900016784668
99.5439943,48.8699989318848
99.5596193,50.7099990844727
99.5752443,50.8899993896484
99.5908693,48.7999992370605
99.6064943,44.3199996948242
99.6221193,38.0200004577637
99.6377443,30.9799995422363
99.6533693,24.2900009155273
99.6689943,18.5599994659424
99.6846193,13.8699998855591
99.7002443,9.92000007629395
99.7158693,6.25
99.7314943,2.49000000953674
99.7471193,-1.50999999046326
99.7627443,-5.76999998092651
99.7783693,-10.1999998092651
99.7939943,-14.8599996566772
99.8096193,-19.8700008392334
99.8252443,-25.1900005340576
99.8408693,-30.5
99.8564943,-35.2900009155273
99.8721193,-39.2200012207031
99.8877443,-42.3699989318848
99.9033693,-45.0400009155273
99.9189943,-47.4099998474121
99.9346193,-49.3699989318848
99.9502443,-50.7799987792969
99.9658693,-51.6300010681152
99.9814943,-52.0299987792969
99.9971193,-52.2200012207031
100.0127443,-52.4500007629395
100.0283693,-52.9000015258789
100.0439943,-53.5900001525879
100.0596193,-54.5299987792969
100.0752443,-55.7900009155273
100.0908693,-57.4599990844727
100.1064943,-59.4799995422363
100.1221193,-61.4900016784668
100.1377443,-62.810001373291
100.1533693,-62.560001373291
100.1689943,-59.9199981689453
100.1846193,-54.4300003051758
100.2002443,-46.3199996948242
100.2158693,-36.3899993896484
100.2314943,-25.7600002288818
100.2471193,-15.3999996185303
100.2627443,-5.8600001335144
100.2783693,2.8199999332428
100.2939943,11.0699996948242
100.3096193,19.3299999237061
100.3252443,27.8199996948242
100.3408693,36.5
100.3564943,45.1699981689453
100.3721193,53.6500015258789
100.3877443,61.6699981689453
100.4033693,68.6500015258789
100.4189943,73.5899963378906
100.4346193,75.5400009155273
100.4502443,74.25
100.4658693,70.3099975585938
100.4814943,64.7799987792969
100.4971193,58.7000007629395
100.5127443,52.8400001525879
100.5283693,47.2900009155273
100.5439943,42.060001373291
100.5596193,37.1300010681152
100.5752443,32.6100006103516
100.5908693,28.5400009155273
100.6064943,24.7700004577637
100.6221193,21.0599994659424
100.6377443,17.2600002288818
100.6533693,13.4300003051758
100.6689943,9.71000003814697
100.6846193,6.07999992370605
100.7002443,2.30999994277954
100.7158693,-1.78999996185303
100.7314943,-6.17000007629395
100.7471193,-10.6000003814697
100.7627443,-15.0299997329712
100.7783693,-19.6900005340576
100.7939943,-24.7800006866455
100.8096193,-30.2099990844727
100.8252443,-35.4599990844727
100.8408693,-39.8800010681152
100.8564943,-43.1199989318848
100.8721193,-45.2299995422363
100.8877443,-46.5299987792969
100.9033693,-47.3600006103516
100.9189943,-47.8699989318848
100.9346193,-48.0400009155273
100.9502443,-47.8400001525879
100.9658693,-47.2999992370605
100.9814943,-46.4500007629395
100.9971193,-45.0299987792969
101.0127443,-42.4199981689453
101.0283693,-37.9700012207031
101.0439943,-31.5499992370605
101.0596193,-23.3799991607666
101.0752443,-13.6800003051758
101.0908693,-2.5699999332428
101.1064943,9.53999996185303
101.1221193,21.8400001525879
101.1377443,33.2200012207031
101.1533693,42.9500007629395
101.1689943,51.060001373291
101.1846193,57.9199981689453
101.2002443,63.5900001525879
101.2158693,67.7399978637695
101.2314943,70.1500015258789
101.2471193,71.0699996948242
101.2627443,70.9700012207031
101.2783693,70.129997253418
101.2939943,68.2900009155273
101.3096193,64.9499969482422
101.3252443,59.9700012207031
101.3408693,53.6599998474121
101.3564943,46.5999984741211
101.3721193,39.310001373291
101.3877443,32.2099990844727
101.4033693,25.6399993896484
101.4189943,19.9500007629395
101.4346193,15.2600002288818
101.4502443,11.3000001907349
101.4658693,7.65999984741211
101.4814943,4.05999994277954
101.4971193,0.579999983310699
101.5127443,-2.60999989509583
101.5283693,-5.40000009536743
101.5439943,-7.80000019073486
101.5596193,-10.0600004196167
101.5752443,-12.5299997329712
101.5908693,-15.5500001907349
101.6064943,-19.1599998474121
101.6221193,-23.1399993896484
101.6377443,-27.1200008392334
101.6533693,-30.7999992370605
101.6689943,-34.0299987792969
101.6846193,-36.7900009155273
101.7002443,-39.1100006103516
101.7158693,-41.0800018310547
101.7314943,-42.7700004577637
101.7471193,-44.3499984741211
101.7627443,-46.1300010681152
101.7783693,-48.3400001525879
101.7939943,-50.9700012207031
101.8096193,-53.5800018310547
101.8252443,-55.3899993896484
101.8408693,-55.7000007629395
101.8564943,-54.2999992370605
101.8721193,-51.4300003051758
101.8877443,-47.4599990844727
101.9033693,-42.2799987792969
101.9189943,-35.2400016784668
101.9346193,-25.6700000762939
101.9502443,-13.6599998474121
101.9658693,-0.159999996423721
101.9814943,13.5799999237061
101.9971193,26.8799991607666
102.0127443,39.8300018310547
102.0283693,52.6599998474121
102.0439943,64.7799987792969
102.0596193,75.0199966430664
102.0752443,82.5699996948242
102.0908693,87.5100021362305
102.1064943,90.5999984741211
102.1221193,92.5800018310547
102.1377443,93.6399993896484
102.1533693,93.5899963378906
102.1689943,92.2399978637695
102.1846193,89.6900024414063
102.2002443,86.1999969482422
102.2158693,82.0599975585938
102.2314943,77.5500030517578
102.2471193,72.8399963378906
102.2627443,67.8600006103516
102.2783693,62.4500007629395
102.2939943,56.4700012207031
102.3096193,50.0299987792969
102.3252443,43.560001373291
102.3408693,37.5800018310547
102.3564943,32.3899993896484
102.3721193,27.9899997711182
102.3877443,24.1299991607666
102.4033693,20.4099998474121
102.4189943,16.3799991607666
102.4346193,11.7700004577637
102.4502443,6.55999994277954
102.4658693,0.899999976158142
102.4814943,-5.09999990463257
102.4971193,-11.4099998474121
102.5127443,-17.9099998474121
102.5283693,-24.1900005340576
102.5439943,-29.6800003051758
102.5596193,-33.9000015258789
102.5752443,-36.9099998474121
102.5908693,-39.0499992370605
102.6064943,-40.6500015258789
102.6221193,-41.7900009155273
102.6377443,-42.4599990844727
102.6533693,-42.7099990844727
102.6689943,-42.6599998474121
102.6846193,-42.4700012207031
102.7002443,-42.2799987792969
102.7158693,-42.1699981689453
102.7314943,-42.1199989318848
102.7471193,-41.9599990844727
102.7627443,-41.3800010681152
102.7783693,-40.1300010681152
102.7939943,-38.1500015258789
102.8096193,-35.5400009155273
102.8252443,-32.310001373291
102.8408693,-27.9500007629395
102.8564943,-21.4799995422363
102.8721193,-12.1700000762939
102.8877443,-0.280000001192093
102.9033693,13.2399997711182
102.9189943,27.5799999237061
102.9346193,42.3699989318848
102.9502443,57.2700004577637
102.9658693,71.4000015258789
102.9814943,83.1900024414063
102.9971193,91.370002746582
103.0127443,95.8499984741211
103.0283693,97.4599990844727
103.0439943,97.0699996948242
103.0596193,95.1399993896484
103.0752443,91.9400024414063
103.0908693,87.8300018310547
103.1064943,83.2200012207031
103.1221193,78.2799987792969
103.1377443,72.8300018310547
103.1533693,66.5500030517578
103.1689943,59.3199996948242
103.1846193,51.3800010681152
103.2002443,43.1100006103516
103.2158693,34.9000015258789
103.2314943,27.0100002288818
103.2471193,19.6200008392334
103.2627443,12.8299999237061
103.2783693,6.6100001335144
103.2939943,0.699999988079071
103.3096193,-5.19000005722046
103.3252443,-11.1899995803833
103.3408693,-17.1499996185303
103.3564943,-22.8199996948242
103.3721193,-28.0400009155273
103.3877443,-32.7799987792969
103.4033693,-37.2000007629395
103.4189943,-41.6100006103516
103.4346193,-46.25
103.4502443,-51.2200012207031
103.4658693,-56.439998626709
103.4814943,-61.8699989318848
103.4971193,-67.4599990844727
103.5127443,-73.0199966430664
103.5283693,-78.2200012207031
103.5439943,-82.4800033569336
103.5596193,-85.4000015258789
103.5752443,-87.1699981689453
103.5908693,-88.3099975585938
103.6064943,-89.25
103.6221193,-90.0500030517578
103.6377443,-90.6100006103516
103.6533693,-90.8000030517578
103.6689943,-90.4700012207031
103.6846193,-89.0400009155273
103.7002443,-85.3199996948242
103.7158693,-78.2099990844727
103.7314943,-67.5400009155273
103.7471193,-54.0499992370605
103.7627443,-38.6199989318848
103.7783693,-21.9500007629395
103.7939943,-4.80999994277954
103.8096193,11.6099996566772
103.8252443,25.7199993133545
103.8408693,36.4000015258789
103.8564943,43.7900009155273
103.8721193,48.8699989318848
103.8877443,52.3800010681152
103.9033693,54.4799995422363
103.9189943,55.1699981689453
103.9346193,54.6300010681152
103.9502443,53.2400016784668
103.9658693,51.2000007629395
103.9814943,48.2599983215332
103.9971193,44.0200004577637
104.0127443,38.3699989318848
104.0283693,31.7199993133545
104.0439943,24.7099990844727
104.0596193,17.9599990844727
104.0752443,11.8000001907349
104.0908693,6.36999988555908
104.1064943,1.62999999523163
104.1221193,-2.53999996185303
104.1377443,-6.42999982833862
104.1533693,-10.3400001525879
104.1689943,-14.4200000762939
104.1846193,-18.6100006103516
104.2002443,-22.7399997711182
104.2158693,-26.6399993896484
104.2314943,-30.2099990844727
104.2471193,-33.5200004577637
104.2627443,-36.7799987792969
104.2783693,-40.2000007629395
104.2939943,-43.8400001525879
104.3096193,-47.689998626709
104.3252443,-51.7299995422363
104.3408693,-55.9099998474121
104.3564943,-60.1399993896484
104.3721193,-64.0999984741211
104.3877443,-67.3199996948242
104.4033693,-69.4700012207031
104.4189943,-70.6500015258789
104.4346193,-71.2399978637695
104.4502443,-71.5400009155273
104.4658693,-71.6399993896484
104.4814943,-71.4800033569336
104.4971193,-71.0100021362305
104.5127443,-70.0299987792969
104.5283693,-68.7099990844727
104.5439943,-66.8899993896484
104.5596193,-64.3899993896484
104.5752443,-61.0800018310547
104.5908693,-56.5499992370605
104.6064943,-49.8600006103516
104.6221193,-40.1300010681152
104.6377443,-27.4300003051758
104.6533693,-12.8500003814697
104.6689943,2.0699999332428
104.6846193,16.4799995422363
104.7002443,30.5200004577637
104.7158693,44.4599990844727
104.7314943,57.6599998474121
104.7471193,69.0
104.7627443,78.0400009155273
104.7783693,85.4499969482422
104.7939943,92.1999969482422
104.8096193,98.5400009155273
104.8252443,103.709999084473
104.8408693,106.580001831055
104.8564943,106.580001831055
104.8721193,103.919998168945
104.8877443,99.0999984741211
104.9033693,92.6699981689453
104.9189943,85.1999969482422
104.9346193,77.3000030517578
104.9502443,69.5
104.9658693,62.2000007629395
104.9814943,55.6300010681152
104.9971193,49.8400001525879
105.0127443,44.7000007629395
105.0283693,39.9799995422363
105.0439943,35.3899993896484
105.0596193,30.7099990844727
105.0752443,25.8899993896484
105.0908693,20.9300003051758
105.1064943,15.8400001525879
105.1221193,10.5100002288818
105.1377443,4.8600001335144
105.1533693,-1.08000004291534
105.1689943,-7.09000015258789
105.1846193,-12.8599996566772
105.2002443,-18.1299991607666
105.2158693,-22.8299999237061
105.2314943,-27.0300006866455
105.2471193,-30.8600006103516
105.2627443,-34.4799995422363
105.2783693,-37.9700012207031
105.2939943,-41.3600006103516
105.3096193,-44.6699981689453
105.3252443,-48.0099983215332
105.3408693,-51.4900016784668
105.3564943,-55.0900001525879
105.3721193,-58.6199989318848
105.3877443,-61.6800003051758
105.4033693,-63.810001373291
105.4189943,-64.5899963378906
105.4346193,-63.7900009155273
105.4502443,-61.4900016784668
105.4658693,-58.060001373291
105.4814943,-54.0299987792969
105.4971193,-49.9199981689453
105.5127443,-45.7799987792969
105.5283693,-41.3300018310547
105.5439943,-35.4000015258789
105.5596193,-26.8400001525879
105.5752443,-15.4099998474121
105.5908693,-1.78999996185303
105.6064943,13.0799999237061
105.6221193,28.4099998474121
105.6377443,43.4700012207031
105.6533693,57.0499992370605
105.6689943,67.4000015258789
105.6846193,73.0699996948242
105.7002443,73.8600006103516
105.7158693,70.8000030517578
105.7314943,65.3300018310547
105.7471193,58.6399993896484
105.7627443,51.5299987792969
105.7783693,44.4900016784668
105.7939943,37.7700004577637
105.8096193,31.4899997711182
105.8252443,25.7299995422363
105.8408693,20.4899997711182
105.8564943,15.7299995422363
105.8721193,11.3500003814697
105.8877443,7.21999979019165
105.9033693,3.24000000953674
105.9189943,-0.620000004768372
105.9346193,-4.40000009536743
105.9502443,-8.13000011444092
105.9658693,-11.8900003433228
105.9814943,-15.8000001907349
105.9971193,-19.9400005340576
106.0127443,-24.2199993133545
106.0283693,-28.4500007629395
106.0439943,-32.4300003051758
106.0596193,-36.0400009155273
106.0752443,-39.2599983215332
106.0908693,-42.1699981689453
106.1064943,-44.9300003051758
106.1221193,-47.6500015258789
106.1377443,-50.3800010681152
106.1533693,-53.1300010681152
106.1689943,-55.9500007629395
106.1846193,-58.9099998474121
106.2002443,-61.939998626709
106.2158693,-64.8199996948242
106.2314943,-67.2099990844727
106.2471193,-68.8499984741211
106.2627443,-69.8300018310547
106.2783693,-70.4100036621094
106.2939943,-70.7600021362305
106.3096193,-70.8899993896484
106.3252443,-70.7099990844727
106.3408693,-70.1999969482422
106.3564943,-69.2399978637695
106.3721193,-67.1999969482422
106.3877443,-62.7200012207031
106.4033693,-54.5099983215332
106.4189943,-42.4099998474121
106.4346193,-27.2999992370605
106.4502443,-10.3999996185303
106.4658693,7.30000019073486
106.4814943,24.9300003051758
106.4971193,41.2599983215332
106.5127443,54.5200004577637
106.5283693,63.560001373291
106.5439943,68.5500030517578
106.5596193,70.6800003051758
106.5752443,71.129997253418
106.5908693,70.4899978637695
106.6064943,69.0100021362305
106.6221193,66.8899993896484
106.6377443,64.3099975585938
106.6533693,61.2599983215332
106.6689943,57.3699989318848
106.6846193,52.2099990844727
106.7002443,45.7099990844727
106.7158693,38.25
106.7314943,30.4200000762939
106.7471193,22.7199993133545
106.7627443,15.4700002670288
106.7783693,8.89000034332275
106.7939943,3.14000010490417
106.8096193,-1.75999999046326
106.8252443,-6.09000015258789
106.8408693,-10.210000038147
106.8564943,-14.3400001525879
106.8721193,-18.5499992370605
106.8877443,-22.8999996185303
106.9033693,-27.4799995422363
106.9189943,-32.2299995422363
106.9346193,-36.8899993896484
106.9502443,-41.0499992370605
106.9658693,-44.4199981689453
106.9814943,-47.060001373291
106.9971193,-49.2000007629395
107.0127443,-50.9599990844727
107.0283693,-52.2599983215332
107.0439943,-53.0
107.0596193,-53.1800003051758
107.0752443,-52.9599990844727
107.0908693,-52.5800018310547
107.1064943,-52.2700004577637
107.1221193,-52.189998626709
107.1377443,-52.3699989318848
107.1533693,-52.7999992370605
107.1689943,-53.5400009155273
107.1846193,-54.6599998474121
107.2002443,-56.1199989318848
107.2158693,-57.5800018310547
107.2314943,-58.4700012207031
107.2471193,-58.0900001525879
107.2627443,-55.8899993896484
107.2783693,-51.6399993896484
107.2939943,-45.5099983215332
107.3096193,-38.060001373291
107.3252443,-30.0100002288818
107.3408693,-22.0200004577637
107.3564943,-14.4499998092651
107.3721193,-7.01000022888184
107.3877443,1.19000005722046
107.4033693,11.0900001525879
107.4189943,22.9300003051758
107.4346193,36.2200012207031
107.4502443,50.2400016784668
107.4658693,64.3600006103516
107.4814943,77.9899978637695
107.4971193,90.1699981689453
107.5127443,99.2300033569336
107.5283693,104.069999694824
107.5439943,104.419998168945
107.5596193,101.080001831055
107.5752443,95.379997253418
107.5908693,88.5699996948242
107.6064943,81.5699996948242
107.6221193,74.879997253418
107.6377443,68.6900024414063
107.6533693,62.9799995422363
107.6689943,57.6599998474121
107.6846193,52.6500015258789
107.7002443,47.8800010681152
107.7158693,43.2200012207031
107.7314943,38.4099998474121
107.7471193,33.2599983215332
107.7627443,27.7299995422363
107.7783693,22.1000003814697
107.7939943,16.7700004577637
