Time(s),Value(%)
0.0203894,80.870002746582
0.0360144,69.8099975585938
0.0516394,59.560001373291
0.0672644,49.9300003051758
0.0828894,40.9700012207031
0.0985144,33.0400009155273
0.1141394,26.6399993896484
0.1297644,22.0200004577637
0.1453894,19.0200004577637
0.1610144,17.1800003051758
0.1766394,15.9499998092651
0.1922644,14.6400003433228
0.2078894,12.5
0.2235144,8.94999980926514
0.2391394,3.83999991416931
0.2547644,-2.52999997138977
0.2703894,-9.43000030517578
0.2860144,-15.9300003051758
0.3016394,-21.2700004577637
0.3172644,-25.1299991607666
0.3328894,-27.6800003051758
0.3485144,-29.4699993133545
0.3641394,-31.2299995422363
0.3797644,-33.5400009155273
0.3953894,-36.4099998474121
0.4110144,-39.0400009155273
0.4266394,-40.0
0.4422644,-37.6100006103516
0.4578894,-30.25
0.4735144,-16.4500007629395
0.4891394,4.34000015258789
0.5047644,30.3799991607666
0.5203894,57.1199989318848
0.5360144,78.9499969482422
0.5516394,91.6800003051758
0.5672644,94.0800018310547
0.5828894,87.7799987792969
0.5985144,76.0500030517578
0.6141394,62.1500015258789
0.6297644,48.2900009155273
0.6453894,35.5099983215332
0.6610144,24.1800003051758
0.6766394,14.4200000762939
0.6922644,6.42000007629395
0.7078894,0.409999996423721
0.7235144,-3.57999992370605
0.7391394,-5.98000001907349
0.7547644,-7.53000020980835
0.7703894,-9.02999973297119
0.7860144,-11.0799999237061
0.8016394,-13.9399995803833
0.8172644,-17.5900001525879
0.8328894,-21.7800006866455
0.8485144,-26.2299995422363
0.8641394,-30.7199993133545
0.8797644,-35.0499992370605
0.8953894,-39.0400009155273
0.9110144,-42.6800003051758
0.9266394,-46.2000007629395
0.9422644,-49.7400016784668
0.9578894,-53.2299995422363
0.9735144,-56.439998626709
0.9891394,-59.1300010681152
1.0047644,-61.1300010681152
1.0203894,-62.0999984741211
1.0360144,-61.1599998474121
1.0516394,-56.8199996948242
1.0672644,-47.3199996948242
1.0828894,-31.5200004577637
1.0985144,-10.0600004196167
1.1141394,14.3800001144409
1.1297644,38.1599998474121
1.1453894,57.7799987792969
1.1610144,70.6100006103516
1.1766394,75.3099975585938
1.1922644,72.2699966430664
1.2078894,63.3899993896484
1.2235144,51.2599983215332
1.2391394,38.0999984741211
1.2547644,25.1499996185303
1.2703894,12.8800001144409
1.2860144,1.61000001430511
1.3016394,-8.25
1.3172644,-16.3199996948242
1.3328894,-22.4300003051758
1.3485144,-26.6599998474121
1.3641394,-29.2700004577637
1.3797644,-30.6700000762939
1.3953894,-31.3099994659424
1.4110144,-31.6499996185303
1.4266394,-32.189998626709
1.4422644,-33.2799987792969
1.4578894,-35.0999984741211
1.4735144,-37.6599998474121
1.4891394,-40.810001373291
1.5047644,-44.2599983215332
1.5203894,-47.7200012207031
1.5360144,-50.8899993896484
1.5516394,-53.4700012207031
1.5672644,-55.2700004577637
1.5828894,-56.3600006103516
1.5985144,-56.8699989318848
1.6141394,-56.810001373291
1.6297644,-55.8400001525879
1.6453894,-52.9099998474121
1.6610144,-45.8800010681152
1.6766394,-32.310001373291
1.6922644,-11.2200002670288
1.7078894,15.6499996185303
1.7235144,44.2299995422363
1.7391394,69.6600036621094
1.7547644,88.0999984741211
1.7703894,97.8199996948242
1.7860144,99.2799987792969
1.8016394,94.2300033569336
1.8172644,84.9499969482422
1.8328894,73.4800033569336
1.8485144,61.2700004577637
1.8641394,49.0999984741211
1.8797644,37.3400001525879
1.8953894,26.1700000762939
1.9110144,15.8199996948242
1.9266394,6.67000007629395
1.9422644,-0.829999983310699
1.9578894,-6.44999980926514
1.9735144,-10.3199996948242
1.9891394,-12.8800001144409
2.0047644,-14.8100004196167
2.0203894,-16.8700008392334
2.0360144,-19.6200008392334
2.0516394,-23.1499996185303
2.0672644,-27.1599998474121
2.0828894,-31.3099994659424
2.0985144,-35.3899993896484
2.1141394,-39.2099990844727
2.1297644,-42.5999984741211
2.1453894,-45.4099998474121
2.1610144,-47.560001373291
2.1766394,-48.9099998474121
2.1922644,-49.2200012207031
2.2078894,-48.1699981689453
2.2235144,-45.4799995422363
2.2391394,-40.8499984741211
2.2547644,-33.5699996948242
2.2703894,-22.25
2.2860144,-5.8600001335144
2.3016394,14.8900003433228
2.3172644,37.25
2.3328894,57.3499984741211
2.3485144,71.6399993896484
2.3641394,77.9100036621094
2.3797644,75.9899978637695
2.3953894,67.9199981689453
2.4110144,57.3499984741211
2.4266394,47.9900016784668
2.4422644,42.0099983215332
2.4578894,39.6399993896484
2.4735144,39.939998626709
2.4891394,41.6500015258789
2.5047644,43.0400009155273
2.5203894,42.0200004577637
2.5360144,37.1199989318848
2.5516394,28.3600006103516
2.5672644,17.2600002288818
2.5828894,5.86999988555908
2.5985144,-4.11999988555908
2.6141394,-12.1499996185303
2.6297644,-18.7999992370605
2.6453894,-25.2900009155273
2.6610144,-32.75
2.6766394,-41.4099998474121
2.6922644,-50.2400016784668
2.7078894,-57.2599983215332
2.7235144,-60.2299995422363
2.7391394,-57.7900009155273
2.7547644,-50.5900001525879
2.7703894,-41.2099990844727
2.7860144,-32.2999992370605
2.8016394,-24.6800003051758
2.8172644,-17.7099990844727
2.8328894,-11.3400001525879
2.8485144,-6.65000009536743
2.8641394,-3.86999988555908
2.8797644,-1.12999999523163
2.8953894,4.28000020980835
2.9110144,13.8299999237061
2.9266394,26.3400001525879
2.9422644,38.4500007629395
2.9578894,46.4799995422363
2.9735144,48.2200012207031
2.9891394,43.6599998474121
3.0047644,34.5299987792969
3.0203894,23.3099994659424
3.0360144,12.0299997329712
3.0516394,1.69000005722046
3.0672644,-7.61999988555908
3.0828894,-16.1299991607666
3.0985144,-23.8099994659424
3.1141394,-30.3299999237061
3.1297644,-35.2099990844727
3.1453894,-38.1699981689453
3.1610144,-39.3699989318848
3.1766394,-39.2000007629395
3.1922644,-38.0200004577637
3.2078894,-36.1599998474121
3.2235144,-33.8499984741211
3.2391394,-31.1800003051758
3.2547644,-28.3799991607666
3.2703894,-25.9500007629395
3.2860144,-24.5200004577637
3.3016394,-24.2900009155273
3.3172644,-24.9799995422363
3.3328894,-25.8199996948242
3.3485144,-25.8999996185303
3.3641394,-24.6200008392334
3.3797644,-22.0100002288818
3.3953894,-18.4200000762939
3.4110144,-13.6599998474121
3.4266394,-6.40999984741211
3.4422644,5.65000009536743
3.4578894,24.4599990844727
3.4735144,49.7999992370605
3.4891394,78.6100006103516
3.5047644,105.879997253418
3.5203894,126.519996643066
3.5360144,137.279998779297
3.5516394,137.460006713867
3.5672644,128.830001831055
3.5828894,114.720001220703
3.5985144,98.6100006103516
3.6141394,82.7900009155273
3.6297644,67.9800033569336
3.6453894,53.810001373291
3.6610144,39.6399993896484
3.6766394,25.4599990844727
3.6922644,12.1099996566772
3.7078894,0.889999985694885
3.7235144,-7.21999979019165
3.7391394,-12.210000038147
3.7547644,-14.9499998092651
3.7703894,-16.7900009155273
3.7860144,-18.9300003051758
3.8016394,-22.0
3.8172644,-26.1000003814697
3.8328894,-31.0100002288818
3.8485144,-36.3699989318848
3.8641394,-41.7700004577637
3.8797644,-46.8899993896484
3.8953894,-51.5299987792969
3.9110144,-55.560001373291
3.9266394,-58.810001373291
3.9422644,-61.1100006103516
3.9578894,-62.310001373291
3.9735144,-62.3600006103516
3.9891394,-60.9599990844727
4.0047644,-56.7799987792969
4.0203894,-47.3199996948242
4.0360144,-30.2800006866455
4.0516394,-5.69999980926514
4.0672644,23.2199993133545
4.0828894,51.189998626709
4.0985144,72.7799987792969
4.1141394,84.4800033569336
4.1297644,85.629997253418
4.1453894,78.1500015258789
4.1610144,65.2900009155273
4.1766394,50.2299995422363
4.1922644,35.0699996948242
4.2078894,20.5799999237061
4.2235144,6.82999992370605
4.2391394,-6.1100001335144
4.2547644,-17.8700008392334
4.2703894,-27.9300003051758
4.2860144,-35.8199996948242
4.3016394,-41.2799987792969
4.3172644,-44.3699989318848
4.3328894,-45.5999984741211
4.3485144,-45.7700004577637
4.3641394,-45.7799987792969
4.3797644,-46.4000015258789
4.3953894,-48.0200004577637
4.4110144,-50.4799995422363
4.4266394,-53.1800003051758
4.4422644,-55.4700012207031
4.4578894,-57.0999984741211
4.4735144,-58.189998626709
4.4891394,-58.9500007629395
4.5047644,-59.4700012207031
4.5203894,-59.75
4.5360144,-59.8400001525879
4.5516394,-59.7599983215332
4.5672644,-59.1699981689453
4.5828894,-57.3600006103516
4.5985144,-53.0400009155273
4.6141394,-44.4000015258789
4.6297644,-29.5200004577637
4.6453894,-7.57999992370605
4.6610144,20.1100006103516
4.6766394,50.1399993896484
4.6922644,77.620002746582
4.7078894,97.6100006103516
4.7235144,107.01000213623
4.7391394,105.76000213623
4.7547644,96.4700012207031
4.7703894,82.9499969482422
4.7860144,68.4400024414063
4.8016394,54.6599998474121
4.8172644,42.060001373291
4.8328894,30.4799995422363
4.8485144,19.7999992370605
4.8641394,10.1300001144409
4.8797644,1.71000003814697
4.8953894,-5.13000011444092
4.9110144,-10.1899995803833
4.9266394,-13.5500001907349
4.9422644,-15.8199996948242
4.9578894,-17.7399997711182
4.9735144,-19.7399997711182
4.9891394,-21.9799995422363
5.0047644,-24.5200004577637
5.0203894,-27.4699993133545
5.0360144,-30.8400001525879
5.0516394,-34.5900001525879
5.0672644,-38.439998626709
5.0828894,-41.8800010681152
5.0985144,-44.3699989318848
5.1141394,-45.6699981689453
5.1297644,-45.8800010681152
5.1453894,-45.2799987792969
5.1610144,-44.1399993896484
5.1766394,-42.5400009155273
5.1922644,-40.1500015258789
5.2078894,-35.9000015258789
5.2235144,-27.9099998474121
5.2391394,-14.0699996948242
5.2547644,6.65999984741211
5.2703894,33.2799987792969
5.2860144,62.439998626709
5.3016394,89.4800033569336
5.3172644,109.819999694824
5.3328894,120.230003356934
5.3485144,119.779998779297
5.3641394,110.160003662109
5.3797644,94.7399978637695
5.3953894,77.0800018310547
5.4110144,59.7700004577637
5.4266394,43.9599990844727
5.4422644,29.6000003814697
5.4578894,16.4099998474121
5.4735144,4.59999990463257
5.4891394,-5.1399998664856
5.5047644,-12.1899995803833
5.5203894,-16.3600006103516
5.5360144,-18.1800003051758
5.5516394,-18.6599998474121
5.5672644,-18.9599990844727
5.5828894,-20.0900001525879
5.5985144,-22.6000003814697
5.6141394,-26.4799995422363
5.6297644,-31.25
5.6453894,-36.2299995422363
5.6610144,-40.7799987792969
5.6766394,-44.4599990844727
5.6922644,-47.1399993896484
5.7078894,-48.9199981689453
5.7235144,-49.9300003051758
5.7391394,-50.2599983215332
5.7547644,-49.9199981689453
5.7703894,-48.9300003051758
5.7860144,-47.1500015258789
5.8016394,-43.9300003051758
5.8172644,-37.6399993896484
5.8328894,-25.9799995422363
5.8485144,-7.19000005722046
5.8641394,18.2800006866455
5.8797644,47.2400016784668
5.8953894,74.5400009155273
5.9110144,94.9000015258789
5.9266394,104.919998168945
5.9422644,104.139999389648
5.9578894,94.7099990844727
5.9735144,80.0500030517578
5.9891394,63.3899993896484
6.0047644,46.8400001525879
6.0203894,31.3700008392334
6.0360144,17.1900005340576
6.0516394,4.36999988555908
6.0672644,-6.75
6.0828894,-15.5299997329712
6.0985144,-21.3199996948242
6.1141394,-23.8999996185303
6.1297644,-23.7900009155273
6.1453894,-22.25
6.1610144,-21.0100002288818
6.1766394,-21.4599990844727
6.1922644,-24.3099994659424
6.2078894,-29.3700008392334
6.2235144,-35.689998626709
6.2391394,-42.0099983215332
6.2547644,-47.3199996948242
6.2703894,-51.1399993896484
6.2860144,-53.4199981689453
6.3016394,-54.4500007629395
6.3172644,-54.7200012207031
6.3328894,-54.5499992370605
6.3485144,-53.9500007629395
6.3641394,-52.7400016784668
6.3797644,-50.6399993896484
6.3953894,-47.0800018310547
6.4110144,-40.6800003051758
6.4266394,-29.0100002288818
6.4422644,-9.48999977111816
6.4578894,18.2600002288818
6.4735144,50.6500015258789
6.4891394,81.2799987792969
6.5047644,103.980003356934
6.5203894,115.230003356934
6.5360144,114.970001220703
6.5516394,105.730003356934
6.5672644,91.1399993896484
6.5828894,74.4899978637695
6.5985144,57.8499984741211
6.6141394,42.0299987792969
6.6297644,27.1499996185303
6.6453894,13.25
6.6610144,0.649999976158142
6.6766394,-10.0100002288818
6.6922644,-18.1100006103516
6.7078894,-23.3299999237061
6.7235144,-25.9599990844727
6.7391394,-26.9300003051758
6.7547644,-27.4099998474121
6.7703894,-28.3799991607666
6.7860144,-30.3999996185303
6.8016394,-33.7299995422363
6.8172644,-38.1300010681152
6.8328894,-42.939998626709
6.8485144,-47.3800010681152
6.8641394,-50.9000015258789
6.8797644,-53.25
6.8953894,-54.6100006103516
6.9110144,-55.439998626709
6.9266394,-56.189998626709
6.9422644,-57.0499992370605
6.9578894,-57.7700004577637
6.9735144,-57.6599998474121
6.9891394,-55.7900009155273
7.0047644,-51.0099983215332
7.0203894,-41.8499984741211
7.0360144,-26.3999996185303
7.0516394,-2.94000005722046
7.0672644,27.8899993896484
7.0828894,61.6699981689453
7.0985144,91.6800003051758
7.1141394,111.940002441406
7.1297644,119.550003051758
7.1453894,115.300003051758
7.1610144,102.559997558594
7.1766394,85.370002746582
7.1922644,66.9499969482422
7.2078894,49.2000007629395
7.2235144,32.9199981689453
7.2391394,18.2600002288818
7.2547644,5.26999998092651
7.2703894,-5.80000019073486
7.2860144,-14.5500001907349
7.3016394,-20.6700000762939
7.3172644,-24.2299995422363
7.3328894,-25.7299995422363
7.3485144,-26.0599994659424
7.3641394,-26.2900009155273
7.3797644,-27.3199996948242
7.3953894,-29.6800003051758
7.4110144,-33.4000015258789
7.4266394,-38.1199989318848
7.4422644,-43.2900009155273
7.4578894,-48.25
7.4735144,-52.2900009155273
7.4891394,-55.0200004577637
7.5047644,-56.439998626709
7.5203894,-56.810001373291
7.5360144,-56.4300003051758
7.5516394,-55.5499992370605
7.5672644,-54.3199996948242
7.5828894,-52.6699981689453
7.5985144,-50.1199989318848
7.6141394,-45.6599998474121
7.6297644,-37.5999984741211
7.6453894,-23.7999992370605
7.6610144,-2.61999988555908
7.6766394,25.3999996185303
7.6922644,56.4799995422363
7.7078894,84.7300033569336
7.7235144,105.269996643066
7.7391394,116.199996948242
7.7547644,118.190002441406
7.7703894,113.169998168945
7.7860144,103.300003051758
7.8016394,90.4000015258789
7.8172644,75.7600021362305
7.8328894,60.0999984741211
7.8485144,43.8800010681152
7.8641394,27.7600002288818
7.8797644,12.7700004577637
7.8953894,0.0
7.9110144,-9.77999973297119
7.9266394,-16.4099998474121
7.9422644,-20.2099990844727
7.9578894,-21.8999996185303
7.9735144,-22.4699993133545
7.9891394,-22.9899997711182
8.0047644,-24.3099994659424
8.0203894,-26.8099994659424
8.0360144,-30.4500007629395
8.0516394,-34.9700012207031
8.0672644,-40.0999984741211
8.0828894,-45.4599990844727
8.0985144,-50.4099998474121
8.1141394,-54.2400016784668
8.1297644,-56.5400009155273
8.1453894,-57.3600006103516
8.1610144,-56.9799995422363
8.1766394,-55.7000007629395
8.1922644,-53.5900001525879
8.2078894,-50.6399993896484
8.2235144,-47.2099990844727
8.2391394,-43.7900009155273
8.2547644,-40.3499984741211
8.2703894,-35.8600006103516
8.2860144,-28.1900005340576
8.3016394,-14.6800003051758
8.3172644,6.46000003814697
8.3328894,34.8600006103516
8.3485144,66.9000015258789
8.3641394,96.25
8.3797644,116.650001525879
8.3953894,124.830001831055
8.4110144,121.389999389648
8.4266394,109.639999389648
8.4422644,93.5999984741211
8.4578894,76.2699966430664
8.4735144,59.0299987792969
8.4891394,42.0999984741211
8.5047644,25.6000003814697
8.5203894,10.3100004196167
8.5360144,-2.49000000953674
8.5516394,-11.6899995803833
8.5672644,-16.8899993896484
8.5828894,-18.6800003051758
8.5985144,-18.3600006103516
8.6141394,-17.4599990844727
8.6297644,-17.3500003814697
8.6453894,-18.8299999237061
8.6610144,-22.0699996948242
8.6766394,-26.7099990844727
8.6922644,-32.1199989318848
8.7078894,-37.7200012207031
8.7235144,-43.0099983215332
8.7391394,-47.5800018310547
8.7547644,-51.060001373291
8.7703894,-53.2400016784668
8.7860144,-54.1399993896484
8.8016394,-54.0200004577637
8.8172644,-53.2999992370605
8.8328894,-52.3899993896484
8.8485144,-51.4900016784668
8.8641394,-50.2999992370605
8.8797644,-48.0299987792969
8.8953894,-43.3400001525879
8.9110144,-34.4500007629395
8.9266394,-19.5699996948242
8.9422644,2.10999989509583
8.9578894,29.5200004577637
8.9735144,59.4599990844727
8.9891394,87.0199966430664
9.0047644,106.849998474121
9.0203894,115.370002746582
9.0360144,112.319999694824
9.0516394,100.389999389648
9.0672644,83.4499969482422
9.0828894,64.8300018310547
9.0985144,46.5400009155273
9.1141394,29.5200004577637
9.1297644,14.210000038147
9.1453894,1.0
9.1610144,-9.6899995803833
9.1766394,-17.4400005340576
9.1922644,-21.9899997711182
9.2078894,-23.7000007629395
9.2235144,-23.6499996185303
9.2391394,-23.2399997711182
9.2547644,-23.6599998474121
9.2703894,-25.5499992370605
9.2860144,-28.9300003051758
9.3016394,-33.2900009155273
9.3172644,-37.9599990844727
9.3328894,-42.4900016784668
9.3485144,-46.6399993896484
9.3641394,-50.1699981689453
9.3797644,-52.8199996948242
9.3953894,-54.4900016784668
9.4110144,-55.25
9.4266394,-55.2000007629395
9.4422644,-54.4700012207031
9.4578894,-53.2400016784668
9.4735144,-51.5900001525879
9.4891394,-49.2799987792969
9.5047644,-45.5400009155273
9.5203894,-38.9599990844727
9.5360144,-27.5900001525879
9.5516394,-9.72000026702881
9.5672644,14.9899997711182
9.5828894,44.6699981689453
9.5985144,74.9199981689453
9.6141394,99.7300033569336
9.6297644,114.110000610352
9.6453894,116.269996643066
9.6610144,107.919998168945
9.6766394,92.9199981689453
9.6922644,75.2200012207031
9.7078894,57.4599990844727
9.7235144,40.7200012207031
9.7391394,25.2800006866455
9.7547644,11.4899997711182
9.7703894,-0.0299999993294477
9.7860144,-8.64000034332275
9.8016394,-13.9399995803833
9.8172644,-16.0900001525879
9.8328894,-15.9099998474121
9.8485144,-14.6499996185303
9.8641394,-13.5799999237061
9.8797644,-13.7399997711182
9.8953894,-15.8000001907349
9.9110144,-19.9400005340576
9.9266394,-25.6599998474121
9.9422644,-31.8799991607666
9.9578894,-37.4900016784668
9.9735144,-41.8899993896484
9.9891394,-45.0999984741211
10.0047644,-47.5499992370605
10.0203894,-49.810001373291
10.0360144,-52.7200012207031
10.0516394,-57.0
10.0672644,-62.9000015258789
10.0828894,-69.8099975585938
10.0985144,-75.8600006103516
10.1141394,-77.5500030517578
10.1297644,-70.5199966430664
10.1453894,-51.1399993896484
10.1610144,-18.5400009155273
10.1766394,24.0100002288818
10.1922644,69.6100006103516
10.2078894,110.099998474121
10.2235144,139.0
10.2391394,153.399993896484
10.2547644,154.119995117188
10.2703894,144.720001220703
10.2860144,129.919998168945
10.3016394,113.849998474121
10.3172644,98.7699966430664
10.3328894,84.8300018310547
10.3485144,71.1500015258789
10.3641394,56.9700012207031
10.3797644,42.3800010681152
10.3953894,28.1499996185303
10.4110144,15.3800001144409
10.4266394,4.92999982833862
10.4422644,-2.79999995231628
10.4578894,-8.10000038146973
10.4735144,-11.8100004196167
10.4891394,-15.1000003814697
10.5047644,-19.2000007629395
10.5203894,-25.0699996948242
10.5360144,-33.0200004577637
10.5516394,-42.560001373291
10.5672644,-52.8600006103516
10.5828894,-63.2700004577637
10.5985144,-73.120002746582
10.6141394,-81.5999984741211
10.6297644,-87.8600006103516
10.6453894,-91.4400024414063
10.6610144,-92.4899978637695
10.6766394,-91.8099975585938
10.6922644,-90.5100021362305
10.7078894,-89.0199966430664
10.7235144,-86.2799987792969
10.7391394,-79.7200012207031
10.7547644,-66.3099975585938
10.7703894,-44.3699989318848
10.7860144,-15.3400001525879
10.8016394,16.0699996948242
10.8172644,43.5900001525879
10.8328894,61.8400001525879
10.8485144,68.3899993896484
10.8641394,64.2699966430664
10.8797644,52.9700012207031
10.8953894,38.6199989318848
10.9110144,24.3999996185303
10.9266394,11.7600002288818
10.9422644,0.699999988079071
10.9578894,-9.27999973297119
10.9735144,-18.2900009155273
10.9891394,-25.8600006103516
11.0047644,-31.4899997711182
11.0203894,-34.9700012207031
11.0360144,-36.4000015258789
11.0516394,-36.0400009155273
11.0672644,-34.3199996948242
11.0828894,-31.8700008392334
11.0985144,-29.6200008392334
11.1141394,-28.4200000762939
11.1297644,-28.7099990844727
11.1453894,-30.3299999237061
11.1610144,-32.8300018310547
11.1766394,-35.6699981689453
11.1922644,-38.3400001525879
11.2078894,-40.3600006103516
11.2235144,-41.3400001525879
11.2391394,-41.2200012207031
11.2547644,-40.2000007629395
11.2703894,-38.439998626709
11.2860144,-36.0699996948242
11.3016394,-33.189998626709
11.3172644,-29.8700008392334
11.3328894,-25.7900009155273
11.3485144,-20.0499992370605
11.3641394,-10.8900003433228
11.3797644,3.85999989509583
11.3953894,25.7600002288818
