Time(s),Value(%)
1210.0089315,-9.27000045776367
1210.0245565,0.0599999986588955
1210.0401815,10.8599996566772
1210.0558065,20.9699993133545
1210.0714315,28.8899993896484
1210.0870565,34.0400009155273
1210.1026815,36.5099983215332
1210.1183065,36.7299995422363
1210.1339315,35.3699989318848
1210.1495565,33.2799987792969
1210.1651815,31.1900005340576
1210.1808065,29.3799991607666
1210.1964315,27.6200008392334
1210.2120565,25.4200000762939
1210.2276815,22.4500007629395
1210.2433065,18.8400001525879
1210.2589315,15.1199998855591
1210.2745565,11.6499996185303
1210.2901815,8.36999988555908
1210.3058065,4.80999994277954
1210.3214315,0.699999988079071
1210.3370565,-3.5699999332428
1210.3526815,-7.05999994277954
1210.3683065,-8.89000034332275
1210.3839315,-8.94999980926514
1210.3995565,-7.94000005722046
1210.4151815,-6.96999979019165
1210.4308065,-7.07000017166138
1210.4464315,-8.52999973297119
1210.4620565,-10.8100004196167
1210.4776815,-12.9300003051758
1210.4933065,-14.1499996185303
1210.5089315,-14.3900003433228
1210.5245565,-14.2299995422363
1210.5401815,-14.25
1210.5558065,-14.4899997711182
1210.5714315,-14.4799995422363
1210.5870565,-13.6800003051758
1210.6026815,-12.0100002288818
1210.6183065,-10.1199998855591
1210.6339315,-9.15999984741211
1210.6495565,-10.1199998855591
1210.6651815,-13.1199998855591
1210.6808065,-17.2000007629395
1210.6964315,-20.8500003814697
1210.7120565,-22.7299995422363
1210.7276815,-22.1700000762939
1210.7433065,-19.3099994659424
1210.7589315,-14.8299999237061
1210.7745565,-9.39999961853027
1210.7901815,-3.34999990463257
1210.8058065,3.29999995231628
1210.8214315,10.5900001525879
1210.8370565,18.2299995422363
1210.8526815,25.4799995422363
1210.8683065,31.4400005340576
1210.8839315,35.5400009155273
1210.8995565,37.5900001525879
1210.9151815,37.7999992370605
1210.9308065,36.8199996948242
1210.9464315,35.5200004577637
1210.9620565,34.6599998474121
1210.9776815,34.5299987792969
1210.9933065,34.8499984741211
1211.0089315,34.9099998474121
1211.0245565,33.75
1211.0401815,30.3899993896484
1211.0558065,24.4200000762939
1211.0714315,16.4599990844727
1211.0870565,7.98000001907349
1211.1026815,0.629999995231628
1211.1183065,-4.53999996185303
1211.1339315,-7.40999984741211
1211.1495565,-8.75
1211.1651815,-9.86999988555908
1211.1808065,-11.9499998092651
1211.1964315,-15.1999998092651
1211.2120565,-18.7099990844727
1211.2276815,-21.25
1211.2433065,-22.4300003051758
1211.2589315,-22.6700000762939
1211.2745565,-22.6100006103516
1211.2901815,-22.5799999237061
1211.3058065,-22.5799999237061
1211.3214315,-22.4300003051758
1211.3370565,-21.8400001525879
1211.3526815,-20.6700000762939
1211.3683065,-19.0699996948242
1211.3839315,-17.4300003051758
1211.3995565,-16.2399997711182
1211.4151815,-15.789999961853
1211.4308065,-16.0900001525879
1211.4464315,-16.8799991607666
1211.4620565,-17.8099994659424
1211.4776815,-18.3999996185303
1211.4933065,-18.3999996185303
1211.5089315,-18.0799999237061
1211.5245565,-18.0799999237061
1211.5401815,-18.7299995422363
1211.5558065,-19.6200008392334
1211.5714315,-19.7900009155273
1211.5870565,-18.2999992370605
1211.6026815,-14.4300003051758
1211.6183065,-7.92999982833862
1211.6339315,0.660000026226044
1211.6495565,9.78999996185303
1211.6651815,17.4400005340576
1211.6808065,22.5699996948242
1211.6964315,25.8299999237061
1211.7120565,28.7000007629395
1211.7276815,32.1599998474121
1211.7433065,36.0200004577637
1211.7589315,39.3499984741211
1211.7745565,41.2999992370605
1211.7901815,41.6399993896484
1211.8058065,40.560001373291
1211.8214315,38.0900001525879
1211.8370565,34.0800018310547
1211.8526815,28.5499992370605
1211.8683065,21.7999992370605
1211.8839315,14.3999996185303
1211.8995565,7.23000001907349
1211.9151815,1.25
1211.9308065,-2.92000007629395
1211.9464315,-5.26999998092651
1211.9620565,-6.40999984741211
1211.9776815,-7.25
1211.9933065,-8.60000038146973
1212.0089315,-10.7200002670288
1212.0245565,-13.3599996566772
1212.0401815,-16.0900001525879
1212.0558065,-18.5100002288818
1212.0714315,-20.2399997711182
1212.0870565,-20.9799995422363
1212.1026815,-20.6700000762939
1212.1183065,-19.6299991607666
1212.1339315,-18.4400005340576
1212.1495565,-17.6200008392334
1212.1651815,-17.5200004577637
1212.1808065,-18.25
1212.1964315,-19.6900005340576
1212.2120565,-21.5599994659424
1212.2276815,-23.3899993896484
1212.2433065,-24.6100006103516
1212.2589315,-24.7000007629395
1212.2745565,-23.4699993133545
1212.2901815,-21.0400009155273
1212.3058065,-18.0100002288818
1212.3214315,-15.3999996185303
1212.3370565,-14.1800003051758
1212.3526815,-14.5600004196167
1212.3683065,-15.8199996948242
1212.3839315,-16.8500003814697
1212.3995565,-16.6900005340576
1212.4151815,-14.5299997329712
1212.4308065,-9.80000019073486
1212.4464315,-2.59999990463257
1212.4620565,6.09999990463257
1212.4776815,14.9799995422363
1212.4933065,23.0200004577637
1212.5089315,29.7700004577637
1212.5245565,35.0900001525879
1212.5401815,38.7400016784668
1212.5558065,40.4300003051758
1212.5714315,40.0999984741211
1212.5870565,38.1500015258789
1212.6026815,35.3400001525879
1212.6183065,32.2599983215332
1212.6339315,28.9699993133545
1212.6495565,25.1200008392334
1212.6651815,20.3400001525879
1212.6808065,14.7200002670288
1212.6964315,8.98999977111816
1212.7120565,4.13000011444092
1212.7276815,0.779999971389771
1212.7433065,-1.25
1212.7589315,-2.84999990463257
1212.7745565,-4.92000007629395
1212.7901815,-7.69999980926514
1212.8058065,-10.5799999237061
1212.8214315,-12.8000001907349
1212.8370565,-13.9899997711182
1212.8526815,-14.25
1212.8683065,-13.8500003814697
1212.8839315,-13.1899995803833
1212.8995565,-12.8000001907349
1212.9151815,-13.1599998474121
1212.9308065,-14.289999961853
1212.9464315,-15.7200002670288
1212.9620565,-16.7199993133545
1212.9776815,-16.8500003814697
1212.9933065,-16.1599998474121
1213.0089315,-15.1800003051758
1213.0245565,-14.5
1213.0401815,-14.4200000762939
1213.0558065,-14.9799995422363
1213.0714315,-16.0499992370605
1213.0870565,-17.3600006103516
1213.1026815,-18.4599990844727
1213.1183065,-19.0300006866455
1213.1339315,-19.0400009155273
1213.1495565,-18.4799995422363
1213.1651815,-16.7900009155273
1213.1808065,-12.9399995803833
1213.1964315,-6.05000019073486
1213.2120565,3.89000010490417
1213.2276815,15.7600002288818
1213.2433065,27.5100002288818
1213.2589315,37.0099983215332
1213.2745565,42.9099998474121
1213.2901815,45.2200012207031
1213.3058065,44.9199981689453
1213.3214315,43.0800018310547
1213.3370565,40.6199989318848
1213.3526815,38.3300018310547
1213.3683065,36.7799987792969
1213.3839315,35.8499984741211
1213.3995565,34.4900016784668
1213.4151815,31.2000007629395
1213.4308065,25.0900001525879
1213.4464315,16.6499996185303
1213.4620565,7.44999980926514
1213.4776815,-0.639999985694885
1213.4933065,-6.34000015258789
1213.5089315,-9.42000007629395
1213.5245565,-10.7700004577637
1213.5401815,-11.8999996185303
1213.5558065,-13.8800001144409
1213.5714315,-16.6800003051758
1213.5870565,-19.3400001525879
1213.6026815,-20.8299999237061
1213.6183065,-20.7199993133545
1213.6339315,-19.1399993896484
1213.6495565,-16.6000003814697
1213.6651815,-13.8900003433228
1213.6808065,-11.8199996948242
1213.6964315,-11.0299997329712
1213.7120565,-11.75
1213.7276815,-13.8000001907349
1213.7433065,-16.7099990844727
1213.7589315,-19.8500003814697
1213.7745565,-22.5200004577637
1213.7901815,-24.1599998474121
1213.8058065,-24.4899997711182
1213.8214315,-23.4500007629395
1213.8370565,-21.4200000762939
1213.8526815,-19.3500003814697
1213.8683065,-18.3400001525879
1213.8839315,-18.8700008392334
1213.8995565,-20.3199996948242
1213.9151815,-21.4599990844727
1213.9308065,-21.0100002288818
1213.9464315,-18.0499992370605
1213.9620565,-12.0500001907349
1213.9776815,-3.17000007629395
1213.9933065,7.51999998092651
1214.0089315,18.3799991607666
1214.0245565,27.8099994659424
1214.0401815,35.0499992370605
1214.0558065,40.4000015258789
1214.0714315,44.7000007629395
1214.0870565,48.5900001525879
1214.1026815,52.1100006103516
1214.1183065,54.9199981689453
1214.1339315,56.75
1214.1495565,57.3699989318848
1214.1651815,56.2999992370605
1214.1808065,52.7799987792969
1214.1964315,46.1399993896484
1214.2120565,36.4599990844727
1214.2276815,24.8500003814697
1214.2433065,13.0
1214.2589315,2.40000009536743
1214.2745565,-6.23999977111816
1214.2901815,-12.8199996948242
1214.3058065,-17.5200004577637
1214.3214315,-20.6299991607666
1214.3370565,-22.4699993133545
1214.3526815,-23.4300003051758
1214.3683065,-24.0900001525879
1214.3839315,-24.9799995422363
1214.3995565,-26.3199996948242
1214.4151815,-27.9699993133545
1214.4308065,-29.7099990844727
1214.4464315,-31.4799995422363
1214.4620565,-33.1800003051758
1214.4776815,-34.689998626709
1214.4933065,-35.7799987792969
1214.5089315,-36.1100006103516
1214.5245565,-35.3800010681152
1214.5401815,-33.6800003051758
1214.5558065,-31.5499992370605
1214.5714315,-29.7299995422363
1214.5870565,-28.7299995422363
1214.6026815,-28.5400009155273
1214.6183065,-28.8400001525879
1214.6339315,-29.0599994659424
1214.6495565,-28.6399993896484
1214.6651815,-27.3299999237061
1214.6808065,-25.1700000762939
1214.6964315,-22.3199996948242
1214.7120565,-18.8099994659424
1214.7276815,-14.3800001144409
1214.7433065,-8.42000007629395
1214.7589315,-0.600000023841858
1214.7745565,8.60000038146973
1214.7901815,18.0799999237061
1214.8058065,26.7999992370605
1214.8214315,34.4000015258789
1214.8370565,40.9700012207031
1214.8526815,46.6300010681152
1214.8683065,51.2599983215332
1214.8839315,54.5900001525879
1214.8995565,56.3899993896484
1214.9151815,56.7099990844727
1214.9308065,55.9300003051758
1214.9464315,54.2200012207031
1214.9620565,51.0400009155273
1214.9776815,45.4099998474121
1214.9933065,36.7999992370605
1215.0089315,25.9099998474121
1215.0245565,14.5100002288818
1215.0401815,4.55999994277954
1215.0558065,-2.74000000953674
1215.0714315,-7.40999984741211
1215.0870565,-10.3599996566772
1215.1026815,-12.6300001144409
1215.1183065,-14.8800001144409
1215.1339315,-17.3500003814697
1215.1495565,-20.1200008392334
1215.1651815,-23.3099994659424
1215.1808065,-26.8500003814697
1215.1964315,-30.1299991607666
1215.2120565,-32.2299995422363
1215.2276815,-32.7700004577637
1215.2433065,-32.1599998474121
1215.2589315,-30.9899997711182
1215.2745565,-29.4400005340576
1215.2901815,-27.4699993133545
1215.3058065,-25.2199993133545
1215.3214315,-23.2000007629395
1215.3370565,-22.1399993896484
1215.3526815,-22.6599998474121
1215.3683065,-24.9500007629395
1215.3839315,-28.5400009155273
1215.3995565,-32.189998626709
1215.4151815,-34.2299995422363
1215.4308065,-33.4700012207031
1215.4464315,-29.9899997711182
1215.4620565,-25.1700000762939
1215.4776815,-20.7099990844727
1215.4933065,-17.2999992370605
1215.5089315,-14.210000038147
1215.5245565,-9.84000015258789
1215.5401815,-2.91000008583069
1215.5558065,6.5
1215.5714315,16.9200000762939
1215.5870565,26.3999996185303
1215.6026815,33.6500015258789
1215.6183065,38.6800003051758
1215.6339315,42.4700012207031
1215.6495565,46.0200004577637
1215.6651815,49.6399993896484
1215.6808065,52.939998626709
1215.6964315,55.189998626709
1215.7120565,55.7900009155273
1215.7276815,54.2999992370605
1215.7433065,50.3199996948242
1215.7589315,43.4300003051758
1215.7745565,33.6800003051758
1215.7901815,22.2900009155273
1215.8058065,11.6400003433228
1215.8214315,4.09999990463257
1215.8370565,0.46000000834465
1215.8526815,-0.540000021457672
1215.8683065,-1.07000005245209
1215.8839315,-2.59999990463257
1215.8995565,-5.48999977111816
1215.9151815,-9.19999980926514
1215.9308065,-12.6999998092651
1215.9464315,-15.0500001907349
1215.9620565,-16.1000003814697
1215.9776815,-16.7099990844727
1215.9933065,-17.9400005340576
1216.0089315,-20.1700000762939
1216.0245565,-22.7600002288818
1216.0401815,-24.75
1216.0558065,-25.5699996948242
1216.0714315,-25.2399997711182
1216.0870565,-24.0200004577637
1216.1026815,-22.1900005340576
1216.1183065,-20.1499996185303
1216.1339315,-18.4400005340576
1216.1495565,-17.4899997711182
1216.1651815,-17.3400001525879
1216.1808065,-17.7900009155273
1216.1964315,-18.6399993896484
1216.2120565,-19.75
1216.2276815,-20.9099998474121
1216.2433065,-21.6399993896484
1216.2589315,-21.3400001525879
1216.2745565,-19.6100006103516
1216.2901815,-16.2600002288818
1216.3058065,-11.0200004577637
1216.3214315,-3.57999992370605
1216.3370565,5.80999994277954
1216.3526815,16.1599998474121
1216.3683065,26.0799999237061
1216.3839315,34.439998626709
1216.3995565,40.689998626709
1216.4151815,44.7400016784668
1216.4308065,47.0099983215332
1216.4464315,48.1500015258789
1216.4620565,48.6300010681152
1216.4776815,48.4700012207031
1216.4933065,47.5699996948242
1216.5089315,46.0499992370605
1216.5245565,43.939998626709
1216.5401815,40.75
1216.5558065,35.9300003051758
1216.5714315,29.5
1216.5870565,22.3299999237061
1216.6026815,15.6000003814697
1216.6183065,10.1099996566772
1216.6339315,5.80999994277954
1216.6495565,2.03999996185303
1216.6651815,-2.0
1216.6808065,-6.75
1216.6964315,-11.9300003051758
1216.7120565,-16.7399997711182
1216.7276815,-20.3899993896484
1216.7433065,-22.5900001525879
1216.7589315,-23.5300006866455
1216.7745565,-23.6599998474121
1216.7901815,-23.5200004577637
1216.8058065,-23.5499992370605
1216.8214315,-23.8899993896484
1216.8370565,-24.2600002288818
1216.8526815,-24.2399997711182
1216.8683065,-23.6700000762939
1216.8839315,-22.8799991607666
1216.8995565,-22.3600006103516
1216.9151815,-22.2800006866455
1216.9308065,-22.4699993133545
1216.9464315,-22.6900005340576
1216.9620565,-22.6900005340576
1216.9776815,-22.1000003814697
1216.9933065,-20.6299991607666
1217.0089315,-18.5200004577637
1217.0245565,-16.6100006103516
1217.0401815,-15.7600002288818
1217.0558065,-16.0699996948242
1217.0714315,-16.3500003814697
1217.0870565,-14.3299999237061
1217.1026815,-8.19999980926514
1217.1183065,1.95000004768372
1217.1339315,13.9499998092651
1217.1495565,24.9200000762939
1217.1651815,32.939998626709
1217.1808065,37.7099990844727
1217.1964315,40.2400016784668
1217.2120565,41.9199981689453
1217.2276815,43.6800003051758
1217.2433065,45.7799987792969
1217.2589315,47.9300003051758
1217.2745565,49.5400009155273
1217.2901815,49.9700012207031
1217.3058065,48.5900001525879
1217.3214315,44.8400001525879
1217.3370565,38.4500007629395
1217.3526815,29.7399997711182
1217.3683065,19.6299991607666
1217.3839315,9.46000003814697
1217.3995565,0.569999992847443
1217.4151815,-6.11999988555908
1217.4308065,-10.5200004577637
1217.4464315,-13.2299995422363
1217.4620565,-15.2200002670288
1217.4776815,-17.3099994659424
1217.4933065,-19.7600002288818
1217.5089315,-22.3400001525879
1217.5245565,-24.6800003051758
1217.5401815,-26.5599994659424
1217.5558065,-27.8600006103516
1217.5714315,-28.4899997711182
1217.5870565,-28.4500007629395
1217.6026815,-27.9300003051758
1217.6183065,-27.3299999237061
1217.6339315,-26.9799995422363
1217.6495565,-26.8799991607666
1217.6651815,-26.6000003814697
1217.6808065,-25.5900001525879
1217.6964315,-23.6599998474121
1217.7120565,-21.1399993896484
1217.7276815,-18.5799999237061
1217.7433065,-16.4799995422363
1217.7589315,-15.1599998474121
1217.7745565,-14.8999996185303
1217.7901815,-15.789999961853
1217.8058065,-17.6000003814697
1217.8214315,-19.6900005340576
1217.8370565,-21.1900005340576
1217.8526815,-21.1100006103516
1217.8683065,-18.3799991607666
1217.8839315,-12.1499996185303
1217.8995565,-2.47000002861023
1217.9151815,9.39999961853027
1217.9308065,21.2900009155273
1217.9464315,30.8400001525879
1217.9620565,36.5999984741211
1217.9776815,38.6500015258789
1217.9933065,38.4099998474121
1218.0089315,37.7400016784668
1218.0245565,38.1500015258789
1218.0401815,40.3400001525879
1218.0558065,44.0299987792969
1218.0714315,47.8400001525879
1218.0870565,49.6599998474121
1218.1026815,47.4799995422363
1218.1183065,40.4700012207031
1218.1339315,29.7399997711182
1218.1495565,17.8799991607666
1218.1651815,7.51999998092651
1218.1808065,0.159999996423721
1218.1964315,-4.30000019073486
1218.2120565,-7.05000019073486
1218.2276815,-9.48999977111816
1218.2433065,-12.6400003433228
1218.2589315,-16.75
1218.2745565,-21.25
1218.2901815,-25.1100006103516
1218.3058065,-27.4699993133545
1218.3214315,-28.1900005340576
1218.3370565,-28.0
1218.3526815,-28.0799999237061
1218.3683065,-29.2600002288818
1218.3839315,-31.5
1218.3995565,-33.9599990844727
1218.4151815,-35.689998626709
1218.4308065,-36.1599998474121
1218.4464315,-35.3199996948242
1218.4620565,-33.4199981689453
1218.4776815,-30.9300003051758
1218.4933065,-28.3099994659424
1218.5089315,-25.8299999237061
1218.5245565,-23.4899997711182
1218.5401815,-21.3199996948242
1218.5558065,-19.6000003814697
1218.5714315,-18.6200008392334
1218.5870565,-18.2999992370605
1218.6026815,-18.2199993133545
1218.6183065,-17.8700008392334
1218.6339315,-16.7199993133545
1218.6495565,-14.0799999237061
1218.6651815,-9.17000007629395
1218.6808065,-1.61000001430511
1218.6964315,8.25
1218.7120565,19.1800003051758
1218.7276815,29.3299999237061
1218.7433065,37.0400009155273
1218.7589315,41.6199989318848
1218.7745565,43.3300018310547
1218.7901815,42.9900016784668
1218.8058065,41.6399993896484
1218.8214315,40.2700004577637
1218.8370565,39.3499984741211
1218.8526815,38.5200004577637
1218.8683065,36.939998626709
1218.8839315,33.9700012207031
1218.8995565,29.3700008392334
1218.9151815,23.4699993133545
1218.9308065,16.9200000762939
1218.9464315,10.4700002670288
1218.9620565,4.69999980926514
1218.9776815,0.0
1218.9933065,-3.54999995231628
1219.0089315,-6.17999982833862
1219.0245565,-8.38000011444092
1219.0401815,-10.8100004196167
1219.0558065,-13.8599996566772
1219.0714315,-17.3799991607666
1219.0870565,-20.7700004577637
1219.1026815,-23.4699993133545
1219.1183065,-25.2900009155273
1219.1339315,-26.2299995422363
1219.1495565,-26.3700008392334
1219.1651815,-25.7900009155273
1219.1808065,-24.6200008392334
1219.1964315,-22.9200000762939
1219.2120565,-20.7399997711182
1219.2276815,-18.1499996185303
1219.2433065,-15.3800001144409
1219.2589315,-12.75
1219.2745565,-10.5299997329712
1219.2901815,-8.92000007629395
1219.3058065,-8.05000019073486
1219.3214315,-7.84999990463257
1219.3370565,-8.0
1219.3526815,-8.27999973297119
1219.3683065,-8.85999965667725
1219.3839315,-9.93000030517578
1219.3995565,-11.1599998474121
1219.4151815,-11.7299995422363
1219.4308065,-10.7399997711182
1219.4464315,-7.40000009536743
1219.4620565,-1.35000002384186
1219.4776815,6.96000003814697
1219.4933065,16.1499996185303
1219.5089315,24.3899993896484
1219.5245565,30.2999992370605
1219.5401815,33.5400009155273
1219.5558065,34.7400016784668
1219.5714315,34.939998626709
1219.5870565,35.0499992370605
1219.6026815,35.4599990844727
1219.6183065,36.0
1219.6339315,36.0699996948242
1219.6495565,34.7299995422363
1219.6651815,31.1000003814697
1219.6808065,24.9799995422363
1219.6964315,17.3299999237061
1219.7120565,9.89999961853027
1219.7276815,4.19000005722046
1219.7433065,0.629999995231628
1219.7589315,-1.27999997138977
1219.7745565,-2.3199999332428
1219.7901815,-2.99000000953674
1219.8058065,-3.75
1219.8214315,-5.15999984741211
1219.8370565,-7.42999982833862
1219.8526815,-10.0600004196167
1219.8683065,-12.210000038147
1219.8839315,-13.3500003814697
1219.8995565,-13.3299999237061
1219.9151815,-12.25
1219.9308065,-10.5600004196167
1219.9464315,-9.27999973297119
1219.9620565,-9.38000011444092
1219.9776815,-10.8900003433228
1219.9933065,-12.8199996948242
1220.0089315,-14.2700004577637
1220.0245565,-15.1499996185303
1220.0401815,-15.8699998855591
1220.0558065,-16.6499996185303
1220.0714315,-17.2700004577637
1220.0870565,-17.3099994659424
1220.1026815,-16.5100002288818
1220.1183065,-14.9200000762939
1220.1339315,-12.75
1220.1495565,-10.3299999237061
1220.1651815,-8.17000007629395
1220.1808065,-6.80000019073486
1220.1964315,-6.17999982833862
1220.2120565,-5.34000015258789
1220.2276815,-2.76999998092651
1220.2433065,2.55999994277954
1220.2589315,10.3999996185303
1220.2745565,19.1599998474121
1220.2901815,26.8600006103516
1220.3058065,32.1300010681152
1220.3214315,34.6699981689453
1220.3370565,35.0999984741211
1220.3526815,34.3899993896484
1220.3683065,33.3600006103516
1220.3839315,32.4500007629395
