Time(s),Value(%)
1466.0008137,-91.620002746582
1466.0164387,-90.2799987792969
1466.0320637,-88.120002746582
1466.0476887,-85.4700012207031
1466.0633137,-82.8399963378906
1466.0789387,-80.629997253418
1466.0945637,-78.7200012207031
1466.1101887,-76.4700012207031
1466.1258137,-73.4100036621094
1466.1414387,-69.9100036621094
1466.1570637,-66.8000030517578
1466.1726887,-64.5100021362305
1466.1883137,-62.7799987792969
1466.2039387,-61.0299987792969
1466.2195637,-58.8899993896484
1466.2351887,-56.3699989318848
1466.2508137,-54.1100006103516
1466.2664387,-53.2200012207031
1466.2820637,-54.689998626709
1466.2976887,-58.8300018310547
1466.3133137,-65.8099975585938
1466.3289387,-76.25
1466.3445637,-90.8300018310547
1466.3601887,-109.040000915527
1466.3758137,-128.539993286133
1466.3914387,-145.880004882813
1466.4070637,-158.889999389648
1466.4226887,-168.259994506836
1466.4383137,-173.449996948242
1466.4539387,-177.940002441406
1466.4695637,-180.850006103516
1466.4851887,-180.990005493164
1466.5008137,-178.139999389648
1466.5164387,-173.009994506836
1466.5320637,-166.399993896484
1466.5476887,-158.410003662109
1466.5633137,-148.729995727539
1466.5789387,-137.380004882813
1466.5945637,-125.290000915527
1466.6101887,-114.080001831055
1466.6258137,-105.190002441406
1466.6414387,-99.0299987792969
1466.6570637,-94.7099990844727
1466.6726887,-90.5699996948242
1466.6883137,-85.4100036621094
1466.7039387,-79.3499984741211
1466.7195637,-73.2300033569336
1466.7351887,-67.4899978637695
1466.7508137,-61.8300018310547
1466.7664387,-55.75
1466.7820637,-49.0200004577637
1466.7976887,-42.0099983215332
1466.8133137,-35.8699989318848
1466.8289387,-32.4799995422363
1466.8445637,-33.3800010681152
1466.8601887,-38.9199981689453
1466.8758137,-48.9300003051758
1466.8914387,-63.7799987792969
1466.9070637,-83.9599990844727
1466.9226887,-108.580001831055
1466.9383137,-134.440002441406
1466.9539387,-156.880004882813
1466.9695637,-172.710006713867
1466.9851887,-182.339996337891
1467.0008137,-188.130004882813
1467.0164387,-191.320007324219
1467.0320637,-191.289993286133
1467.0476887,-187.169998168945
1467.0633137,-179.179992675781
1467.0789387,-168.830001831055
1467.0945637,-158.5
1467.1101887,-150.759994506836
1467.1258137,-147.320007324219
1467.1414387,-148.25
1467.1570637,-152.589996337891
1467.1726887,-159.360000610352
1467.1883137,-167.979995727539
1467.2039387,-177.539993286133
1467.2195637,-185.649993896484
1467.2351887,-188.429992675781
1467.2508137,-182.529998779297
1467.2664387,-167.529998779297
1467.2820637,-145.699996948242
1467.2976887,-120.129997253418
1467.3133137,-93.1800003051758
1467.3289387,-66.2900009155273
1467.3445637,-40.2200012207031
1467.3601887,-15.3699998855591
1467.3758137,7.8899998664856
1467.3914387,29.1000003814697
1467.4070637,47.9000015258789
1467.4226887,64.3000030517578
1467.4383137,77.0500030517578
1467.4539387,88.0400009155273
1467.4695637,97.9000015258789
1467.4851887,107.040000915527
1467.5008137,115.860000610352
1467.5164387,124.930000305176
1467.5320637,134.710006713867
1467.5476887,145.270004272461
1467.5633137,156.119995117188
1467.5789387,166.580001831055
1467.5945637,176.050003051758
1467.6101887,184.220001220703
1467.6258137,191.119995117188
1467.6414387,196.940002441406
1467.6570637,201.899993896484
1467.6726887,206.139999389648
1467.6883137,209.720001220703
1467.7039387,212.669998168945
1467.7195637,215.080001831055
1467.7351887,217.110000610352
1467.7508137,218.929992675781
1467.7664387,220.589996337891
1467.7820637,222.009994506836
1467.7976887,223.059997558594
1467.8133137,223.759994506836
1467.8289387,224.289993286133
1467.8445637,224.889999389648
1467.8601887,225.539993286133
1467.8758137,225.970001220703
1467.8914387,225.899993896484
1467.9070637,225.169998168945
1467.9226887,223.800003051758
1467.9383137,222.059997558594
1467.9539387,220.309997558594
1467.9695637,218.869995117188
1467.9851887,217.830001831055
1468.0008137,217.169998168945
1468.0164387,216.949996948242
1468.0320637,217.240005493164
1468.0476887,217.889999389648
1468.0633137,218.360000610352
1468.0789387,217.830001831055
1468.0945637,215.75
1468.1101887,212.300003051758
1468.1258137,208.100006103516
1468.1414387,203.550003051758
1468.1570637,198.619995117188
1468.1726887,193.119995117188
1468.1883137,186.970001220703
1468.2039387,180.289993286133
1468.2195637,173.350006103516
1468.2351887,166.429992675781
1468.2508137,159.740005493164
1468.2664387,153.339996337891
1468.2820637,147.259994506836
1468.2976887,141.649993896484
1468.3133137,136.639999389648
1468.3289387,132.179992675781
1468.3445637,127.800003051758
1468.3601887,122.75
1468.3758137,116.470001220703
1468.3914387,109.040000915527
1468.4070637,100.949996948242
1468.4226887,92.6500015258789
1468.4383137,84.9499969482422
1468.4539387,77.4800033569336
1468.4695637,70.5599975585938
1468.4851887,64.2900009155273
1468.5008137,58.3899993896484
1468.5164387,52.3499984741211
1468.5320637,45.9000015258789
1468.5476887,39.3800010681152
1468.5633137,33.3400001525879
1468.5789387,27.9300003051758
1468.5945637,22.75
1468.6101887,17.2399997711182
1468.6258137,11.1000003814697
1468.6414387,4.3899998664856
1468.6570637,-2.54999995231628
1468.6726887,-9.27999973297119
1468.6883137,-15.5
1468.7039387,-21.0799999237061
1468.7195637,-25.9400005340576
1468.7351887,-29.8199996948242
1468.7508137,-32.4799995422363
1468.7664387,-34.0299987792969
1468.7820637,-35.25
1468.7976887,-37.3800010681152
1468.8133137,-41.3199996948242
1468.8289387,-46.939998626709
1468.8445637,-53.4300003051758
1468.8601887,-60.1500015258789
1468.8758137,-67.0199966430664
1468.8914387,-74.2099990844727
1468.9070637,-81.7900009155273
1468.9226887,-89.620002746582
1468.9383137,-97.370002746582
1468.9539387,-104.660003662109
1468.9695637,-111.23999786377
1468.9851887,-117.040000915527
1469.0008137,-122.069999694824
1469.0164387,-126.209999084473
1469.0320637,-129.360000610352
1469.0476887,-131.619995117188
1469.0633137,-133.589996337891
1469.0789387,-136.240005493164
1469.0945637,-140.279998779297
1469.1101887,-145.639999389648
1469.1258137,-151.669998168945
1469.1414387,-157.809997558594
1469.1570637,-163.839996337891
1469.1726887,-169.800003051758
1469.1883137,-175.729995727539
1469.2039387,-181.529998779297
1469.2195637,-186.929992675781
1469.2351887,-191.470001220703
1469.2508137,-194.789993286133
1469.2664387,-196.779998779297
1469.2820637,-197.289993286133
1469.2976887,-195.919998168945
1469.3133137,-192.279998779297
1469.3289387,-186.550003051758
1469.3445637,-179.789993286133
1469.3601887,-173.539993286133
1469.3758137,-168.809997558594
1469.3914387,-165.360000610352
1469.4070637,-162.360000610352
1469.4226887,-159.550003051758
1469.4383137,-155.979995727539
1469.4539387,-153.789993286133
1469.4695637,-153.039993286133
1469.4851887,-153.25
1469.5008137,-153.649993896484
1469.5164387,-153.5
1469.5320637,-152.350006103516
1469.5476887,-150.179992675781
1469.5633137,-147.050003051758
1469.5789387,-142.839996337891
1469.5945637,-137.369995117188
1469.6101887,-130.850006103516
1469.6258137,-124.199996948242
1469.6414387,-118.949996948242
1469.6570637,-116.220001220703
1469.6726887,-115.930000305176
1469.6883137,-117.129997253418
1469.7039387,-118.980003356934
1469.7195637,-121.169998168945
1469.7351887,-123.709999084473
1469.7508137,-126.569999694824
1469.7664387,-129.600006103516
1469.7820637,-132.630004882813
1469.7976887,-135.639999389648
1469.8133137,-138.669998168945
1469.8289387,-141.740005493164
1469.8445637,-144.75
1469.8601887,-147.550003051758
1469.8758137,-149.970001220703
1469.8914387,-151.979995727539
1469.9070637,-153.690002441406
1469.9226887,-155.429992675781
1469.9383137,-157.440002441406
1469.9539387,-159.720001220703
1469.9695637,-161.990005493164
1469.9851887,-163.910003662109
1470.0008137,-165.289993286133
1470.0164387,-166.089996337891
1470.0320637,-166.410003662109
1470.0476887,-166.309997558594
1470.0633137,-165.550003051758
1470.0789387,-163.520004272461
1470.0945637,-159.610000610352
1470.1101887,-153.710006713867
1470.1258137,-146.179992675781
1470.1414387,-137.5
1470.1570637,-128.050003051758
1470.1726887,-118.269996643066
1470.1883137,-108.870002746582
1470.2039387,-100.839996337891
1470.2195637,-94.870002746582
1470.2351887,-90.7799987792969
1470.2508137,-87.7699966430664
1470.2664387,-85.1699981689453
1470.2820637,-82.7300033569336
1470.2976887,-80.4899978637695
1470.3133137,-78.4899978637695
1470.3289387,-76.6999969482422
1470.3445637,-74.9899978637695
1470.3601887,-73.2300033569336
1470.3758137,-71.379997253418
1470.3914387,-69.4000015258789
1470.4070637,-67.2399978637695
1470.4226887,-64.8399963378906
1470.4383137,-61.7400016784668
1470.4539387,-58.4000015258789
1470.4695637,-55.0499992370605
1470.4851887,-52.1300010681152
1470.5008137,-50.0099983215332
1470.5164387,-48.7599983215332
1470.5320637,-48.1800003051758
1470.5476887,-47.9099998474121
1470.5633137,-47.689998626709
1470.5789387,-47.3400001525879
1470.5945637,-46.7900009155273
1470.6101887,-46.0400009155273
1470.6258137,-45.1500015258789
1470.6414387,-44.2599983215332
1470.6570637,-43.4900016784668
1470.6726887,-42.8300018310547
1470.6883137,-42.1100006103516
1470.7039387,-41.0200004577637
1470.7195637,-39.310001373291
1470.7351887,-36.9000015258789
1470.7508137,-33.8899993896484
1470.7664387,-30.4099998474121
1470.7820637,-26.4400005340576
1470.7976887,-21.7700004577637
1470.8133137,-16.2700004577637
1470.8289387,-10.1599998474121
1470.8445637,-3.80999994277954
1470.8601887,2.44000005722046
1470.8758137,8.57999992370605
1470.8914387,14.6099996566772
1470.9070637,20.3999996185303
1470.9226887,25.5900001525879
1470.9383137,29.8299999237061
1470.9539387,33.0699996948242
1470.9695637,35.5099983215332
1470.9851887,37.4199981689453
1471.0008137,38.9700012207031
1471.0164387,40.2700004577637
1471.0320637,41.4300003051758
1471.0476887,42.5299987792969
1471.0633137,43.6300010681152
1471.0789387,44.7000007629395
1471.0945637,45.7099990844727
1471.1101887,46.6100006103516
1471.1258137,47.4000015258789
1471.1414387,48.0299987792969
1471.1570637,48.4900016784668
1471.1726887,48.7999992370605
1471.1883137,49.0200004577637
1471.2039387,49.2400016784668
1471.2195637,49.4700012207031
1471.2351887,49.6699981689453
1471.2508137,49.810001373291
1471.2664387,49.9500007629395
1471.2820637,50.2200012207031
1471.2976887,50.7200012207031
1471.3133137,51.4799995422363
1471.3289387,52.4000015258789
1471.3445637,53.3600006103516
1471.3601887,54.2000007629395
1471.3758137,54.7999992370605
1471.3914387,55.1500015258789
1471.4070637,55.3800010681152
1471.4226887,55.6300010681152
1471.4383137,55.8300018310547
1471.4539387,56.2599983215332
1471.4695637,56.9700012207031
1471.4851887,58.0800018310547
1471.5008137,59.7900009155273
1471.5164387,62.3300018310547
1471.5320637,65.7600021362305
1471.5476887,69.870002746582
1471.5633137,74.25
1471.5789387,78.4800033569336
1471.5945637,82.3099975585938
1471.6101887,85.6600036621094
1471.6258137,88.5400009155273
1471.6414387,90.9499969482422
1471.6570637,92.8399963378906
1471.6726887,94.1999969482422
1471.6883137,95.0199966430664
1471.7039387,95.1699981689453
1471.7195637,94.5299987792969
1471.7351887,93.120002746582
1471.7508137,91.1500015258789
1471.7664387,88.7900009155273
1471.7820637,86.0
1471.7976887,82.4599990844727
1471.8133137,78.0100021362305
1471.8289387,72.9400024414063
1471.8445637,67.9199981689453
1471.8601887,63.5900001525879
1471.8758137,60.1599998474121
1471.8914387,57.5099983215332
1471.9070637,55.2400016784668
1471.9226887,52.9000015258789
1471.9383137,50.2000007629395
1471.9539387,47.0999984741211
1471.9695637,43.8300018310547
1471.9851887,40.6699981689453
1472.0008137,37.8400001525879
1472.0164387,35.4900016784668
1472.0320637,33.8899993896484
1472.0476887,33.4900016784668
1472.0633137,34.7400016784668
1472.0789387,37.6199989318848
1472.0945637,41.5900001525879
1472.1101887,45.8699989318848
1472.1258137,49.8400001525879
1472.1414387,53.2000007629395
1472.1570637,55.9599990844727
1472.1726887,58.3400001525879
1472.1883137,60.5900001525879
1472.2039387,62.9000015258789
1472.2195637,65.3600006103516
1472.2351887,67.9100036621094
1472.2508137,70.4000015258789
1472.2664387,72.5899963378906
1472.2820637,74.3199996948242
1472.2976887,75.5699996948242
1472.3133137,76.3899993896484
1472.3289387,76.8000030517578
1472.3445637,76.4000015258789
1472.3601887,74.379997253418
1472.3758137,69.9700012207031
1472.3914387,63.25
1472.4070637,55.0900001525879
1472.4226887,46.7000007629395
1472.4383137,39.6300010681152
1472.4539387,33.3400001525879
1472.4695637,27.5300006866455
1472.4851887,21.3700008392334
1472.5008137,14.039999961853
1472.5164387,5.32000017166138
1472.5320637,-4.21000003814697
1472.5476887,-13.5200004577637
1472.5633137,-21.6000003814697
1472.5789387,-27.8500003814697
1472.5945637,-31.6599998474121
1472.6101887,-31.9400005340576
1472.6258137,-27.6900005340576
1472.6414387,-19.0300006866455
1472.6570637,-7.46999979019165
1472.6726887,4.71999979019165
1472.6883137,15.6099996566772
1472.7039387,24.3099994659424
1472.7195637,31.0100002288818
1472.7351887,36.4300003051758
1472.7508137,41.0400009155273
1472.7664387,44.5800018310547
1472.7820637,46.439998626709
1472.7976887,46.3300018310547
1472.8133137,44.4900016784668
1472.8289387,41.4900016784668
1472.8445637,37.9099998474121
1472.8601887,34.2599983215332
1472.8758137,31.2099990844727
1472.8914387,29.6299991607666
1472.9070637,30.2999992370605
1472.9226887,33.4900016784668
1472.9383137,38.8300018310547
1472.9539387,45.5800018310547
1472.9695637,52.939998626709
1472.9851887,60.2700004577637
1473.0008137,67.1399993896484
1473.0164387,73.4100036621094
1473.0320637,79.2200012207031
1473.0476887,84.9100036621094
1473.0633137,90.8199996948242
1473.0789387,97.0299987792969
1473.0945637,103.410003662109
1473.1101887,109.709999084473
1473.1258137,115.720001220703
1473.1414387,121.269996643066
1473.1570637,126.029998779297
1473.1726887,129.520004272461
1473.1883137,131.339996337891
1473.2039387,131.550003051758
1473.2195637,130.610000610352
1473.2351887,129.070007324219
1473.2508137,127.269996643066
1473.2664387,125.370002746582
1473.2820637,123.370002746582
1473.2976887,121.230003356934
1473.3133137,118.949996948242
1473.3289387,116.610000610352
1473.3445637,114.279998779297
1473.3601887,112.01000213623
1473.3758137,109.800003051758
1473.3914387,107.589996337891
1473.4070637,105.360000610352
1473.4226887,103.059997558594
1473.4383137,101.220001220703
1473.4539387,98.9199981689453
1473.4695637,95.9800033569336
1473.4851887,92.3600006103516
1473.5008137,88.1900024414063
1473.5164387,83.6999969482422
1473.5320637,79.25
1473.5476887,75.3899993896484
1473.5633137,72.5400009155273
1473.5789387,70.7799987792969
1473.5945637,69.7600021362305
1473.6101887,69.0299987792969
1473.6258137,68.370002746582
1473.6414387,67.9599990844727
1473.6570637,67.9700012207031
1473.6726887,68.1699981689453
1473.6883137,67.9400024414063
1473.7039387,66.75
1473.7195637,64.4899978637695
1473.7351887,61.3899993896484
1473.7508137,57.7400016784668
1473.7664387,53.6100006103516
1473.7820637,48.9300003051758
1473.7976887,43.6500015258789
1473.8133137,37.8600006103516
1473.8289387,31.7000007629395
1473.8445637,25.3600006103516
1473.8601887,18.9599990844727
1473.8758137,12.5200004577637
1473.8914387,5.90999984741211
1473.9070637,-1.05999994277954
1473.9226887,-8.55000019073486
1473.9383137,-16.4899997711182
1473.9539387,-24.5900001525879
1473.9695637,-32.4700012207031
1473.9851887,-39.8400001525879
1474.0008137,-46.6100006103516
1474.0164387,-52.8699989318848
1474.0320637,-58.8400001525879
1474.0476887,-64.6999969482422
1474.0633137,-70.5899963378906
1474.0789387,-76.5299987792969
1474.0945637,-82.5199966430664
1474.1101887,-88.5800018310547
1474.1258137,-94.8000030517578
1474.1414387,-101.110000610352
1474.1570637,-107.269996643066
1474.1726887,-112.889999389648
1474.1883137,-117.73999786377
1474.2039387,-121.919998168945
1474.2195637,-125.730003356934
1474.2351887,-129.360000610352
1474.2508137,-132.729995727539
1474.2664387,-135.679992675781
1474.2820637,-138.130004882813
1474.2976887,-140.110000610352
1474.3133137,-141.630004882813
1474.3289387,-142.619995117188
1474.3445637,-142.979995727539
1474.3601887,-142.690002441406
1474.3758137,-141.850006103516
1474.3914387,-140.539993286133
1474.4070637,-138.839996337891
1474.4226887,-136.860000610352
1474.4383137,-134.800003051758
1474.4539387,-132.610000610352
1474.4695637,-130.300003051758
1474.4851887,-127.819999694824
1474.5008137,-125.150001525879
1474.5164387,-122.440002441406
1474.5320637,-119.910003662109
1474.5476887,-117.699996948242
1474.5633137,-115.809997558594
1474.5789387,-114.120002746582
1474.5945637,-112.470001220703
1474.6101887,-110.669998168945
1474.6258137,-108.650001525879
1474.6414387,-106.400001525879
1474.6570637,-103.970001220703
1474.6726887,-101.400001525879
1474.6883137,-98.7200012207031
1474.7039387,-95.9499969482422
1474.7195637,-93.2300033569336
1474.7351887,-90.8000030517578
1474.7508137,-88.8300018310547
1474.7664387,-87.3600006103516
1474.7820637,-86.25
1474.7976887,-85.3399963378906
1474.8133137,-84.5299987792969
1474.8289387,-83.7799987792969
1474.8445637,-83.0400009155273
1474.8601887,-82.2900009155273
1474.8758137,-81.5199966430664
1474.8914387,-80.7699966430664
1474.9070637,-80.0500030517578
1474.9226887,-79.379997253418
1474.9383137,-78.7300033569336
1474.9539387,-78.0599975585938
1474.9695637,-77.3199996948242
1474.9851887,-76.5100021362305
1475.0008137,-75.5999984741211
1475.0164387,-74.5899963378906
1475.0320637,-73.4700012207031
1475.0476887,-72.2600021362305
1475.0633137,-71.0
1475.0789387,-69.7799987792969
1475.0945637,-68.6600036621094
1475.1101887,-67.6500015258789
1475.1258137,-66.7300033569336
1475.1414387,-65.870002746582
1475.1570637,-65.129997253418
1475.1726887,-64.7300033569336
1475.1883137,-64.8499984741211
1475.2039387,-65.5
1475.2195637,-66.620002746582
1475.2351887,-68.2799987792969
1475.2508137,-70.620002746582
1475.2664387,-73.5800018310547
1475.2820637,-76.7699966430664
1475.2976887,-79.5899963378906
1475.3133137,-81.6500015258789
1475.3289387,-83.0299987792969
1475.3445637,-84.0699996948242
1475.3601887,-84.8099975585938
1475.3758137,-84.9899978637695
1475.3914387,-84.3600006103516
1475.4070637,-82.9100036621094
1475.4226887,-80.9000015258789
1475.4383137,-78.2099990844727
1475.4539387,-76.0800018310547
1475.4695637,-74.9000015258789
1475.4851887,-74.7099990844727
1475.5008137,-75.3399963378906
1475.5164387,-76.7300033569336
1475.5320637,-78.870002746582
1475.5476887,-81.5400009155273
1475.5633137,-84.0999984741211
1475.5789387,-85.5800018310547
1475.5945637,-85.3099975585938
1475.6101887,-83.4899978637695
1475.6258137,-80.8499984741211
1475.6414387,-77.9400024414063
1475.6570637,-74.8000030517578
1475.6726887,-71.2799987792969
1475.6883137,-67.3000030517578
1475.7039387,-62.9900016784668
1475.7195637,-58.7299995422363
1475.7351887,-55.0900001525879
1475.7508137,-52.5099983215332
1475.7664387,-51.1199989318848
1475.7820637,-50.9900016784668
1475.7976887,-52.4099998474121
1475.8133137,-55.689998626709
1475.8289387,-60.6199989318848
1475.8445637,-66.0999984741211
1475.8601887,-70.5500030517578
1475.8758137,-73.0199966430664
1475.8914387,-73.9700012207031
1475.9070637,-74.5400009155273
1475.9226887,-75.2200012207031
1475.9383137,-75.5
1475.9539387,-74.6399993896484
1475.9695637,-72.2900009155273
1475.9851887,-68.6999969482422
1476.0008137,-64.3399963378906
1476.0164387,-59.5299987792969
1476.0320637,-54.4000015258789
1476.0476887,-48.9900016784668
1476.0633137,-43.5400009155273
1476.0789387,-38.5299987792969
1476.0945637,-34.4199981689453
1476.1101887,-31.25
1476.1258137,-28.3999996185303
1476.1414387,-24.7099990844727
1476.1570637,-19.3600006103516
1476.1726887,-12.5299997329712
1476.1883137,-5.15000009536743
1476.2039387,1.97000002861023
1476.2195637,8.55000019073486
1476.2351887,14.5600004196167
1476.2508137,20.0400009155273
1476.2664387,25.1200008392334
1476.2820637,30.1599998474121
1476.2976887,35.7599983215332
1476.3133137,42.3600006103516
1476.3289387,49.8300018310547
