Time(s),Value(%)
1034.0043075,49.310001373291
1034.0199325,44.8600006103516
1034.0355575,40.8300018310547
1034.0511825,37.0099983215332
1034.0668075,33.0999984741211
1034.0824325,28.7900009155273
1034.0980575,24.0100002288818
1034.1136825,18.7399997711182
1034.1293075,12.8500003814697
1034.1449325,6.21999979019165
1034.1605575,-1.00999999046326
1034.1761825,-8.27999973297119
1034.1918075,-14.710000038147
1034.2074325,-19.7999992370605
1034.2230575,-23.8600006103516
1034.2386825,-27.6200008392334
1034.2543075,-31.4500007629395
1034.2699325,-35.1199989318848
1034.2855575,-38.1800003051758
1034.3011825,-40.3600006103516
1034.3168075,-41.75
1034.3324325,-42.8300018310547
1034.3480575,-44.2799987792969
1034.3636825,-46.6599998474121
1034.3793075,-50.0999984741211
1034.3949325,-54.4599990844727
1034.4105575,-59.6100006103516
1034.4261825,-65.5100021362305
1034.4418075,-71.8499984741211
1034.4574325,-77.75
1034.4730575,-81.7799987792969
1034.4886825,-82.7699966430664
1034.5043075,-80.5599975585938
1034.5199325,-75.9300003051758
1034.5355575,-69.8099975585938
1034.5511825,-62.8699989318848
1034.5668075,-55.5200004577637
1034.5824325,-48.0200004577637
1034.5980575,-40.5400009155273
1034.6136825,-32.9900016784668
1034.6293075,-24.9599990844727
1034.6449325,-16.0
1034.6605575,-6.0
1034.6761825,4.84000015258789
1034.6918075,16.3299999237061
1034.7074325,28.2999992370605
1034.7230575,40.4700012207031
1034.7386825,52.310001373291
1034.7543075,63.1500015258789
1034.7699325,72.629997253418
1034.7855575,81.0400009155273
1034.8011825,88.9199981689453
1034.8168075,96.4499969482422
1034.8324325,103.370002746582
1034.8480575,108.949996948242
1034.8636825,113.400001525879
1034.8793075,116.870002746582
1034.8949325,119.639999389648
1034.9105575,121.900001525879
1034.9261825,123.75
1034.9418075,125.190002441406
1034.9574325,126.26000213623
1034.9730575,127.019996643066
1034.9886825,127.540000915527
1035.0043075,127.839996337891
1035.0199325,127.73999786377
1035.0355575,126.879997253418
1035.0511825,124.870002746582
1035.0668075,121.650001525879
1035.0824325,117.480003356934
1035.0980575,112.809997558594
1035.1136825,108.080001831055
1035.1293075,103.550003051758
1035.1449325,99.2900009155273
1035.1605575,95.2600021362305
1035.1761825,91.4800033569336
1035.1918075,88.1500015258789
1035.2074325,85.4400024414063
1035.2230575,83.4499969482422
1035.2386825,82.1900024414063
1035.2543075,81.7799987792969
1035.2699325,82.3199996948242
1035.2855575,83.6999969482422
1035.3011825,85.4300003051758
1035.3168075,86.879997253418
1035.3324325,87.6600036621094
1035.3480575,87.879997253418
1035.3636825,87.8399963378906
1035.3793075,87.5699996948242
1035.3949325,86.870002746582
1035.4105575,85.6600036621094
1035.4261825,84.120002746582
1035.4418075,82.4899978637695
1035.4574325,80.7699966430664
1035.4730575,78.629997253418
1035.4886825,75.7099990844727
1035.5043075,71.9300003051758
1035.5199325,67.4800033569336
1035.5355575,62.6100006103516
1035.5511825,57.4500007629395
1035.5668075,52.060001373291
1035.5824325,46.560001373291
1035.5980575,41.0499992370605
1035.6136825,35.5999984741211
1035.6293075,30.1800003051758
1035.6449325,24.7199993133545
1035.6605575,19.2000007629395
1035.6761825,13.6199998855591
1035.6918075,8.02000045776367
1035.7074325,2.42000007629395
1035.7230575,-3.11999988555908
1035.7386825,-8.56999969482422
1035.7543075,-13.8800001144409
1035.7699325,-19.0599994659424
1035.7855575,-24.1800003051758
1035.8011825,-29.2900009155273
1035.8168075,-34.3300018310547
1035.8324325,-39.1399993896484
1035.8480575,-43.2799987792969
1035.8636825,-47.0
1035.8793075,-50.3400001525879
1035.8949325,-53.3400001525879
1035.9105575,-55.9900016784668
1035.9261825,-58.2200012207031
1035.9418075,-60.0400009155273
1035.9574325,-61.439998626709
1035.9730575,-62.4000015258789
1035.9886825,-62.8800010681152
1036.0043075,-62.9500007629395
1036.0199325,-62.75
1036.0355575,-62.439998626709
1036.0511825,-62.1100006103516
1036.0668075,-61.7599983215332
1036.0824325,-61.3499984741211
1036.0980575,-60.9500007629395
1036.1136825,-60.7400016784668
1036.1293075,-60.810001373291
1036.1449325,-61.1399993896484
1036.1605575,-61.6300010681152
1036.1761825,-62.1800003051758
1036.1918075,-62.810001373291
1036.2074325,-63.5800018310547
1036.2230575,-64.5299987792969
1036.2386825,-65.6600036621094
1036.2543075,-66.9599990844727
1036.2699325,-68.4300003051758
1036.2855575,-70.0
1036.3011825,-71.5899963378906
1036.3168075,-73.0800018310547
1036.3324325,-74.5
1036.3480575,-75.9800033569336
1036.3636825,-77.6699981689453
1036.3793075,-79.5299987792969
1036.3949325,-81.3499984741211
1036.4105575,-82.8899993896484
1036.4261825,-84.0400009155273
1036.4418075,-84.8300018310547
1036.4574325,-85.4400024414063
1036.4730575,-86.1399993896484
1036.4886825,-87.120002746582
1036.5043075,-88.4499969482422
1036.5199325,-90.0599975585938
1036.5355575,-91.9199981689453
1036.5511825,-94.0
1036.5668075,-96.1999969482422
1036.5824325,-98.1999969482422
1036.5980575,-99.5
1036.6136825,-99.7099990844727
1036.6293075,-98.8199996948242
1036.6449325,-97.1500015258789
1036.6605575,-95.0100021362305
1036.6761825,-92.5800018310547
1036.6918075,-89.9100036621094
1036.7074325,-87.0599975585938
1036.7230575,-84.120002746582
1036.7386825,-81.1800003051758
1036.7543075,-78.379997253418
1036.7699325,-75.8099975585938
1036.7855575,-73.4899978637695
1036.8011825,-71.4400024414063
1036.8168075,-69.7600021362305
1036.8324325,-68.5500030517578
1036.8480575,-67.6699981689453
1036.8636825,-66.9700012207031
1036.8793075,-66.0800018310547
1036.8949325,-64.7900009155273
1036.9105575,-63.2200012207031
1036.9261825,-61.6599998474121
1036.9418075,-60.2299995422363
1036.9574325,-58.7799987792969
1036.9730575,-57.0800018310547
1036.9886825,-55.0499992370605
1037.0043075,-52.7299995422363
1037.0199325,-50.3699989318848
1037.0355575,-48.2799987792969
1037.0511825,-46.7200012207031
1037.0668075,-45.7299995422363
1037.0824325,-45.2700004577637
1037.0980575,-45.3400001525879
1037.1136825,-45.9799995422363
1037.1293075,-47.0400009155273
1037.1449325,-48.0900001525879
1037.1605575,-48.4199981689453
1037.1761825,-47.4799995422363
1037.1918075,-45.2000007629395
1037.2074325,-41.9500007629395
1037.2230575,-38.1100006103516
1037.2386825,-33.8600006103516
1037.2543075,-29.3299999237061
1037.2699325,-24.6299991607666
1037.2855575,-19.9099998474121
1037.3011825,-15.3000001907349
1037.3168075,-10.9099998474121
1037.3324325,-6.78000020980835
1037.3480575,-2.89000010490417
1037.3636825,0.670000016689301
1037.3793075,3.78999996185303
1037.3949325,6.30999994277954
1037.4105575,8.22000026702881
1037.4261825,9.76000022888184
1037.4418075,11.2799997329712
1037.4574325,12.9899997711182
1037.4730575,14.8100004196167
1037.4886825,16.5400009155273
1037.5043075,18.0699996948242
1037.5199325,19.4200000762939
1037.5355575,20.4300003051758
1037.5511825,20.8999996185303
1037.5668075,20.7399997711182
1037.5824325,20.1900005340576
1037.5980575,19.7199993133545
1037.6136825,19.6900005340576
1037.6293075,20.0400009155273
1037.6449325,20.5
1037.6605575,21.0300006866455
1037.6761825,21.8500003814697
1037.6918075,23.1700000762939
1037.7074325,25.0
1037.7230575,27.1700000762939
1037.7386825,29.4400005340576
1037.7543075,31.6200008392334
1037.7699325,33.6599998474121
1037.7855575,35.5699996948242
1037.8011825,37.3899993896484
1037.8168075,39.1399993896484
1037.8324325,40.7900009155273
1037.8480575,42.6500015258789
1037.8636825,44.5699996948242
1037.8793075,46.810001373291
1037.8949325,49.5699996948242
1037.9105575,52.7799987792969
1037.9261825,56.0900001525879
1037.9418075,59.1500015258789
1037.9574325,61.7900009155273
1037.9730575,64.0100021362305
1037.9886825,65.9400024414063
1038.0043075,67.6900024414063
1038.0199325,69.2799987792969
1038.0355575,70.5899963378906
1038.0511825,71.4499969482422
1038.0668075,71.7799987792969
1038.0824325,71.4800033569336
1038.0980575,70.3499984741211
1038.1136825,68.2200012207031
1038.1293075,65.1900024414063
1038.1449325,61.7200012207031
1038.1605575,58.4799995422363
1038.1761825,55.8600006103516
1038.1918075,53.6800003051758
1038.2074325,51.5
1038.2230575,49.1800003051758
1038.2386825,47.0099983215332
1038.2543075,45.3600006103516
1038.2699325,44.3699989318848
1038.2855575,43.9000015258789
1038.3011825,43.5800018310547
1038.3168075,43.0
1038.3324325,41.8899993896484
1038.3480575,40.2000007629395
1038.3636825,38.0200004577637
1038.3793075,35.4000015258789
1038.3949325,32.3699989318848
1038.4105575,29.0499992370605
1038.4261825,25.9300003051758
1038.4418075,23.7900009155273
1038.4574325,23.3199996948242
1038.4730575,24.6299991607666
1038.4886825,27.2700004577637
1038.5043075,30.6399993896484
1038.5199325,34.2799987792969
1038.5355575,37.9199981689453
1038.5511825,41.4000015258789
1038.5668075,44.6599998474121
1038.5824325,47.6500015258789
1038.5980575,50.3600006103516
1038.6136825,52.7700004577637
1038.6293075,54.8600006103516
1038.6449325,56.5699996948242
1038.6605575,57.7200012207031
1038.6761825,58.1300010681152
1038.6918075,57.810001373291
1038.7074325,56.9900016784668
1038.7230575,55.9900016784668
1038.7386825,54.9700012207031
1038.7543075,53.7700004577637
1038.7699325,52.1699981689453
1038.7855575,50.189998626709
1038.8011825,48.1500015258789
1038.8168075,46.3800010681152
1038.8324325,45.0200004577637
1038.8480575,44.3400001525879
1038.8636825,43.6599998474121
1038.8793075,42.6199989318848
1038.8949325,40.939998626709
1038.9105575,38.5900001525879
1038.9261825,35.6800003051758
1038.9418075,32.3899993896484
1038.9574325,28.8400001525879
1038.9730575,25.1900005340576
1038.9886825,21.8099994659424
1039.0043075,19.3500003814697
1039.0199325,18.3700008392334
1039.0355575,19.0100002288818
1039.0511825,20.9500007629395
1039.0668075,23.6100006103516
1039.0824325,26.5200004577637
1039.0980575,29.3400001525879
1039.1136825,31.8899993896484
1039.1293075,34.1500015258789
1039.1449325,36.1699981689453
1039.1605575,38.0400009155273
1039.1761825,39.8499984741211
1039.1918075,41.5900001525879
1039.2074325,43.1399993896484
1039.2230575,44.25
1039.2386825,44.7200012207031
1039.2543075,44.4799995422363
1039.2699325,43.6599998474121
1039.2855575,42.3899993896484
1039.3011825,40.7000007629395
1039.3168075,38.4799995422363
1039.3324325,35.689998626709
1039.3480575,32.5400009155273
1039.3636825,29.3899993896484
1039.3793075,26.5699996948242
1039.3949325,24.2000007629395
1039.4105575,22.1399993896484
1039.4261825,20.1000003814697
1039.4418075,17.6900005340576
1039.4574325,14.6499996185303
1039.4730575,10.9200000762939
1039.4886825,6.59000015258789
1039.5043075,1.67999994754791
1039.5199325,-3.80999994277954
1039.5355575,-9.75
1039.5511825,-15.6599998474121
1039.5668075,-20.7900009155273
1039.5824325,-24.5599994659424
1039.5980575,-26.9599990844727
1039.6136825,-28.3999996185303
1039.6293075,-29.2199993133545
1039.6449325,-29.5799999237061
1039.6605575,-29.5
1039.6761825,-29.0799999237061
1039.6918075,-28.4500007629395
1039.7074325,-27.75
1039.7230575,-27.0200004577637
1039.7386825,-26.2399997711182
1039.7543075,-25.4099998474121
1039.7699325,-24.6299991607666
1039.7855575,-24.1399993896484
1039.8011825,-24.1599998474121
1039.8168075,-24.75
1039.8324325,-25.7000007629395
1039.8480575,-26.7399997711182
1039.8636825,-27.6499996185303
1039.8793075,-28.5799999237061
1039.8949325,-29.7999992370605
1039.9105575,-31.3899993896484
1039.9261825,-33.2799987792969
1039.9418075,-35.5200004577637
1039.9574325,-38.2599983215332
1039.9730575,-41.5200004577637
1039.9886825,-44.9900016784668
1040.0043075,-48.1100006103516
1040.0199325,-50.4599990844727
1040.0355575,-52.0900001525879
1040.0511825,-53.3199996948242
1040.0668075,-54.2700004577637
1040.0824325,-54.810001373291
1040.0980575,-54.75
1040.1136825,-54.1100006103516
1040.1293075,-53.1199989318848
1040.1449325,-52.2700004577637
1040.1605575,-52.2099990844727
1040.1761825,-53.4300003051758
1040.1918075,-56.0299987792969
1040.2074325,-59.9099998474121
1040.2230575,-65.1100006103516
1040.2386825,-71.75
1040.2543075,-79.5400009155273
1040.2699325,-87.5500030517578
1040.2855575,-94.3399963378906
1040.3011825,-98.8199996948242
1040.3168075,-100.98999786377
1040.3324325,-101.51000213623
1040.3480575,-100.849998474121
1040.3636825,-99.0599975585938
1040.3793075,-96.1100006103516
1040.3949325,-92.1699981689453
1040.4105575,-87.6999969482422
1040.4261825,-83.25
1040.4418075,-79.3499984741211
1040.4574325,-76.2799987792969
1040.4730575,-74.0400009155273
1040.4886825,-72.5599975585938
1040.5043075,-71.8899993896484
1040.5199325,-72.1600036621094
1040.5355575,-73.2399978637695
1040.5511825,-74.5100021362305
1040.5668075,-74.9800033569336
1040.5824325,-73.9499969482422
1040.5980575,-71.5899963378906
1040.6136825,-68.5899963378906
1040.6293075,-65.4499969482422
1040.6449325,-62.189998626709
1040.6605575,-58.6100006103516
1040.6761825,-54.6199989318848
1040.6918075,-50.310001373291
1040.7074325,-45.9599990844727
1040.7230575,-41.9099998474121
1040.7386825,-38.3600006103516
1040.7543075,-35.3899993896484
1040.7699325,-32.9500007629395
1040.7855575,-31.0300006866455
1040.8011825,-29.6599998474121
1040.8168075,-28.7199993133545
1040.8324325,-27.7600002288818
1040.8480575,-26.0100002288818
1040.8636825,-22.7999992370605
1040.8793075,-17.9500007629395
1040.8949325,-11.8299999237061
1040.9105575,-4.98999977111816
1040.9261825,2.07999992370605
1040.9418075,9.06999969482422
1040.9574325,15.7799997329712
1040.9730575,22.1200008392334
1040.9886825,28.1499996185303
1041.0043075,34.0499992370605
1041.0199325,39.9799995422363
1041.0355575,46.0
1041.0511825,52.0
1041.0668075,57.810001373291
1041.0824325,63.2900009155273
1041.0980575,68.3399963378906
1041.1136825,72.870002746582
1041.1293075,76.7300033569336
1041.1449325,79.8300018310547
1041.1605575,82.2300033569336
1041.1761825,84.1100006103516
1041.1918075,85.6600036621094
1041.2074325,87.0
1041.2230575,88.1699981689453
1041.2386825,89.1600036621094
1041.2543075,89.9300003051758
1041.2699325,90.4199981689453
1041.2855575,90.5299987792969
1041.3011825,90.1900024414063
1041.3168075,89.4100036621094
1041.3324325,88.2200012207031
1041.3480575,86.6500015258789
1041.3636825,84.7200012207031
1041.3793075,82.4800033569336
1041.3949325,80.0699996948242
1041.4105575,77.6399993896484
1041.4261825,75.3300018310547
1041.4418075,73.1600036621094
1041.4574325,71.0800018310547
1041.4730575,69.1100006103516
1041.4886825,67.3000030517578
1041.5043075,65.6900024414063
1041.5199325,64.2200012207031
1041.5355575,62.8300018310547
1041.5511825,61.5099983215332
1041.5668075,60.3800010681152
1041.5824325,59.5999984741211
1041.5980575,59.2000007629395
1041.6136825,59.1399993896484
1041.6293075,59.3199996948242
1041.6449325,59.6500015258789
1041.6605575,60.0499992370605
1041.6761825,60.3199996948242
1041.6918075,60.2599983215332
1041.7074325,59.7000007629395
1041.7230575,58.6300010681152
1041.7386825,57.1699981689453
1041.7543075,55.4000015258789
1041.7699325,53.3300018310547
1041.7855575,50.9799995422363
1041.8011825,48.3699989318848
1041.8168075,45.6100006103516
1041.8324325,42.75
1041.8480575,39.8400001525879
1041.8636825,36.8899993896484
1041.8793075,33.8800010681152
1041.8949325,30.8600006103516
1041.9105575,27.8799991607666
1041.9261825,25.0
1041.9418075,22.2399997711182
1041.9574325,19.5799999237061
1041.9730575,16.9799995422363
1041.9886825,14.3699998855591
1042.0043075,11.6700000762939
1042.0199325,8.80000019073486
1042.0355575,5.78000020980835
1042.0511825,2.73000001907349
1042.0668075,-0.119999997317791
1042.0824325,-2.61999988555908
1042.0980575,-4.69000005722046
1042.1136825,-6.40999984741211
1042.1293075,-7.82000017166138
1042.1449325,-8.81999969482422
1042.1605575,-9.14000034332275
1042.1761825,-8.55000019073486
1042.1918075,-7.19999980926514
1042.2074325,-5.5
1042.2230575,-3.95000004768372
1042.2386825,-2.82999992370605
1042.2543075,-2.19000005722046
1042.2699325,-1.85000002384186
1042.2855575,-1.50999999046326
1042.3011825,-0.959999978542328
1042.3168075,-0.119999997317791
1042.3324325,0.939999997615814
1042.3480575,2.15000009536743
1042.3636825,3.45000004768372
1042.3793075,4.73000001907349
1042.3949325,5.67000007629395
1042.4105575,5.71000003814697
1042.4261825,4.38000011444092
1042.4418075,1.60000002384186
1042.4574325,-2.27999997138977
1042.4730575,-6.73999977111816
1042.4886825,-11.3400001525879
1042.5043075,-15.8000001907349
1042.5199325,-20.0100002288818
1042.5355575,-23.9799995422363
1042.5511825,-27.7600002288818
1042.5668075,-31.4099998474121
1042.5824325,-34.9799995422363
1042.5980575,-38.4599990844727
1042.6136825,-41.8300018310547
1042.6293075,-45.0699996948242
1042.6449325,-48.1800003051758
1042.6605575,-51.1500015258789
1042.6761825,-53.9500007629395
1042.6918075,-56.5299987792969
1042.7074325,-58.7900009155273
1042.7230575,-60.5499992370605
1042.7386825,-61.6699981689453
1042.7543075,-62.1399993896484
1042.7699325,-62.1399993896484
1042.7855575,-61.8899993896484
1042.8011825,-61.5999984741211
1042.8168075,-61.3499984741211
1042.8324325,-60.9599990844727
1042.8480575,-60.0099983215332
1042.8636825,-58.1100006103516
1042.8793075,-55.1300010681152
1042.8949325,-51.2299995422363
1042.9105575,-46.5699996948242
1042.9261825,-41.2799987792969
1042.9418075,-35.5900001525879
1042.9574325,-30.0799999237061
1042.9730575,-25.6100006103516
1042.9886825,-22.8099994659424
1043.0043075,-21.7000007629395
1043.0199325,-21.7900009155273
1043.0355575,-22.6299991607666
1043.0511825,-23.9699993133545
1043.0668075,-25.7299995422363
1043.0824325,-27.7900009155273
1043.0980575,-29.9699993133545
1043.1136825,-32.1599998474121
1043.1293075,-34.2799987792969
1043.1449325,-36.3600006103516
1043.1605575,-38.4099998474121
1043.1761825,-40.439998626709
1043.1918075,-42.3899993896484
1043.2074325,-44.2299995422363
1043.2230575,-45.939998626709
1043.2386825,-47.5699996948242
1043.2543075,-49.2700004577637
1043.2699325,-51.1599998474121
1043.2855575,-53.25
1043.3011825,-55.3800010681152
1043.3168075,-57.2000007629395
1043.3324325,-58.4500007629395
1043.3480575,-59.0200004577637
1043.3636825,-59.0499992370605
1043.3793075,-58.7299995422363
1043.3949325,-58.060001373291
1043.4105575,-56.8199996948242
1043.4261825,-54.75
1043.4418075,-51.9000015258789
1043.4574325,-48.4300003051758
1043.4730575,-44.3199996948242
1043.4886825,-39.3699989318848
1043.5043075,-33.5999984741211
1043.5199325,-27.4799995422363
1043.5355575,-21.8099994659424
1043.5511825,-17.1100006103516
1043.5668075,-13.2600002288818
1043.5824325,-9.77999973297119
1043.5980575,-6.51000022888184
1043.6136825,-3.53999996185303
1043.6293075,-0.800000011920929
1043.6449325,2.02999997138977
1043.6605575,5.23000001907349
1043.6761825,8.59000015258789
1043.6918075,11.4499998092651
1043.7074325,13.1800003051758
1043.7230575,13.710000038147
1043.7386825,13.3299999237061
1043.7543075,12.2799997329712
1043.7699325,10.6000003814697
1043.7855575,8.27999973297119
1043.8011825,5.46999979019165
1043.8168075,2.42000007629395
1043.8324325,-0.620000004768372
1043.8480575,-3.63000011444092
1043.8636825,-6.61999988555908
1043.8793075,-9.64999961853027
1043.8949325,-12.5900001525879
1043.9105575,-15.1700000762939
1043.9261825,-17.1299991607666
1043.9418075,-18.3999996185303
1043.9574325,-19.1800003051758
1043.9730575,-19.7999992370605
1043.9886825,-20.3400001525879
1044.0043075,-20.4300003051758
1044.0199325,-19.5699996948242
1044.0355575,-17.7000007629395
1044.0511825,-15.2200002670288
1044.0668075,-12.75
1044.0824325,-10.6899995803833
1044.0980575,-9.15999984741211
1044.1136825,-7.90999984741211
1044.1293075,-6.51999998092651
1044.1449325,-4.65000009536743
1044.1605575,-2.21000003814697
1044.1761825,0.620000004768372
1044.1918075,3.51999998092651
1044.2074325,6.23999977111816
1044.2230575,8.47999954223633
1044.2386825,9.60000038146973
1044.2543075,8.32999992370605
1044.2699325,3.55999994277954
1044.2855575,-4.82999992370605
1044.3011825,-16.0900001525879
1044.3168075,-29.2000007629395
1044.3324325,-43.3899993896484
1044.3480575,-57.9300003051758
1044.3636825,-71.9100036621094
1044.3793075,-84.2399978637695
1044.3949325,-94.3199996948242
1044.4105575,-102.430000305176
