Time(s),Value(%)
862.0085057,-122.120002746582
862.0241307,-118.169998168945
862.0397557,-109.440002441406
862.0553807,-96.7699966430664
862.0710057,-81.120002746582
862.0866307,-63.2000007629395
862.1022557,-44.0800018310547
862.1178807,-26.1100006103516
862.1335057,-12.8299999237061
862.1491307,-6.92999982833862
862.1647557,-8.17000007629395
862.1803807,-14.0200004577637
862.1960057,-21.9200000762939
862.2116307,-30.5200004577637
862.2272557,-39.4500007629395
862.2428807,-48.6199989318848
862.2585057,-57.7999992370605
862.2741307,-66.5400009155273
862.2897557,-74.3099975585938
862.3053807,-80.6999969482422
862.3210057,-85.620002746582
862.3366307,-89.120002746582
862.3522557,-91.1699981689453
862.3678807,-91.7099990844727
862.3835057,-90.9899978637695
862.3991307,-89.9599990844727
862.4147557,-90.129997253418
862.4303807,-92.4599990844727
862.4460057,-96.4599990844727
862.4616307,-100.660003662109
862.4772557,-103.900001525879
862.4928807,-106.019996643066
862.5085057,-107.470001220703
862.5241307,-108.790000915527
862.5397557,-110.099998474121
862.5553807,-110.650001525879
862.5710057,-108.870002746582
862.5866307,-103.279998779297
862.6022557,-93.5699996948242
862.6178807,-80.4599990844727
862.6335057,-64.9300003051758
862.6491307,-47.7700004577637
862.6647557,-29.9500007629395
862.6803807,-13.3500003814697
862.6960057,-0.779999971389771
862.7116307,5.57000017166138
862.7272557,5.8600001335144
862.7428807,2.14000010490417
862.7585057,-3.38000011444092
862.7741307,-9.4399995803833
862.7897557,-15.5699996948242
862.8053807,-21.7800006866455
862.8210057,-27.9099998474121
862.8366307,-33.75
862.8522557,-39.0699996948242
862.8678807,-43.6800003051758
862.8835057,-47.5200004577637
862.8991307,-50.5499992370605
862.9147557,-52.689998626709
862.9303807,-53.8699989318848
862.9460057,-54.2000007629395
862.9616307,-54.2200012207031
862.9772557,-54.8199996948242
862.9928807,-56.5499992370605
863.0085057,-59.0699996948242
863.0241307,-61.3600006103516
863.0397557,-62.6800003051758
863.0553807,-62.8800010681152
863.0710057,-62.3400001525879
863.0866307,-61.5099983215332
863.1022557,-60.5299987792969
863.1178807,-58.7400016784668
863.1335057,-54.689998626709
863.1491307,-46.9700012207031
863.1647557,-35.2799987792969
863.1803807,-20.3799991607666
863.1960057,-3.34999990463257
863.2116307,14.9099998474121
863.2272557,33.4700012207031
863.2428807,50.6800003051758
863.2585057,64.0899963378906
863.2741307,71.8499984741211
863.2897557,74.0800018310547
863.3053807,72.5899963378906
863.3210057,69.3600006103516
863.3366307,65.5699996948242
863.3522557,61.6599998474121
863.3678807,57.7599983215332
863.3835057,53.9300003051758
863.3991307,50.3600006103516
863.4147557,47.3300018310547
863.4303807,45.0800018310547
863.4460057,43.6599998474121
863.4616307,42.9599990844727
863.4772557,42.810001373291
863.4928807,43.0499992370605
863.5085057,43.5200004577637
863.5241307,43.7900009155273
863.5397557,43.1699981689453
863.5553807,41.0800018310547
863.5710057,37.5099983215332
863.5866307,33.0499992370605
863.6022557,28.4799995422363
863.6178807,24.3799991607666
863.6335057,20.9799995422363
863.6491307,18.2399997711182
863.6647557,16.1700000762939
863.6803807,15.3400001525879
863.6960057,17.1200008392334
863.7116307,22.8400001525879
863.7272557,32.7000007629395
863.7428807,45.810001373291
863.7585057,60.8899993896484
863.7741307,76.870002746582
863.7897557,92.8099975585938
863.8053807,107.48999786377
863.8210057,118.940002441406
863.8366307,125.709999084473
863.8522557,127.809997558594
863.8678807,126.580001831055
863.8835057,123.519996643066
863.8991307,119.620002746582
863.9147557,115.379997253418
863.9303807,111.040000915527
863.9460057,106.769996643066
863.9616307,102.73999786377
863.9772557,99.120002746582
863.9928807,96.0
864.0085057,93.3899993896484
864.0241307,91.1900024414063
864.0397557,89.3199996948242
864.0553807,87.6800003051758
864.0710057,86.1800003051758
864.0866307,84.6399993896484
864.1022557,82.7099990844727
864.1178807,80.2399978637695
864.1335057,77.4899978637695
864.1491307,74.9899978637695
864.1647557,73.3199996948242
864.1803807,73.1800003051758
864.1960057,75.620002746582
864.2116307,81.4300003051758
864.2272557,90.4599990844727
864.2428807,101.400001525879
864.2585057,112.449996948242
864.2741307,122.480003356934
864.2897557,131.559997558594
864.3053807,140.110000610352
864.3210057,147.729995727539
864.3366307,153.309997558594
864.3522557,156.050003051758
864.3678807,156.149993896484
864.3835057,154.5
864.3991307,151.899993896484
864.4147557,148.460006713867
864.4303807,143.830001831055
864.4460057,137.809997558594
864.4616307,130.699996948242
864.4772557,123.139999389648
864.4928807,115.809997558594
864.5085057,109.089996337891
864.5241307,103.01000213623
864.5397557,97.25
864.5553807,91.3399963378906
864.5710057,84.879997253418
864.5866307,77.6999969482422
864.6022557,69.9800033569336
864.6178807,62.0999984741211
864.6335057,54.5
864.6491307,47.439998626709
864.6647557,41.0299987792969
864.6803807,35.1800003051758
864.6960057,29.7199993133545
864.7116307,24.5200004577637
864.7272557,19.6000003814697
864.7428807,15.5
864.7585057,13.2700004577637
864.7741307,13.8800001144409
864.7897557,17.4599990844727
864.8053807,23.2999992370605
864.8210057,30.4400005340576
864.8366307,38.4300003051758
864.8522557,47.3899993896484
864.8678807,57.310001373291
864.8835057,67.1999969482422
864.8991307,75.5299987792969
864.9147557,81.2600021362305
864.9303807,84.3899993896484
864.9460057,85.7099990844727
864.9616307,85.9199981689453
864.9772557,85.0999984741211
864.9928807,82.8899993896484
865.0085057,79.0999984741211
865.0241307,74.0500030517578
865.0397557,68.370002746582
865.0553807,62.7299995422363
865.0710057,57.5299987792969
865.0866307,52.8499984741211
865.1022557,48.4700012207031
865.1178807,44.0800018310547
865.1335057,39.3199996948242
865.1491307,34.060001373291
865.1647557,28.4099998474121
865.1803807,22.6900005340576
865.1960057,17.2199993133545
865.2116307,12.2200002670288
865.2272557,7.69000005722046
865.2428807,3.41000008583069
865.2585057,-0.980000019073486
865.2741307,-5.82999992370605
865.2897557,-11.1400003433228
865.3053807,-16.2800006866455
865.3210057,-20.1800003051758
865.3366307,-21.8400001525879
865.3522557,-21.0100002288818
865.3678807,-18.0799999237061
865.3835057,-13.539999961853
865.3991307,-7.44999980926514
865.4147557,0.509999990463257
865.4303807,10.3299999237061
865.4460057,20.9899997711182
865.4616307,30.8799991607666
865.4772557,38.7700004577637
865.4928807,44.3899993896484
865.5085057,48.2099990844727
865.5241307,50.7099990844727
865.5397557,51.810001373291
865.5553807,51.1300010681152
865.5710057,48.5200004577637
865.5866307,44.3600006103516
865.6022557,39.2700004577637
865.6178807,33.8800010681152
865.6335057,28.6000003814697
865.6491307,23.5900001525879
865.6647557,18.8299999237061
865.6803807,14.0600004196167
865.6960057,8.94999980926514
865.7116307,3.32999992370605
865.7272557,-2.57999992370605
865.7428807,-8.38000011444092
865.7585057,-13.6300001144409
865.7741307,-18.1800003051758
865.7897557,-22.1100006103516
865.8053807,-25.7600002288818
865.8210057,-29.7099990844727
865.8366307,-34.4199981689453
865.8522557,-39.8800010681152
865.8678807,-45.5800018310547
865.8835057,-50.6699981689453
865.8991307,-54.4099998474121
865.9147557,-56.5200004577637
865.9303807,-57.0099983215332
865.9460057,-55.7400016784668
865.9616307,-52.2099990844727
865.9772557,-45.7799987792969
865.9928807,-36.3400001525879
866.0085057,-24.8199996948242
866.0241307,-12.8500003814697
866.0397557,-1.9099999666214
866.0553807,7.30000019073486
866.0710057,14.8100004196167
866.0866307,20.7700004577637
866.1022557,25.0
866.1178807,27.1900005340576
866.1335057,27.3299999237061
866.1491307,25.9400005340576
866.1647557,23.8400001525879
866.1803807,21.7199993133545
866.1960057,19.9300003051758
866.2116307,18.2900009155273
866.2272557,16.2000007629395
866.2428807,13.0299997329712
866.2585057,8.57999992370605
866.2741307,3.03999996185303
866.2897557,-3.25999999046326
866.3053807,-10.0900001525879
866.3210057,-17.1200008392334
866.3366307,-23.9300003051758
866.3522557,-30.0300006866455
866.3678807,-35.1800003051758
866.3835057,-39.6699981689453
866.3991307,-43.9700012207031
866.4147557,-48.2000007629395
866.4303807,-52.0900001525879
866.4460057,-55.2200012207031
866.4616307,-57.3699989318848
866.4772557,-58.6199989318848
866.4928807,-59.060001373291
866.5085057,-58.5400009155273
866.5241307,-56.4300003051758
866.5397557,-51.8600006103516
866.5553807,-44.2900009155273
866.5710057,-34.0800018310547
866.5866307,-22.2299995422363
866.6022557,-9.71000003814697
866.6178807,2.92000007629395
866.6335057,15.2700004577637
866.6491307,26.6599998474121
866.6647557,35.9599990844727
866.6803807,42.1100006103516
866.6960057,44.7799987792969
866.7116307,44.4199981689453
866.7272557,41.8300018310547
866.7428807,37.7799987792969
866.7585057,32.9599990844727
866.7741307,27.9099998474121
866.7897557,23.0100002288818
866.8053807,18.4300003051758
866.8210057,13.9099998474121
866.8366307,9.22000026702881
866.8522557,4.25
866.8678807,-1.07000005245209
866.8835057,-6.84000015258789
866.8991307,-13.1099996566772
866.9147557,-19.7700004577637
866.9303807,-26.3999996185303
866.9460057,-32.4300003051758
866.9616307,-37.5499992370605
866.9772557,-42.0200004577637
866.9928807,-46.3199996948242
867.0085057,-50.6699981689453
867.0241307,-54.8499984741211
867.0397557,-58.5
867.0553807,-61.4099998474121
867.0710057,-63.5099983215332
867.0866307,-64.4199981689453
867.1022557,-63.2000007629395
867.1178807,-58.9199981689453
867.1335057,-51.5099983215332
867.1491307,-41.9199981689453
867.1647557,-31.6100006103516
867.1803807,-21.8400001525879
867.1960057,-13.2200002670288
867.2116307,-5.67999982833862
867.2272557,1.27999997138977
867.2428807,8.25
867.2585057,15.4799995422363
867.2741307,22.7700004577637
867.2897557,29.6700000762939
867.3053807,35.7400016784668
867.3210057,40.689998626709
867.3366307,44.1500015258789
867.3522557,45.439998626709
867.3678807,43.8800010681152
867.3835057,39.3600006103516
867.3991307,32.6199989318848
867.4147557,24.9099998474121
867.4303807,17.3199996948242
867.4460057,10.2600002288818
867.4616307,3.5
867.4772557,-3.29999995231628
867.4928807,-10.210000038147
867.5085057,-16.9500007629395
867.5241307,-23.2800006866455
867.5397557,-29.3099994659424
867.5553807,-35.310001373291
867.5710057,-41.2400016784668
867.5866307,-46.7000007629395
867.6022557,-51.310001373291
867.6178807,-54.9599990844727
867.6335057,-57.7700004577637
867.6491307,-59.8699989318848
867.6647557,-61.1399993896484
867.6803807,-61.3899993896484
867.6960057,-60.4900016784668
867.7116307,-58.25
867.7272557,-54.189998626709
867.7428807,-47.8600006103516
867.7585057,-39.4000015258789
867.7741307,-29.5599994659424
867.7897557,-19.3099994659424
867.8053807,-9.34000015258789
867.8210057,0.409999996423721
867.8366307,9.80000019073486
867.8522557,18.1100006103516
867.8678807,24.3500003814697
867.8835057,28.0200004577637
867.8991307,29.4699993133545
867.9147557,29.5499992370605
867.9303807,28.8799991607666
867.9460057,27.3799991607666
867.9616307,24.5900001525879
867.9772557,20.2199993133545
867.9928807,14.4700002670288
868.0085057,7.82000017166138
868.0241307,0.75
868.0397557,-6.28000020980835
868.0553807,-12.8599996566772
868.0710057,-18.6000003814697
868.0866307,-23.4200000762939
868.1022557,-27.7199993133545
868.1178807,-32.0699996948242
868.1335057,-36.689998626709
868.1491307,-41.3800010681152
868.1647557,-45.7099990844727
868.1803807,-49.4300003051758
868.1960057,-52.5
868.2116307,-55.2099990844727
868.2272557,-58.0200004577637
868.2428807,-61.3300018310547
868.2585057,-65.1600036621094
868.2741307,-68.9499969482422
868.2897557,-71.6900024414063
868.3053807,-72.4800033569336
868.3210057,-71.0199966430664
868.3366307,-67.5100021362305
868.3522557,-62.0800018310547
868.3678807,-54.560001373291
868.3835057,-44.7000007629395
868.3991307,-32.8300018310547
868.4147557,-20.2000007629395
868.4303807,-8.47999954223633
868.4460057,1.16999995708466
868.4616307,8.59000015258789
868.4772557,14.2700004577637
868.4928807,18.6700000762939
868.5085057,21.6299991607666
868.5241307,22.6900005340576
868.5397557,21.6800003051758
868.5553807,18.9099998474121
868.5710057,14.9200000762939
868.5866307,10.2399997711182
868.6022557,5.32000017166138
868.6178807,0.550000011920929
868.6335057,-3.75999999046326
868.6491307,-7.63000011444092
868.6647557,-11.4399995803833
868.6803807,-15.5699996948242
868.6960057,-20.0100002288818
868.7116307,-24.3099994659424
868.7272557,-27.9799995422363
868.7428807,-30.8099994659424
868.7585057,-32.9500007629395
868.7741307,-34.8400001525879
868.7897557,-37.1500015258789
868.8053807,-40.6599998474121
868.8210057,-45.2000007629395
868.8366307,-50.4300003051758
868.8522557,-55.8800010681152
868.8678807,-61.1399993896484
868.8835057,-65.8899993896484
868.8991307,-69.6500015258789
868.9147557,-71.5100021362305
868.9303807,-70.3399963378906
868.9460057,-65.3099975585938
868.9616307,-56.3899993896484
868.9772557,-44.439998626709
868.9928807,-30.8099994659424
869.0085057,-16.6700000762939
869.0241307,-2.69000005722046
869.0397557,10.7399997711182
869.0553807,23.1200008392334
869.0710057,33.5900001525879
869.0866307,41.2299995422363
869.1022557,45.5900001525879
869.1178807,46.9300003051758
869.1335057,45.9099998474121
869.1491307,43.3800010681152
869.1647557,40.1699981689453
869.1803807,36.8899993896484
869.1960057,33.8600006103516
869.2116307,30.9899997711182
869.2272557,27.8600006103516
869.2428807,24.0200004577637
869.2585057,19.2800006866455
869.2741307,13.6099996566772
869.2897557,6.8600001335144
869.3053807,-1.10000002384186
869.3210057,-10.039999961853
869.3366307,-19.1000003814697
869.3522557,-27.0599994659424
869.3678807,-33.1300010681152
869.3835057,-37.6699981689453
869.3991307,-41.5699996948242
869.4147557,-45.2799987792969
869.4303807,-48.5499992370605
869.4460057,-50.8699989318848
869.4616307,-52.0299987792969
869.4772557,-52.1199989318848
869.4928807,-51.0400009155273
869.5085057,-48.2599983215332
869.5241307,-43.0999984741211
869.5397557,-35.4700012207031
869.5553807,-25.7999992370605
869.5710057,-14.6700000762939
869.5866307,-2.51999998092651
869.6022557,10.1199998855591
869.6178807,22.6399993896484
869.6335057,34.2599983215332
869.6491307,44.4199981689453
869.6647557,52.8800010681152
869.6803807,59.5800018310547
869.6960057,64.4199981689453
869.7116307,67.2900009155273
869.7272557,68.4000015258789
869.7428807,68.2900009155273
869.7585057,67.5999984741211
869.7741307,66.620002746582
869.7897557,65.1800003051758
869.8053807,63.0299987792969
869.8210057,59.75
869.8366307,55.3300018310547
869.8522557,49.810001373291
869.8678807,43.2700004577637
869.8835057,36.0200004577637
869.8991307,28.7099990844727
869.9147557,22.2600002288818
869.9303807,17.1299991607666
869.9460057,12.960000038147
869.9616307,8.96000003814697
869.9772557,4.78999996185303
869.9928807,0.720000028610229
870.0085057,-2.74000000953674
870.0241307,-5.32000017166138
870.0397557,-7.07000017166138
870.0553807,-8.19999980926514
870.0710057,-8.89000034332275
870.0866307,-9.19999980926514
870.1022557,-9.10000038146973
870.1178807,-8.3100004196167
870.1335057,-6.26999998092651
870.1491307,-2.48000001907349
870.1647557,3.07999992370605
870.1803807,10.1000003814697
870.1960057,18.1800003051758
870.2116307,27.0799999237061
870.2272557,36.560001373291
870.2428807,45.9700012207031
870.2585057,54.2599983215332
870.2741307,60.4000015258789
870.2897557,64.0800018310547
870.3053807,65.7799987792969
870.3210057,66.3099975585938
870.3366307,66.0999984741211
870.3522557,64.7900009155273
870.3678807,61.7000007629395
870.3835057,56.4799995422363
870.3991307,49.2900009155273
870.4147557,40.4199981689453
870.4303807,30.1599998474121
870.4460057,19.0499992370605
870.4616307,8.09000015258789
870.4772557,-1.45000004768372
870.4928807,-8.97000026702881
870.5085057,-15.0699996948242
870.5241307,-20.9500007629395
870.5397557,-27.1499996185303
870.5553807,-33.2400016784668
870.5710057,-38.4599990844727
870.5866307,-42.3800010681152
870.6022557,-45.1100006103516
870.6178807,-47.25
870.6335057,-49.6599998474121
870.6491307,-52.9700012207031
870.6647557,-57.3199996948242
870.6803807,-62.3600006103516
870.6960057,-67.5999984741211
870.7116307,-72.6399993896484
870.7272557,-77.120002746582
870.7428807,-80.3099975585938
870.7585057,-80.9800033569336
870.7741307,-78.2300033569336
870.7897557,-72.4199981689453
870.8053807,-65.0899963378906
870.8210057,-57.7999992370605
870.8366307,-51.4700012207031
870.8522557,-46.2299995422363
870.8678807,-41.689998626709
870.8835057,-37.4500007629395
870.8991307,-33.5800018310547
870.9147557,-30.7800006866455
870.9303807,-29.8600006103516
870.9460057,-31.1499996185303
870.9616307,-34.5900001525879
870.9772557,-40.2200012207031
870.9928807,-48.0499992370605
871.0085057,-57.5699996948242
871.0241307,-67.2799987792969
871.0397557,-75.0299987792969
871.0553807,-79.5199966430664
871.0710057,-81.4400024414063
871.0866307,-82.5400009155273
871.1022557,-83.8099975585938
871.1178807,-84.8899993896484
871.1335057,-84.9300003051758
871.1491307,-83.4100036621094
871.1647557,-80.5800018310547
871.1803807,-77.379997253418
871.1960057,-75.1600036621094
871.2116307,-74.9700012207031
871.2272557,-77.0199966430664
871.2428807,-80.870002746582
871.2585057,-85.9800033569336
871.2741307,-91.9700012207031
871.2897557,-98.25
871.3053807,-103.339996337891
871.3210057,-104.879997253418
871.3366307,-100.919998168945
871.3522557,-91.5299987792969
871.3678807,-78.5
871.3835057,-64.0599975585938
871.3991307,-49.9900016784668
871.4147557,-37.5699996948242
871.4303807,-27.4899997711182
871.4460057,-19.6900005340576
871.4616307,-13.3000001907349
871.4772557,-7.09999990463257
871.4928807,-0.479999989271164
871.5085057,6.11999988555908
871.5241307,11.8500003814697
871.5397557,16.6000003814697
871.5553807,21.0699996948242
871.5710057,26.1299991607666
871.5866307,32.1599998474121
871.6022557,38.8800010681152
871.6178807,45.4099998474121
871.6335057,50.5900001525879
871.6491307,53.5400009155273
871.6647557,54.060001373291
871.6803807,52.2400016784668
871.6960057,47.9099998474121
871.7116307,40.7999992370605
871.7272557,31.3700008392334
871.7428807,21.3799991607666
871.7585057,13.5500001907349
871.7741307,9.85999965667725
871.7897557,10.0699996948242
871.8053807,12.5299997329712
871.8210057,16.0599994659424
871.8366307,20.5400009155273
871.8522557,26.2900009155273
871.8678807,33.2900009155273
871.8835057,41.1300010681152
871.8991307,49.2999992370605
871.9147557,57.5999984741211
871.9303807,66.1100006103516
871.9460057,74.8099975585938
871.9616307,83.2099990844727
871.9772557,90.3600006103516
871.9928807,95.3399963378906
872.0085057,97.9800033569336
872.0241307,99.1399993896484
872.0397557,100.230003356934
872.0553807,102.220001220703
872.0710057,104.839996337891
872.0866307,107.190002441406
872.1022557,108.879997253418
872.1178807,110.339996337891
872.1335057,112.25
872.1491307,114.910003662109
872.1647557,118.120002746582
872.1803807,121.220001220703
872.1960057,123.319999694824
872.2116307,123.800003051758
872.2272557,122.480003356934
872.2428807,119.379997253418
872.2585057,114.309997558594
872.2741307,106.98999786377
872.2897557,97.7600021362305
872.3053807,88.0500030517578
872.3210057,80.0500030517578
872.3366307,75.4000015258789
872.3522557,73.9400024414063
872.3678807,74.3199996948242
872.3835057,75.5199966430664
872.3991307,77.370002746582
872.4147557,80.0699996948242
872.4303807,83.6500015258789
872.4460057,87.8199996948242
872.4616307,92.3899993896484
872.4772557,97.5299987792969
872.4928807,103.589996337891
872.5085057,110.599998474121
872.5241307,118.110000610352
872.5397557,125.309997558594
872.5553807,131.479995727539
872.5710057,136.320007324219
872.5866307,140.029998779297
872.6022557,143.130004882813
872.6178807,146.130004882813
872.6335057,149.210006713867
872.6491307,152.289993286133
872.6647557,155.25
872.6803807,158.020004272461
872.6960057,160.559997558594
872.7116307,162.789993286133
872.7272557,164.619995117188
