Time(s),Value(%)
862.0085057,7.73000001907349
862.0241307,7.98999977111816
862.0397557,8.07999992370605
862.0553807,7.96000003814697
862.0710057,7.67000007629395
862.0866307,7.3899998664856
862.1022557,7.26000022888184
862.1178807,7.40999984741211
862.1335057,7.94999980926514
862.1491307,9.02000045776367
862.1647557,10.6899995803833
862.1803807,12.8199996948242
862.1960057,15.039999961853
862.2116307,16.8700008392334
862.2272557,17.9300003051758
862.2428807,18.0499992370605
862.2585057,17.4099998474121
862.2741307,16.3899993896484
862.2897557,15.3699998855591
862.3053807,14.4499998092651
862.3210057,13.5200004577637
862.3366307,12.460000038147
862.3522557,11.2399997711182
862.3678807,9.89999961853027
862.3835057,8.57999992370605
862.3991307,7.44000005722046
862.4147557,6.55000019073486
862.4303807,5.8899998664856
862.4460057,5.36999988555908
862.4616307,4.94000005722046
862.4772557,4.53999996185303
862.4928807,4.1399998664856
862.5085057,3.6800000667572
862.5241307,3.17000007629395
862.5397557,2.65000009536743
862.5553807,2.11999988555908
862.5710057,1.52999997138977
862.5866307,0.839999973773956
862.6022557,0.119999997317791
862.6178807,-0.419999986886978
862.6335057,-0.790000021457672
862.6491307,-1.12999999523163
862.6647557,-1.62999999523163
862.6803807,-2.25999999046326
862.6960057,-2.65000009536743
862.7116307,-2.25999999046326
862.7272557,-0.819999992847443
862.7428807,1.37999999523163
862.7585057,3.74000000953674
862.7741307,5.6399998664856
862.7897557,6.73999977111816
862.8053807,7.01000022888184
862.8210057,6.69999980926514
862.8366307,6.1100001335144
862.8522557,5.48000001907349
862.8678807,4.96000003814697
862.8835057,4.48000001907349
862.8991307,3.71000003814697
862.9147557,2.41000008583069
862.9303807,0.769999980926514
862.9460057,-0.649999976158142
862.9616307,-1.48000001907349
862.9772557,-1.85000002384186
862.9928807,-2.09999990463257
863.0085057,-2.32999992370605
863.0241307,-2.46000003814697
863.0397557,-2.5699999332428
863.0553807,-2.95000004768372
863.0710057,-3.64000010490417
863.0866307,-4.40000009536743
863.1022557,-4.98000001907349
863.1178807,-5.38000011444092
863.1335057,-5.73999977111816
863.1491307,-6.15000009536743
863.1647557,-6.55999994277954
863.1803807,-6.69999980926514
863.1960057,-6.26000022888184
863.2116307,-5.17999982833862
863.2272557,-3.75
863.2428807,-2.14000010490417
863.2585057,-0.150000005960464
863.2741307,2.36999988555908
863.2897557,5.30999994277954
863.3053807,8.26000022888184
863.3210057,10.5200004577637
863.3366307,11.3299999237061
863.3522557,10.539999961853
863.3678807,8.78999996185303
863.3835057,6.96000003814697
863.3991307,5.53000020980835
863.4147557,4.51000022888184
863.4303807,3.75999999046326
863.4460057,3.11999988555908
863.4616307,2.27999997138977
863.4772557,0.639999985694885
863.4928807,-2.5
863.5085057,-7.46000003814697
863.5241307,-13.539999961853
863.5397557,-19.3500003814697
863.5553807,-23.6100006103516
863.5710057,-25.75
863.5866307,-25.8899993896484
863.6022557,-24.4200000762939
863.6178807,-21.7000007629395
863.6335057,-18.1599998474121
863.6491307,-14.3699998855591
863.6647557,-10.8699998855591
863.6803807,-7.86999988555908
863.6960057,-5.15000009536743
863.7116307,-2.4300000667572
863.7272557,0.370000004768372
863.7428807,3.05999994277954
863.7585057,5.3899998664856
863.7741307,7.11999988555908
863.7897557,8.22999954223633
863.8053807,9.06999969482422
863.8210057,10.0799999237061
863.8366307,11.2200002670288
863.8522557,11.7799997329712
863.8678807,11.0200004577637
863.8835057,8.89999961853027
863.8991307,6.1399998664856
863.9147557,4.01999998092651
863.9303807,4.01000022888184
863.9460057,6.88000011444092
863.9616307,11.6000003814697
863.9772557,15.710000038147
863.9928807,16.8799991607666
864.0085057,14.4300003051758
864.0241307,9.35000038146973
864.0397557,3.34999990463257
864.0553807,-2.10999989509583
864.0710057,-6.3899998664856
864.0866307,-9.51000022888184
864.1022557,-11.8699998855591
864.1178807,-13.9899997711182
864.1335057,-16.0900001525879
864.1491307,-17.8199996948242
864.1647557,-18.6700000762939
864.1803807,-18.5599994659424
864.1960057,-18.0799999237061
864.2116307,-18.0200004577637
864.2272557,-19.0
864.2428807,-21.1800003051758
864.2585057,-24.1700000762939
864.2741307,-27.0100002288818
864.2897557,-28.4400005340576
864.3053807,-27.2800006866455
864.3210057,-22.8199996948242
864.3366307,-15.0900001525879
864.3522557,-5.28000020980835
864.3678807,4.48000001907349
864.3835057,12.1000003814697
864.3991307,16.3600006103516
864.4147557,17.3999996185303
864.4303807,16.3500003814697
864.4460057,14.6499996185303
864.4616307,13.3400001525879
864.4772557,12.9300003051758
864.4928807,13.3800001144409
864.5085057,14.1800003051758
864.5241307,14.6599998474121
864.5397557,14.3400001525879
864.5553807,13.0100002288818
864.5710057,10.8999996185303
864.5866307,8.48999977111816
864.6022557,6.32000017166138
864.6178807,4.78999996185303
864.6335057,3.99000000953674
864.6491307,3.86999988555908
864.6647557,4.26000022888184
864.6803807,4.94000005722046
864.6960057,5.6399998664856
864.7116307,6.07000017166138
864.7272557,6.11999988555908
864.7428807,5.84000015258789
864.7585057,5.48000001907349
864.7741307,5.23999977111816
864.7897557,5.26999998092651
864.8053807,5.53000020980835
864.8210057,5.84999990463257
864.8366307,6.07999992370605
864.8522557,6.11999988555908
864.8678807,5.98999977111816
864.8835057,5.69999980926514
864.8991307,5.30000019073486
864.9147557,4.88000011444092
864.9303807,4.63000011444092
864.9460057,4.69999980926514
864.9616307,5.19000005722046
864.9772557,6.30000019073486
864.9928807,8.1899995803833
865.0085057,10.6800003051758
865.0241307,13.3100004196167
865.0397557,15.5299997329712
865.0553807,16.8700008392334
865.0710057,17.1000003814697
865.0866307,16.2900009155273
865.1022557,14.7700004577637
865.1178807,12.9700002670288
865.1335057,11.2200002670288
865.1491307,9.60000038146973
865.1647557,8.0
865.1803807,6.25
865.1960057,4.30999994277954
865.2116307,2.3199999332428
865.2272557,0.540000021457672
865.2428807,-0.790000021457672
865.2585057,-1.64999997615814
865.2741307,-2.21000003814697
865.2897557,-2.78999996185303
865.3053807,-3.57999992370605
865.3210057,-4.51999998092651
865.3366307,-5.36999988555908
865.3522557,-5.96000003814697
865.3678807,-6.3600001335144
865.3835057,-6.69000005722046
865.3991307,-7.07000017166138
865.4147557,-7.55000019073486
865.4303807,-8.15999984741211
865.4460057,-8.82999992370605
865.4616307,-9.43000030517578
865.4772557,-9.84000015258789
865.4928807,-10.1199998855591
865.5085057,-10.4399995803833
865.5241307,-10.8199996948242
865.5397557,-11.0600004196167
865.5553807,-10.7700004577637
865.5710057,-9.56999969482422
865.5866307,-7.28999996185303
865.6022557,-4.21999979019165
865.6178807,-1.0900000333786
865.6335057,1.30999994277954
865.6491307,2.60999989509583
865.6647557,2.80999994277954
865.6803807,2.25
865.6960057,1.33000004291534
865.7116307,0.319999992847443
865.7272557,-0.670000016689301
865.7428807,-1.64999997615814
865.7585057,-2.63000011444092
865.7741307,-3.63000011444092
865.7897557,-4.69000005722046
865.8053807,-5.80999994277954
865.8210057,-6.8899998664856
865.8366307,-7.82000017166138
865.8522557,-8.53999996185303
865.8678807,-9.0
865.8835057,-9.17000007629395
865.8991307,-9.0600004196167
865.9147557,-8.82999992370605
865.9303807,-8.6899995803833
865.9460057,-8.73999977111816
865.9616307,-8.96000003814697
865.9772557,-9.14000034332275
865.9928807,-9.09000015258789
866.0085057,-8.77000045776367
866.0241307,-8.43000030517578
866.0397557,-8.34000015258789
866.0553807,-8.57999992370605
866.0710057,-8.93000030517578
866.0866307,-9.05000019073486
866.1022557,-8.69999980926514
866.1178807,-7.82000017166138
866.1335057,-6.40000009536743
866.1491307,-4.3600001335144
866.1647557,-1.63999998569489
866.1803807,1.53999996185303
866.1960057,4.71999979019165
866.2116307,7.34000015258789
866.2272557,9.02000045776367
866.2428807,9.67000007629395
866.2585057,9.43000030517578
866.2741307,8.53999996185303
866.2897557,7.28999996185303
866.3053807,5.98000001907349
866.3210057,4.82000017166138
866.3366307,3.77999997138977
866.3522557,2.73000001907349
866.3678807,1.55999994277954
866.3835057,0.360000014305115
866.3991307,-0.639999985694885
866.4147557,-1.27999997138977
866.4303807,-1.50999999046326
866.4460057,-1.41999995708466
866.4616307,-1.1599999666214
866.4772557,-0.930000007152557
866.4928807,-0.889999985694885
866.5085057,-1.0900000333786
866.5241307,-1.48000001907349
866.5397557,-1.88999998569489
866.5553807,-2.23000001907349
866.5710057,-2.52999997138977
866.5866307,-2.85999989509583
866.6022557,-3.16000008583069
866.6178807,-3.33999991416931
866.6335057,-3.33999991416931
866.6491307,-3.19000005722046
866.6647557,-2.96000003814697
866.6803807,-2.69000005722046
866.6960057,-2.3199999332428
866.7116307,-1.61000001430511
866.7272557,-0.159999996423721
866.7428807,2.21000003814697
866.7585057,5.30000019073486
866.7741307,8.51000022888184
866.7897557,11.1499996185303
866.8053807,12.8000001907349
866.8210057,13.3999996185303
866.8366307,13.1000003814697
866.8522557,12.1199998855591
866.8678807,10.6599998474121
866.8835057,8.97000026702881
866.8991307,7.21999979019165
866.9147557,5.53000020980835
866.9303807,3.99000000953674
866.9460057,2.54999995231628
866.9616307,1.13999998569489
866.9772557,-0.129999995231628
866.9928807,-1.0900000333786
867.0085057,-1.58000004291534
867.0241307,-1.69000005722046
867.0397557,-1.60000002384186
867.0553807,-1.50999999046326
867.0710057,-1.60000002384186
867.0866307,-1.88999998569489
867.1022557,-2.25999999046326
867.1178807,-2.59999990463257
867.1335057,-2.88000011444092
867.1491307,-3.11999988555908
867.1647557,-3.28999996185303
867.1803807,-3.34999990463257
867.1960057,-3.30999994277954
867.2116307,-3.24000000953674
867.2272557,-3.25999999046326
867.2428807,-3.38000011444092
867.2585057,-3.50999999046326
867.2741307,-3.39000010490417
867.2897557,-2.69000005722046
867.3053807,-1.19000005722046
867.3210057,1.12000000476837
867.3366307,3.95000004768372
867.3522557,6.71000003814697
867.3678807,8.72999954223633
867.3835057,9.63000011444092
867.3991307,9.51000022888184
867.4147557,8.71000003814697
867.4303807,7.59999990463257
867.4460057,6.42999982833862
867.4616307,5.30000019073486
867.4772557,4.21000003814697
867.4928807,3.08999991416931
867.5085057,1.86000001430511
867.5241307,0.519999980926514
867.5397557,-0.860000014305115
867.5553807,-2.14000010490417
867.5710057,-3.19000005722046
867.5866307,-3.98000001907349
867.6022557,-4.48999977111816
867.6178807,-4.67000007629395
867.6335057,-4.55999994277954
867.6491307,-4.28999996185303
867.6647557,-4.03000020980835
867.6803807,-3.98000001907349
867.6960057,-4.23999977111816
867.7116307,-4.73000001907349
867.7272557,-5.23000001907349
867.7428807,-5.53000020980835
867.7585057,-5.55999994277954
867.7741307,-5.46000003814697
867.7897557,-5.40000009536743
867.8053807,-5.46999979019165
867.8210057,-5.59999990463257
867.8366307,-5.65000009536743
867.8522557,-5.51999998092651
867.8678807,-5.07000017166138
867.8835057,-4.05999994277954
867.8991307,-2.20000004768372
867.9147557,0.600000023841858
867.9303807,3.98000001907349
867.9460057,7.26999998092651
867.9616307,9.78999996185303
867.9772557,11.1800003051758
867.9928807,11.3599996566772
868.0085057,10.5500001907349
868.0241307,9.14000034332275
868.0397557,7.55999994277954
868.0553807,6.1399998664856
868.0710057,4.88000011444092
868.0866307,3.60999989509583
868.1022557,2.22000002861023
868.1178807,0.75
868.1335057,-0.629999995231628
868.1491307,-1.77999997138977
868.1647557,-2.55999994277954
868.1803807,-2.94000005722046
868.1960057,-3.0
868.2116307,-2.82999992370605
868.2272557,-2.54999995231628
868.2428807,-2.28999996185303
868.2585057,-2.16000008583069
868.2741307,-2.14000010490417
868.2897557,-2.15000009536743
868.3053807,-2.23000001907349
868.3210057,-2.44000005722046
868.3366307,-2.79999995231628
868.3522557,-3.19000005722046
868.3678807,-3.47000002861023
868.3835057,-3.60999989509583
868.3991307,-3.67000007629395
868.4147557,-3.75
868.4303807,-3.92000007629395
868.4460057,-4.1399998664856
868.4616307,-4.26000022888184
868.4772557,-4.09000015258789
868.4928807,-3.51999998092651
868.5085057,-2.39000010490417
868.5241307,-0.540000021457672
868.5397557,2.03999996185303
868.5553807,5.05999994277954
868.5710057,7.94000005722046
868.5866307,10.0100002288818
868.6022557,10.8599996566772
868.6178807,10.5
868.6335057,9.35999965667725
868.6491307,7.96000003814697
868.6647557,6.65999984741211
868.6803807,5.48000001907349
868.6960057,4.28999996185303
868.7116307,2.9300000667572
868.7272557,1.4099999666214
868.7428807,-0.0299999993294477
868.7585057,-1.14999997615814
868.7741307,-1.78999996185303
868.7897557,-2.02999997138977
868.8053807,-2.00999999046326
868.8210057,-1.91999995708466
868.8366307,-1.95000004768372
868.8522557,-2.09999990463257
868.8678807,-2.30999994277954
868.8835057,-2.55999994277954
868.8991307,-2.83999991416931
868.9147557,-3.02999997138977
868.9303807,-3.08999991416931
868.9460057,-3.08999991416931
868.9616307,-3.17000007629395
868.9772557,-3.41000008583069
868.9928807,-3.72000002861023
869.0085057,-3.89000010490417
869.0241307,-3.83999991416931
869.0397557,-3.67000007629395
869.0553807,-3.51999998092651
869.0710057,-3.40000009536743
869.0866307,-3.28999996185303
869.1022557,-3.05999994277954
869.1178807,-2.38000011444092
869.1335057,-0.879999995231628
869.1491307,1.58000004291534
869.1647557,4.71999979019165
869.1803807,7.82999992370605
869.1960057,10.1400003433228
869.2116307,11.1599998474121
869.2272557,10.8800001144409
869.2428807,9.69999980926514
869.2585057,8.15999984741211
869.2741307,6.61999988555908
869.2897557,5.1399998664856
869.3053807,3.64000010490417
869.3210057,2.01999998092651
869.3366307,0.319999992847443
869.3522557,-1.25
869.3678807,-2.49000000953674
869.3835057,-3.30999994277954
869.3991307,-3.72000002861023
869.4147557,-3.85999989509583
869.4303807,-3.85999989509583
869.4460057,-3.86999988555908
869.4616307,-3.94000005722046
869.4772557,-4.01999998092651
869.4928807,-4.07000017166138
869.5085057,-4.09999990463257
869.5241307,-4.1100001335144
869.5397557,-4.03999996185303
869.5553807,-3.91000008583069
869.5710057,-3.85999989509583
869.5866307,-4.0
869.6022557,-4.28999996185303
869.6178807,-4.57000017166138
869.6335057,-4.69999980926514
869.6491307,-4.65999984741211
869.6647557,-4.57000017166138
869.6803807,-4.46000003814697
869.6960057,-4.1399998664856
869.7116307,-3.20000004768372
869.7272557,-1.33000004291534
869.7428807,1.44000005722046
869.7585057,4.73000001907349
869.7741307,7.80999994277954
869.7897557,9.98999977111816
869.8053807,10.9399995803833
869.8210057,10.6899995803833
869.8366307,9.52000045776367
869.8522557,7.84000015258789
869.8678807,6.0
869.8835057,4.30999994277954
869.8991307,2.97000002861023
869.9147557,1.95000004768372
869.9303807,0.920000016689301
869.9460057,-0.419999986886978
869.9616307,-2.03999996185303
869.9772557,-3.47000002861023
869.9928807,-4.26000022888184
870.0085057,-4.28000020980835
870.0241307,-3.72000002861023
870.0397557,-2.97000002861023
870.0553807,-2.40000009536743
870.0710057,-2.23000001907349
870.0866307,-2.46000003814697
870.1022557,-2.9300000667572
870.1178807,-3.40000009536743
870.1335057,-3.76999998092651
870.1491307,-4.01000022888184
870.1647557,-4.09000015258789
870.1803807,-4.01000022888184
870.1960057,-3.86999988555908
870.2116307,-3.78999996185303
870.2272557,-3.77999997138977
870.2428807,-3.75
870.2585057,-3.63000011444092
870.2741307,-3.33999991416931
870.2897557,-2.75999999046326
870.3053807,-1.72000002861023
870.3210057,-0.0599999986588955
870.3366307,2.19000005722046
870.3522557,4.80999994277954
870.3678807,7.28000020980835
870.3835057,9.05000019073486
870.3991307,9.76000022888184
870.4147557,9.32999992370605
870.4303807,8.02000045776367
870.4460057,6.28999996185303
870.4616307,4.57000017166138
870.4772557,3.09999990463257
870.4928807,1.88999998569489
870.5085057,0.819999992847443
870.5241307,-0.259999990463257
870.5397557,-1.39999997615814
870.5553807,-2.40000009536743
870.5710057,-3.0
870.5866307,-3.11999988555908
870.6022557,-2.90000009536743
870.6178807,-2.54999995231628
870.6335057,-2.29999995231628
870.6491307,-2.24000000953674
870.6647557,-2.3199999332428
870.6803807,-2.40000009536743
870.6960057,-2.45000004768372
870.7116307,-2.46000003814697
870.7272557,-2.38000011444092
870.7428807,-2.1800000667572
870.7585057,-1.85000002384186
870.7741307,-1.45000004768372
870.7897557,-0.970000028610229
870.8053807,-0.280000001192093
870.8210057,0.75
870.8366307,2.09999990463257
870.8522557,3.49000000953674
870.8678807,4.67000007629395
870.8835057,5.63000011444092
870.8991307,6.55999994277954
870.9147557,7.67999982833862
870.9303807,9.07999992370605
870.9460057,10.5500001907349
870.9616307,11.6099996566772
870.9772557,11.7799997329712
870.9928807,10.8500003814697
871.0085057,8.92000007629395
871.0241307,6.32999992370605
871.0397557,3.48000001907349
871.0553807,0.720000028610229
871.0710057,-1.64999997615814
871.0866307,-3.51999998092651
871.1022557,-4.88000011444092
871.1178807,-5.84000015258789
871.1335057,-6.48999977111816
871.1491307,-6.90999984741211
871.1647557,-7.17999982833862
871.1803807,-7.46000003814697
871.1960057,-7.86999988555908
871.2116307,-8.35000038146973
871.2272557,-8.69999980926514
871.2428807,-8.80000019073486
871.2585057,-8.6899995803833
871.2741307,-8.47000026702881
871.2897557,-8.1899995803833
871.3053807,-7.82999992370605
871.3210057,-7.40999984741211
871.3366307,-7.03000020980835
871.3522557,-6.78000020980835
871.3678807,-6.65000009536743
871.3835057,-6.5
871.3991307,-6.19000005722046
871.4147557,-5.6399998664856
871.4303807,-4.82000017166138
871.4460057,-3.61999988555908
871.4616307,-1.87000000476837
871.4772557,0.649999976158142
871.4928807,3.84999990463257
871.5085057,7.17999982833862
871.5241307,9.84000015258789
871.5397557,11.2299995422363
871.5553807,11.25
871.5710057,10.2600002288818
871.5866307,8.77999973297119
871.6022557,7.28999996185303
871.6178807,6.0
871.6335057,4.90999984741211
871.6491307,3.79999995231628
871.6647557,2.53999996185303
871.6803807,1.19000005722046
871.6960057,-0.0799999982118607
871.7116307,-1.12000000476837
871.7272557,-1.76999998092651
871.7428807,-1.95000004768372
871.7585057,-1.75
871.7741307,-1.4099999666214
871.7897557,-1.23000001907349
871.8053807,-1.32000005245209
871.8210057,-1.5900000333786
871.8366307,-1.85000002384186
871.8522557,-1.97000002861023
871.8678807,-1.89999997615814
871.8835057,-1.72000002861023
871.8991307,-1.51999998092651
871.9147557,-1.3400000333786
871.9303807,-1.08000004291534
871.9460057,-0.620000004768372
871.9616307,-0.0199999995529652
871.9772557,0.439999997615814
871.9928807,0.529999971389771
872.0085057,0.280000001192093
872.0241307,0.0199999995529652
872.0397557,0.150000005960464
872.0553807,0.870000004768372
872.0710057,2.05999994277954
872.0866307,3.44000005722046
872.1022557,4.8600001335144
872.1178807,6.19999980926514
872.1335057,7.15000009536743
872.1491307,7.34000015258789
872.1647557,6.6399998664856
872.1803807,5.25
872.1960057,3.5
872.2116307,1.62999999523163
872.2272557,-0.259999990463257
872.2428807,-2.10999989509583
872.2585057,-3.78999996185303
872.2741307,-5.23000001907349
872.2897557,-6.34999990463257
872.3053807,-7.05000019073486
872.3210057,-7.26999998092651
872.3366307,-7.07999992370605
872.3522557,-6.67999982833862
872.3678807,-6.32000017166138
872.3835057,-6.17000007629395
872.3991307,-6.26000022888184
872.4147557,-6.55000019073486
872.4303807,-6.90000009536743
872.4460057,-7.07999992370605
872.4616307,-6.8600001335144
872.4772557,-6.21999979019165
872.4928807,-5.36999988555908
872.5085057,-4.6100001335144
872.5241307,-4.19000005722046
872.5397557,-4.07999992370605
872.5553807,-4.07000017166138
872.5710057,-3.94000005722046
872.5866307,-3.66000008583069
872.6022557,-3.19000005722046
872.6178807,-2.32999992370605
872.6335057,-0.819999992847443
872.6491307,1.42999994754791
872.6647557,4.15999984741211
872.6803807,6.8600001335144
872.6960057,8.98999977111816
872.7116307,10.2299995422363
