Time(s),Value(%)
0.0222366,56.0900001525879
0.0378616,62.5999984741211
0.0534866,62.4599990844727
0.0691116,57.9700012207031
0.0847366,52.3400001525879
0.1003616,48.0900001525879
0.1159866,45.9099998474121
0.1316116,44.8400001525879
0.1472366,43.2299995422363
0.1628616,39.689998626709
0.1784866,33.4700012207031
0.1941116,24.6800003051758
0.2097366,14.3999996185303
0.2253616,4.53000020980835
0.2409866,-3.16000008583069
0.2566116,-7.96000003814697
0.2722366,-10.4300003051758
0.2878616,-12.039999961853
0.3034866,-14.3699998855591
0.3191116,-18.1900005340576
0.3347366,-23.1299991607666
0.3503616,-28.1599998474121
0.3659866,-32.3400001525879
0.3816116,-35.1500015258789
0.3972366,-36.4799995422363
0.4128616,-36.5400009155273
0.4284866,-35.8699989318848
0.4441116,-35.060001373291
0.4597366,-34.439998626709
0.4753616,-33.9799995422363
0.4909866,-33.4799995422363
0.5066116,-32.9199981689453
0.5222366,-32.5699996948242
0.5378616,-32.5
0.5534866,-32.2700004577637
0.5691116,-31.3999996185303
0.5847366,-29.8199996948242
0.6003616,-27.8199996948242
0.6159866,-25.6499996185303
0.6316116,-23.4799995422363
0.6472366,-21.5900001525879
0.6628616,-20.1700000762939
0.6784866,-18.6100006103516
0.6941116,-14.9499998092651
0.7097366,-6.84000015258789
0.7253616,6.67999982833862
0.7409866,24.1700000762939
0.7566116,42.2599983215332
0.7722366,57.3300018310547
0.7878616,66.8899993896484
0.8034866,70.3499984741211
0.8191116,68.9300003051758
0.8347366,64.8399963378906
0.8503616,60.1800003051758
0.8659866,56.25
0.8816116,53.1699981689453
0.8972366,50.1699981689453
0.9128616,46.0499992370605
0.9284866,39.6399993896484
0.9441116,30.4099998474121
0.9597366,19.0200004577637
0.9753616,7.51000022888184
0.9909866,-1.62999999523163
1.0066116,-6.94000005722046
1.0222366,-8.85999965667725
1.0378616,-9.35999965667725
1.0534866,-10.5900001525879
1.0691116,-13.4399995803833
1.0847366,-17.2700004577637
1.1003616,-20.8400001525879
1.1159866,-23.4699993133545
1.1316116,-25.2399997711182
1.1472366,-26.3899993896484
1.1628616,-26.9300003051758
1.1784866,-26.9300003051758
1.1941116,-26.7099990844727
1.2097366,-26.7000007629395
1.2253616,-27.2000007629395
1.2409866,-28.3199996948242
1.2566116,-29.9300003051758
1.2722366,-31.6700000762939
1.2878616,-33.2000007629395
1.3034866,-34.2999992370605
1.3191116,-34.8899993896484
1.3347366,-35.060001373291
1.3503616,-34.8499984741211
1.3659866,-34.1599998474121
1.3816116,-32.9799995422363
1.3972366,-31.5699996948242
1.4128616,-30.2900009155273
1.4284866,-29.0699996948242
1.4441116,-27.2299995422363
1.4597366,-23.5699996948242
1.4753616,-16.4500007629395
1.4909866,-4.46999979019165
1.5066116,12.2299995422363
1.5222366,31.2399997711182
1.5378616,48.7700004577637
1.5534866,61.4199981689453
1.5691116,67.5400009155273
1.5847366,67.6100006103516
1.6003616,63.7099990844727
1.6159866,58.5900001525879
1.6316116,54.5800018310547
1.6472366,52.560001373291
1.6628616,51.7999992370605
1.6784866,50.560001373291
1.6941116,47.0099983215332
1.7097366,39.9900016784668
1.7253616,29.5799999237061
1.7409866,17.25
1.7566116,5.25
1.7722366,-4.28999996185303
1.7878616,-10.3199996948242
1.8034866,-12.9700002670288
1.8191116,-13.4499998092651
1.8347366,-13.6300001144409
1.8503616,-15.3800001144409
1.8659866,-19.5499992370605
1.8816116,-25.6399993896484
1.8972366,-32.0900001525879
1.9128616,-37.2799987792969
1.9284866,-40.4199981689453
1.9441116,-41.7700004577637
1.9597366,-42.1199989318848
1.9753616,-42.1100006103516
1.9909866,-41.9799995422363
2.0066116,-41.5200004577637
2.0222366,-40.2000007629395
2.0378616,-37.6800003051758
2.0534866,-34.2299995422363
2.0691116,-30.6599998474121
2.0847366,-27.5900001525879
2.1003616,-25.0499992370605
2.1159866,-22.8799991607666
2.1316116,-21.2000007629395
2.1472366,-20.5100002288818
2.1628616,-21.1700000762939
2.1784866,-23.0100002288818
2.1941116,-25.1299991607666
2.2097366,-26.2999992370605
2.2253616,-25.3899993896484
2.2409866,-21.5200004577637
2.2566116,-13.8000001907349
2.2722366,-1.61000001430511
2.2878616,14.5500001907349
2.3034866,32.5200004577637
2.3191116,48.939998626709
2.3347366,60.6399993896484
2.3503616,66.0199966430664
2.3659866,65.7200012207031
2.3816116,61.8400001525879
2.3972366,56.6399993896484
2.4128616,51.6300010681152
2.4284866,47.6100006103516
2.4441116,44.6500015258789
2.4597366,41.9500007629395
2.4753616,38.0299987792969
2.4909866,31.7800006866455
2.5066116,23.4099998474121
2.5222366,14.3599996566772
2.5378616,6.34999990463257
2.5534866,0.469999998807907
2.5691116,-3.1800000667572
2.5847366,-5.40999984741211
2.6003616,-7.69999980926514
2.6159866,-11.3699998855591
2.6316116,-16.5599994659424
2.6472366,-22.0799999237061
2.6628616,-26.5200004577637
2.6784866,-29.3600006103516
2.6941116,-31.0900001525879
2.7097366,-32.5099983215332
2.7253616,-33.9099998474121
2.7409866,-34.8699989318848
2.7566116,-34.9500007629395
2.7722366,-34.2999992370605
2.7878616,-33.6599998474121
2.8034866,-33.6199989318848
2.8191116,-33.8600006103516
2.8347366,-33.3300018310547
2.8503616,-31.2999992370605
2.8659866,-28.1000003814697
2.8816116,-24.7299995422363
2.8972366,-21.8299999237061
2.9128616,-19.25
2.9284866,-16.6100006103516
2.9441116,-13.9300003051758
2.9597366,-11.6599998474121
2.9753616,-9.75
2.9909866,-6.59999990463257
3.0066116,0.419999986886978
3.0222366,13.0600004196167
3.0378616,30.2399997711182
3.0534866,48.3300018310547
3.0691116,63.1599998474121
3.0847366,72.1600036621094
3.1003616,75.3000030517578
3.1159866,74.379997253418
3.1316116,71.6800003051758
3.1472366,68.8300018310547
3.1628616,66.2699966430664
3.1784866,63.5299987792969
3.1941116,59.8300018310547
3.2097366,54.3400001525879
3.2253616,46.2000007629395
3.2409866,35.1399993896484
3.2566116,22.2999992370605
3.2722366,10.1499996185303
3.2878616,0.990000009536743
3.3034866,-4.40999984741211
3.3191116,-7.19999980926514
3.3347366,-9.55000019073486
3.3503616,-13.3900003433228
3.3659866,-19.1800003051758
3.3816116,-25.8099994659424
3.3972366,-31.5300006866455
3.4128616,-35.1699981689453
3.4284866,-36.5800018310547
3.4441116,-36.4599990844727
3.4597366,-35.6100006103516
3.4753616,-34.6599998474121
3.4909866,-34.0499992370605
3.5066116,-34.0499992370605
3.5222366,-34.4900016784668
3.5378616,-34.7599983215332
3.5534866,-34.3400001525879
3.5691116,-33.0
3.5847366,-30.7299995422363
3.6003616,-27.6399993896484
3.6159866,-24.0599994659424
3.6316116,-20.6499996185303
3.6472366,-18.2800006866455
3.6628616,-17.6700000762939
3.6784866,-18.9899997711182
3.6941116,-21.4599990844727
3.7097366,-23.4799995422363
3.7253616,-23.25
3.7409866,-19.1100006103516
3.7566116,-9.86999988555908
3.7722366,4.3600001335144
3.7878616,21.7199993133545
3.8034866,38.939998626709
3.8191116,52.6699981689453
3.8347366,60.9099998474121
3.8503616,63.6500015258789
3.8659866,62.3199996948242
3.8816116,58.939998626709
3.8972366,55.4900016784668
3.9128616,53.1500015258789
3.9284866,51.6199989318848
3.9441116,49.3499984741211
3.9597366,44.5999984741211
3.9753616,36.6399993896484
3.9909866,26.3099994659424
4.0066116,15.3500003814697
4.0222366,5.34000015258789
4.0378616,-2.64000010490417
4.0534866,-8.18000030517578
4.0691116,-11.8900003433228
4.0847366,-15.3000001907349
4.1003616,-19.7900009155273
4.1159866,-25.3299999237061
4.1316116,-30.6000003814697
4.1472366,-34.1800003051758
4.1628616,-35.810001373291
4.1784866,-36.5
4.1941116,-37.6300010681152
4.2097366,-39.9900016784668
4.2253616,-43.2299995422363
4.2409866,-46.0800018310547
4.2566116,-47.3699989318848
4.2722366,-46.810001373291
4.2878616,-44.9099998474121
4.3034866,-42.5200004577637
4.3191116,-40.5200004577637
4.3347366,-39.3400001525879
4.3503616,-38.6300010681152
4.3659866,-37.6599998474121
4.3816116,-35.9599990844727
4.3972366,-33.7200012207031
4.4128616,-31.4099998474121
4.4284866,-29.2000007629395
4.4441116,-26.7000007629395
4.4597366,-23.0300006866455
4.4753616,-17.1399993896484
4.4909866,-7.96000003814697
4.5066116,4.94999980926514
4.5222366,20.4099998474121
4.5378616,35.5
4.5534866,46.9799995422363
4.5691116,53.1300010681152
4.5847366,54.439998626709
4.6003616,52.939998626709
4.6159866,50.8300018310547
4.6316116,49.4799995422363
4.6472366,49.0200004577637
4.6628616,48.6500015258789
4.6784866,47.189998626709
4.6941116,43.6800003051758
4.7097366,37.8600006103516
4.7253616,30.2000007629395
4.7409866,21.7000007629395
4.7566116,13.3900003433228
4.7722366,5.92999982833862
4.7878616,-0.560000002384186
4.8034866,-6.21000003814697
4.8191116,-11.0100002288818
4.8347366,-14.9799995422363
4.8503616,-18.3299999237061
4.8659866,-21.4300003051758
4.8816116,-24.4099998474121
4.8972366,-26.9899997711182
4.9128616,-28.8199996948242
4.9284866,-30.0
4.9441116,-30.8999996185303
4.9597366,-31.7700004577637
4.9753616,-32.3600006103516
4.9909866,-32.2200012207031
5.0066116,-31.2800006866455
5.0222366,-29.9599990844727
5.0378616,-28.6000003814697
5.0534866,-26.9500007629395
5.0691116,-24.5900001525879
5.0847366,-21.5300006866455
5.1003616,-18.0499992370605
5.1159866,-14.3400001525879
5.1316116,-10.7299995422363
5.1472366,-7.8899998664856
5.1628616,-6.3899998664856
5.1784866,-5.90000009536743
5.1941116,-5.07999992370605
5.2097366,-1.98000001907349
5.2253616,5.09999990463257
5.2409866,16.5799999237061
5.2566116,30.8400001525879
5.2722366,44.8300018310547
5.2878616,55.5900001525879
5.3034866,61.8199996948242
5.3191116,64.2699966430664
5.3347366,64.7200012207031
5.3503616,64.4899978637695
5.3659866,63.7999992370605
5.3816116,62.2900009155273
5.3972366,59.7400016784668
5.4128616,56.0099983215332
5.4284866,50.560001373291
5.4441116,42.8199996948242
5.4597366,33.25
5.4753616,23.7600002288818
5.4909866,16.9500007629395
5.5066116,14.3199996948242
5.5222366,15.0100002288818
5.5378616,16.0699996948242
5.5534866,14.4200000762939
5.5691116,8.97999954223633
5.5847366,1.3400000333786
5.6003616,-5.53999996185303
5.6159866,-9.35000038146973
5.6316116,-9.53999996185303
5.6472366,-7.42999982833862
5.6628616,-5.40999984741211
5.6784866,-5.71999979019165
5.6941116,-9.39000034332275
5.7097366,-15.7600002288818
5.7253616,-22.9799995422363
5.7409866,-28.9400005340576
5.7566116,-32.0099983215332
5.7722366,-31.5900001525879
5.7878616,-28.4300003051758
5.8034866,-24.5200004577637
5.8191116,-22.3099994659424
5.8347366,-23.3299999237061
5.8503616,-27.0699996948242
5.8659866,-31.2800006866455
5.8816116,-33.2400016784668
5.8972366,-30.8600006103516
5.9128616,-23.0499992370605
5.9284866,-10.0500001907349
5.9441116,5.98000001907349
5.9597366,21.25
5.9753616,31.6000003814697
5.9909866,34.560001373291
6.0066116,30.6100006103516
6.0222366,22.8299999237061
6.0378616,15.3500003814697
6.0534866,11.3900003433228
6.0691116,11.7299995422363
6.0847366,14.6099996566772
6.1003616,17.0799999237061
6.1159866,16.5100002288818
6.1316116,11.7299995422363
6.1472366,3.51999998092651
6.1628616,-5.71000003814697
6.1784866,-13.3800001144409
6.1941116,-18.25
6.2097366,-20.6299991607666
6.2253616,-21.5300006866455
6.2409866,-21.8700008392334
6.2566116,-22.2800006866455
6.2722366,-23.3899993896484
6.2878616,-25.8799991607666
6.3034866,-29.9699993133545
6.3191116,-34.9799995422363
6.3347366,-39.5299987792969
6.3503616,-42.4799995422363
6.3659866,-43.439998626709
6.3816116,-42.6300010681152
6.3972366,-40.6800003051758
6.4128616,-38.25
6.4284866,-35.8499984741211
6.4441116,-33.6800003051758
6.4597366,-31.6200008392334
6.4753616,-29.4500007629395
6.4909866,-27.1900005340576
6.5066116,-25.1000003814697
6.5222366,-23.3700008392334
6.5378616,-22.0900001525879
6.5534866,-21.1700000762939
6.5691116,-19.9099998474121
6.5847366,-16.6299991607666
6.6003616,-9.22999954223633
6.6159866,3.16000008583069
6.6316116,18.8700008392334
6.6472366,34.1100006103516
6.6628616,45.1500015258789
6.6784866,50.2900009155273
6.6941116,50.4099998474121
6.7097366,47.9500007629395
6.7253616,45.3300018310547
6.7409866,43.8600006103516
6.7566116,43.5900001525879
6.7722366,43.6300010681152
6.7878616,42.5900001525879
6.8034866,39.0400009155273
6.8191116,32.2200012207031
6.8347366,22.5300006866455
6.8503616,11.5799999237061
6.8659866,1.46000003814697
6.8816116,-6.19000005722046
6.8972366,-10.8400001525879
6.9128616,-13.0
6.9284866,-13.6800003051758
6.9441116,-13.9300003051758
6.9597366,-14.4700002670288
6.9753616,-15.8599996566772
6.9909866,-18.4599990844727
7.0066116,-22.2099990844727
7.0222366,-26.4300003051758
7.0378616,-30.0100002288818
7.0534866,-32.0099983215332
7.0691116,-31.9899997711182
7.0847366,-30.1399993896484
7.1003616,-27.2199993133545
7.1159866,-24.4200000762939
7.1316116,-22.6599998474121
7.1472366,-21.9300003051758
7.1628616,-21.2700004577637
7.1784866,-19.6900005340576
7.1941116,-16.9300003051758
7.2097366,-13.7299995422363
7.2253616,-11.3599996566772
7.2409866,-10.7700004577637
7.2566116,-11.6199998855591
7.2722366,-12.0
7.2878616,-8.9399995803833
7.3034866,-0.0299999993294477
7.3191116,14.7600002288818
7.3347366,32.6599998474121
7.3503616,49.2200012207031
7.3659866,60.4199981689453
7.3816116,64.5599975585938
7.3972366,62.8699989318848
7.4128616,58.4000015258789
7.4284866,54.2000007629395
7.4441116,51.8899993896484
7.4597366,51.2700004577637
7.4753616,50.8199996948242
7.4909866,48.6100006103516
7.5066116,43.0900001525879
7.5222366,33.7900009155273
7.5378616,21.7199993133545
7.5534866,9.31999969482422
7.5691116,-0.75
7.5847366,-6.96999979019165
7.6003616,-9.55000019073486
7.6159866,-9.96000003814697
7.6316116,-9.97999954223633
7.6472366,-10.9499998092651
7.6628616,-13.5500001907349
7.6784866,-17.5699996948242
7.6941116,-21.8999996185303
7.7097366,-25.1900005340576
7.7253616,-26.7299995422363
7.7409866,-26.7600002288818
7.7566116,-26.2299995422363
7.7722366,-26.2900009155273
7.7878616,-27.5499992370605
7.8034866,-29.5900001525879
7.8191116,-31.1299991607666
7.8347366,-30.9799995422363
7.8503616,-28.9099998474121
7.8659866,-25.7199993133545
7.8816116,-22.7099990844727
7.8972366,-21.0200004577637
7.9128616,-21.3400001525879
7.9284866,-23.8700008392334
7.9441116,-28.1299991607666
7.9597366,-32.5499992370605
7.9753616,-34.6500015258789
7.9909866,-31.7099990844727
8.0066116,-21.75
8.0222366,-4.90999984741211
8.0378616,15.8000001907349
8.0534866,35.439998626709
8.0691116,49.2999992370605
8.0847366,55.2299995422363
8.1003616,54.4199981689453
8.1159866,50.2799987792969
8.1316116,46.2900009155273
8.1472366,44.2599983215332
8.1628616,44.0400009155273
8.1784866,44.4099998474121
8.1941116,44.0400009155273
8.2097366,41.7099990844727
8.2253616,36.3800010681152
8.2409866,27.6599998474121
8.2566116,16.4099998474121
8.2722366,4.82000017166138
8.2878616,-4.34000015258789
8.3034866,-9.15999984741211
8.3191116,-9.56999969482422
8.3347366,-7.32999992370605
8.3503616,-5.07999992370605
8.3659866,-5.0
8.3816116,-7.59000015258789
8.3972366,-11.6700000762939
8.4128616,-15.5600004196167
8.4284866,-18.4099998474121
8.4441116,-20.4300003051758
8.4597366,-22.3899993896484
8.4753616,-24.8199996948242
8.4909866,-27.5900001525879
8.5066116,-29.9599990844727
8.5222366,-31.2000007629395
8.5378616,-31.1299991607666
8.5534866,-30.0499992370605
8.5691116,-28.4300003051758
8.5847366,-26.8999996185303
8.6003616,-25.9400005340576
8.6159866,-25.4200000762939
8.6316116,-24.4599990844727
8.6472366,-22.0799999237061
8.6628616,-17.7199993133545
8.6784866,-11.0100002288818
8.6941116,-1.42999994754791
8.7097366,11.2600002288818
8.7253616,26.1499996185303
8.7409866,40.8300018310547
8.7566116,52.4700012207031
8.7722366,59.2799987792969
8.7878616,61.0800018310547
8.8034866,58.7900009155273
8.8191116,53.9700012207031
8.8347366,48.2400016784668
8.8503616,42.7000007629395
8.8659866,37.5999984741211
8.8816116,32.3800010681152
8.8972366,26.0
8.9128616,17.7000007629395
8.9284866,7.84999990463257
8.9441116,-2.03999996185303
8.9597366,-10.1000003814697
8.9753616,-15.25
8.9909866,-17.6900005340576
9.0066116,-18.4099998474121
9.0222366,-18.4400005340576
9.0378616,-18.6000003814697
9.0534866,-19.3999996185303
9.0691116,-20.8999996185303
9.0847366,-22.7600002288818
9.1003616,-24.6499996185303
9.1159866,-26.4899997711182
9.1316116,-28.2000007629395
9.1472366,-29.5300006866455
9.1628616,-30.1499996185303
9.1784866,-30.0100002288818
9.1941116,-29.4200000762939
9.2097366,-28.9799995422363
9.2253616,-29.0900001525879
9.2409866,-29.5799999237061
9.2566116,-29.7199993133545
9.2722366,-28.6800003051758
9.2878616,-26.2299995422363
9.3034866,-22.75
9.3191116,-18.3799991607666
9.3347366,-12.3299999237061
9.3503616,-3.05999994277954
9.3659866,10.4200000762939
9.3816116,27.1499996185303
9.3972366,44.0499992370605
9.4128616,57.0999984741211
9.4284866,63.3899993896484
9.4441116,62.6699981689453
9.4597366,57.5999984741211
9.4753616,52.2599983215332
9.4909866,49.9599990844727
9.5066116,51.5400009155273
9.5222366,55.0299987792969
9.5378616,56.7599983215332
9.5534866,53.5999984741211
9.5691116,44.7299995422363
9.5847366,32.0299987792969
9.6003616,19.0699996948242
9.6159866,9.39999961853027
9.6316116,4.67000007629395
9.6472366,3.66000008583069
9.6628616,2.88000011444092
9.6784866,-0.860000014305115
9.6941116,-7.98999977111816
9.7097366,-16.1599998474121
9.7253616,-22.4699993133545
9.7409866,-25.7099990844727
9.7566116,-26.5599994659424
9.7722366,-26.4500007629395
9.7878616,-26.2700004577637
9.8034866,-26.1700000762939
9.8191116,-26.3099994659424
9.8347366,-27.4599990844727
9.8503616,-30.4200000762939
9.8659866,-35.0800018310547
9.8816116,-40.2599983215332
9.8972366,-44.4099998474121
9.9128616,-46.3800010681152
9.9284866,-45.7400016784668
9.9441116,-42.7400016784668
9.9597366,-38.0400009155273
9.9753616,-32.1599998474121
9.9909866,-24.7700004577637
10.0066116,-15.0200004577637
10.0222366,-2.78999996185303
10.0378616,10.4499998092651
10.0534866,22.0400009155273
10.0691116,29.4799995422363
10.0847366,31.8400001525879
10.1003616,30.25
10.1159866,27.1200008392334
10.1316116,24.4599990844727
10.1472366,22.6499996185303
10.1628616,20.7600002288818
10.1784866,17.9699993133545
10.1941116,14.4700002670288
10.2097366,10.960000038147
10.2253616,7.40999984741211
10.2409866,2.70000004768372
10.2566116,-4.40999984741211
10.2722366,-13.8599996566772
10.2878616,-23.6800003051758
10.3034866,-31.2000007629395
10.3191116,-34.7900009155273
10.3347366,-34.6500015258789
10.3503616,-32.2299995422363
10.3659866,-29.1100006103516
10.3816116,-26.4400005340576
10.3972366,-25.0400009155273
10.4128616,-25.5300006866455
10.4284866,-28.0100002288818
10.4441116,-31.75
10.4597366,-35.3300018310547
10.4753616,-37.3600006103516
10.4909866,-37.3400001525879
10.5066116,-36.0999984741211
10.5222366,-35.4599990844727
10.5378616,-36.5999984741211
10.5534866,-38.7000007629395
10.5691116,-39.4500007629395
10.5847366,-37.0999984741211
10.6003616,-32.0
10.6159866,-25.9200000762939
10.6316116,-20.0200004577637
10.6472366,-13.6300001144409
10.6628616,-5.17000007629395
10.6784866,5.82000017166138
10.6941116,18.0200004577637
10.7097366,29.2800006866455
10.7253616,38.1500015258789
10.7409866,44.310001373291
10.7566116,47.8600006103516
10.7722366,48.7200012207031
10.7878616,46.8699989318848
10.8034866,43.1300010681152
10.8191116,38.9199981689453
10.8347366,35.0999984741211
10.8503616,31.1700000762939
10.8659866,25.7999992370605
10.8816116,18.3999996185303
10.8972366,9.98999977111816
10.9128616,2.64000010490417
10.9284866,-1.95000004768372
10.9441116,-3.67000007629395
10.9597366,-3.85999989509583
10.9753616,-4.1399998664856
10.9909866,-5.21000003814697
11.0066116,-6.5
11.0222366,-7.13000011444092
11.0378616,-7.1100001335144
11.0534866,-7.55000019073486
11.0691116,-9.89000034332275
11.0847366,-14.6199998855591
11.1003616,-20.6100006103516
11.1159866,-25.7600002288818
11.1316116,-28.2000007629395
11.1472366,-27.5200004577637
11.1628616,-24.9599990844727
11.1784866,-22.5900001525879
11.1941116,-21.8400001525879
11.2097366,-22.6100006103516
11.2253616,-23.5
11.2409866,-22.6900005340576
11.2566116,-18.9500007629395
11.2722366,-12.0699996948242
11.2878616,-2.33999991416931
11.3034866,9.96000003814697
11.3191116,24.0499992370605
11.3347366,38.2099990844727
11.3503616,50.2799987792969
11.3659866,58.75
11.3816116,63.3199996948242
11.3972366,64.7099990844727
11.4128616,64.0500030517578
11.4284866,62.0499992370605
11.4441116,58.8199996948242
11.4597366,54.2999992370605
