Time(s),Value(%)
1775.006776,173.139999389648
1775.022401,173.889999389648
1775.038026,174.320007324219
1775.053651,174.729995727539
1775.069276,175.539993286133
1775.084901,176.899993896484
1775.100526,178.679992675781
1775.116151,180.429992675781
1775.131776,181.619995117188
1775.147401,181.869995117188
1775.163026,181.070007324219
1775.178651,179.190002441406
1775.194276,175.970001220703
1775.209901,171.169998168945
1775.225526,164.940002441406
1775.241151,158.240005493164
1775.256776,152.460006713867
1775.272401,148.490005493164
1775.288026,145.919998168945
1775.303651,143.679992675781
1775.319276,141.210006713867
1775.334901,138.809997558594
1775.350526,137.080001831055
1775.366151,136.339996337891
1775.381776,136.460006713867
1775.397401,137.179992675781
1775.413026,138.360000610352
1775.428651,139.990005493164
1775.444276,141.979995727539
1775.459901,143.720001220703
1775.475526,144.119995117188
1775.491151,142.190002441406
1775.506776,134.860000610352
1775.522401,126.449996948242
1775.538026,118.5
1775.553651,111.860000610352
1775.569276,106.080001831055
1775.584901,100.230003356934
1775.600526,94.0100021362305
1775.616151,87.6100006103516
1775.631776,80.9000015258789
1775.647401,73.3300018310547
1775.663026,64.7200012207031
1775.678651,55.7799987792969
1775.694276,47.9599990844727
1775.709901,42.2200012207031
1775.725526,38.1399993896484
1775.741151,34.6199989318848
1775.756776,31.25
1775.772401,28.4899997711182
1775.788026,27.0200004577637
1775.803651,27.0
1775.819276,28.0100002288818
1775.834901,29.2099990844727
1775.850526,29.6100006103516
1775.866151,28.5400009155273
1775.881776,25.9400005340576
1775.897401,22.1800003051758
1775.913026,17.6200008392334
1775.928651,12.5200004577637
1775.944276,7.23999977111816
1775.959901,2.71000003814697
1775.975526,0.469999998807907
1775.991151,1.71000003814697
1776.006776,6.23999977111816
1776.022401,12.7600002288818
1776.038026,19.8299999237061
1776.053651,26.6000003814697
1776.069276,32.8499984741211
1776.084901,38.6399993896484
1776.100526,44.1100006103516
1776.116151,49.1199989318848
1776.131776,53.310001373291
1776.147401,56.2700004577637
1776.163026,57.8899993896484
1776.178651,58.2200012207031
1776.194276,57.310001373291
1776.209901,55.189998626709
1776.225526,52.1399993896484
1776.241151,48.9300003051758
1776.256776,46.6800003051758
1776.272401,46.1500015258789
1776.288026,47.0900001525879
1776.303651,48.6300010681152
1776.319276,50.1300010681152
1776.334901,51.5
1776.350526,53.0
1776.366151,54.7799987792969
1776.381776,56.7900009155273
1776.397401,58.75
1776.413026,60.2799987792969
1776.428651,61.0900001525879
1776.444276,61.1100006103516
1776.459901,60.5200004577637
1776.475526,59.5299987792969
1776.491151,58.3300018310547
1776.506776,58.3899993896484
1776.522401,58.689998626709
1776.538026,59.9700012207031
1776.553651,62.8699989318848
1776.569276,67.3399963378906
1776.584901,72.6800003051758
1776.600526,78.0
1776.616151,82.6800003051758
1776.631776,86.5500030517578
1776.647401,89.7099990844727
1776.663026,92.370002746582
1776.678651,94.5299987792969
1776.694276,95.879997253418
1776.709901,96.0699996948242
1776.725526,94.9100036621094
1776.741151,92.4499969482422
1776.756776,88.6999969482422
1776.772401,83.7099990844727
1776.788026,77.7300033569336
1776.803651,71.4599990844727
1776.819276,65.9000015258789
1776.834901,61.7299995422363
1776.850526,58.7400016784668
1776.866151,56.2099990844727
1776.881776,53.6599998474121
1776.897401,51.1100006103516
1776.913026,48.8400001525879
1776.928651,47.0099983215332
1776.944276,45.5099983215332
1776.959901,44.0
1776.975526,41.9700012207031
1776.991151,39.060001373291
1777.006776,35.2200012207031
1777.022401,30.6800003051758
1777.038026,25.7800006866455
1777.053651,20.7999992370605
1777.069276,15.960000038147
1777.084901,11.710000038147
1777.100526,8.77999973297119
1777.116151,7.73999977111816
1777.131776,8.5
1777.147401,10.289999961853
1777.163026,12.1999998092651
1777.178651,13.6099996566772
1777.194276,14.3400001525879
1777.209901,14.5
1777.225526,14.3000001907349
1777.241151,13.7299995422363
1777.256776,12.5100002288818
1777.272401,10.2799997329712
1777.288026,6.90000009536743
1777.303651,2.45000004768372
1777.319276,-3.0
1777.334901,-9.39000034332275
1777.350526,-16.4699993133545
1777.366151,-23.5900001525879
1777.381776,-29.8600006103516
1777.397401,-34.7000007629395
1777.413026,-38.2700004577637
1777.428651,-41.2299995422363
1777.444276,-44.0499992370605
1777.459901,-46.9599990844727
1777.475526,-50.1699981689453
1777.491151,-53.9799995422363
1777.506776,-59.2200012207031
1777.522401,-64.8600006103516
1777.538026,-70.129997253418
1777.553651,-74.3300018310547
1777.569276,-77.2699966430664
1777.584901,-79.1100006103516
1777.600526,-80.0299987792969
1777.616151,-80.0199966430664
1777.631776,-79.1500015258789
1777.647401,-77.6600036621094
1777.663026,-75.9000015258789
1777.678651,-74.0899963378906
1777.694276,-72.1699981689453
1777.709901,-69.9300003051758
1777.725526,-67.2900009155273
1777.741151,-64.4400024414063
1777.756776,-61.7799987792969
1777.772401,-59.7000007629395
1777.788026,-58.3899993896484
1777.803651,-57.7999992370605
1777.819276,-57.7999992370605
1777.834901,-58.3300018310547
1777.850526,-59.4599990844727
1777.866151,-61.2000007629395
1777.881776,-63.3600006103516
1777.897401,-65.5899963378906
1777.913026,-67.5699996948242
1777.928651,-69.2099990844727
1777.944276,-70.5800018310547
1777.959901,-72.0
1777.975526,-73.8600006103516
1777.991151,-76.4599990844727
1778.006776,-79.8600006103516
1778.022401,-83.9100036621094
1778.038026,-88.5299987792969
1778.053651,-93.6600036621094
1778.069276,-99.1100006103516
1778.084901,-104.419998168945
1778.100526,-108.860000610352
1778.116151,-111.830001831055
1778.131776,-113.279998779297
1778.147401,-113.599998474121
1778.163026,-113.199996948242
1778.178651,-112.309997558594
1778.194276,-111.069999694824
1778.209901,-109.599998474121
1778.225526,-107.98999786377
1778.241151,-106.069999694824
1778.256776,-103.400001525879
1778.272401,-99.4800033569336
1778.288026,-94.25
1778.303651,-88.2099990844727
1778.319276,-82.1500015258789
1778.334901,-76.7600021362305
1778.350526,-72.4000015258789
1778.366151,-69.1900024414063
1778.381776,-67.2600021362305
1778.397401,-66.7200012207031
1778.413026,-67.4700012207031
1778.428651,-69.1100006103516
1778.444276,-71.0400009155273
1778.459901,-72.7099990844727
1778.475526,-73.8499984741211
1778.491151,-74.4800033569336
1778.506776,-75.1500015258789
1778.522401,-75.8600006103516
1778.538026,-76.9000015258789
1778.553651,-78.4899978637695
1778.569276,-80.5999984741211
1778.584901,-83.1399993896484
1778.600526,-86.0699996948242
1778.616151,-89.379997253418
1778.631776,-93.0
1778.647401,-96.620002746582
1778.663026,-99.7900009155273
1778.678651,-102.160003662109
1778.694276,-103.709999084473
1778.709901,-104.629997253418
1778.725526,-105.059997558594
1778.741151,-105.019996643066
1778.756776,-104.51000213623
1778.772401,-103.610000610352
1778.788026,-102.419998168945
1778.803651,-100.839996337891
1778.819276,-98.4899978637695
1778.834901,-94.9100036621094
1778.850526,-90.0699996948242
1778.866151,-84.3499984741211
1778.881776,-78.4300003051758
1778.897401,-72.879997253418
1778.913026,-68.0500030517578
1778.928651,-64.1100006103516
1778.944276,-61.2400016784668
1778.959901,-59.560001373291
1778.975526,-58.9700012207031
1778.991151,-59.0400009155273
1779.006776,-59.2700004577637
1779.022401,-59.2799987792969
1779.038026,-58.9099998474121
1779.053651,-58.2099990844727
1779.069276,-57.3899993896484
1779.084901,-56.7700004577637
1779.100526,-56.7299995422363
1779.116151,-57.560001373291
1779.131776,-59.2599983215332
1779.147401,-61.6599998474121
1779.163026,-64.5699996948242
1779.178651,-67.8899993896484
1779.194276,-71.4400024414063
1779.209901,-74.879997253418
1779.225526,-77.6800003051758
1779.241151,-79.3399963378906
1779.256776,-79.6100006103516
1779.272401,-78.4899978637695
1779.288026,-76.1500015258789
1779.303651,-72.8399963378906
1779.319276,-68.9100036621094
1779.334901,-64.7300033569336
1779.350526,-60.5699996948242
1779.366151,-56.3699989318848
1779.381776,-51.7200012207031
1779.397401,-46.1399993896484
1779.413026,-39.5299987792969
1779.428651,-32.2000007629395
1779.444276,-24.7199993133545
1779.459901,-17.5699996948242
1779.475526,-11.1000003814697
1779.491151,-5.61999988555908
1779.506776,-1.5900000333786
1779.522401,0.610000014305115
1779.538026,1.03999996185303
1779.553651,0.209999993443489
1779.569276,-1.14999997615814
1779.584901,-2.45000004768372
1779.600526,-3.38000011444092
1779.616151,-3.91000008583069
1779.631776,-4.21000003814697
1779.647401,-4.46999979019165
1779.663026,-4.86999988555908
1779.678651,-5.46999979019165
1779.694276,-6.26999998092651
1779.709901,-7.23999977111816
1779.725526,-8.44999980926514
1779.741151,-10.0
1779.756776,-11.8800001144409
1779.772401,-13.9200000762939
1779.788026,-15.8000001907349
1779.803651,-17.1200008392334
1779.819276,-17.3700008392334
1779.834901,-16.1700000762939
1779.850526,-13.4300003051758
1779.866151,-9.44999980926514
1779.881776,-4.76999998092651
1779.897401,0.0099999997764825
1779.913026,4.53999996185303
1779.928651,8.93000030517578
1779.944276,13.8000001907349
1779.959901,19.7999992370605
1779.975526,27.1299991607666
1779.991151,35.4599990844727
1780.006776,44.2200012207031
1780.022401,52.9199981689453
1780.038026,61.1300010681152
1780.053651,68.1800003051758
1780.069276,73.0999984741211
1780.084901,75.1100006103516
1780.100526,74.3099975585938
1780.116151,71.5999984741211
1780.131776,68.0899963378906
1780.147401,64.5599975585938
1780.163026,61.3199996948242
1780.178651,58.3800010681152
1780.194276,55.5900001525879
1780.209901,52.7799987792969
1780.225526,49.8199996948242
1780.241151,46.6500015258789
1780.256776,43.310001373291
1780.272401,39.8600006103516
1780.288026,36.3800010681152
1780.303651,32.8499984741211
1780.319276,29.3099994659424
1780.334901,25.7700004577637
1780.350526,22.2999992370605
1780.366151,19.2299995422363
1780.381776,17.2199993133545
1780.397401,16.9500007629395
1780.413026,18.7000007629395
1780.428651,22.4699993133545
1780.444276,28.2600002288818
1780.459901,36.0200004577637
1780.475526,45.2700004577637
1780.491151,54.9000015258789
1780.506776,64.2900009155273
1780.522401,71.5800018310547
1780.538026,76.620002746582
1780.553651,79.8499984741211
1780.569276,81.5
1780.584901,81.4199981689453
1780.600526,79.5299987792969
1780.616151,76.1500015258789
1780.631776,71.9300003051758
1780.647401,67.5100021362305
1780.663026,63.3199996948242
1780.678651,59.4599990844727
1780.694276,55.8300018310547
1780.709901,52.3699989318848
1780.725526,49.1500015258789
1780.741151,46.2900009155273
1780.756776,43.8400001525879
1780.772401,41.5299987792969
1780.788026,38.810001373291
1780.803651,35.1599998474121
1780.819276,30.3899993896484
1780.834901,24.6800003051758
1780.850526,18.3799991607666
1780.866151,11.8100004196167
1780.881776,5.26000022888184
1780.897401,-1.05999994277954
1780.913026,-6.98999977111816
1780.928651,-12.0699996948242
1780.944276,-15.5200004577637
1780.959901,-16.6399993896484
1780.975526,-15.3800001144409
1780.991151,-12.4300003051758
1781.006776,-8.82999992370605
1781.022401,-5.44000005722046
1781.038026,-2.67000007629395
1781.053651,-0.28999999165535
1781.069276,2.39000010490417
1781.084901,6.1100001335144
1781.100526,11.0900001525879
1781.116151,17.1200008392334
1781.131776,23.8600006103516
1781.147401,30.9899997711182
1781.163026,38.0900001525879
1781.178651,44.2599983215332
1781.194276,48.0299987792969
1781.209901,48.2099990844727
1781.225526,44.8600006103516
1781.241151,39.1100006103516
1781.256776,32.3800010681152
1781.272401,25.6599998474121
1781.288026,19.4599990844727
1781.303651,13.8800001144409
1781.319276,8.84000015258789
1781.334901,4.01999998092651
1781.350526,-0.939999997615814
1781.366151,-6.3899998664856
1781.381776,-12.4200000762939
1781.397401,-18.9099998474121
1781.413026,-25.6200008392334
1781.428651,-32.3199996948242
1781.444276,-38.7799987792969
1781.459901,-44.8800010681152
1781.475526,-50.4500007629395
1781.491151,-55.0699996948242
1781.506776,-58.2599983215332
1781.522401,-58.9799995422363
1781.538026,-57.0400009155273
1781.553651,-52.7099990844727
1781.569276,-46.1199989318848
1781.584901,-37.3499984741211
1781.600526,-26.8600006103516
1781.616151,-15.8400001525879
1781.631776,-6.01000022888184
1781.647401,1.27999997138977
1781.663026,5.75
1781.678651,7.82000017166138
1781.694276,7.80000019073486
1781.709901,5.73000001907349
1781.725526,1.77999997138977
1781.741151,-3.46000003814697
1781.756776,-9.19999980926514
1781.772401,-14.6899995803833
1781.788026,-19.4799995422363
1781.803651,-23.4599990844727
1781.819276,-26.7700004577637
1781.834901,-29.7199993133545
1781.850526,-32.5999984741211
1781.866151,-35.5699996948242
1781.881776,-38.6699981689453
1781.897401,-41.939998626709
1781.913026,-45.5499992370605
1781.928651,-49.75
1781.944276,-54.689998626709
1781.959901,-60.25
1781.975526,-66.0199966430664
1781.991151,-71.4899978637695
1782.006776,-76.3099975585938
1782.022401,-80.3600006103516
1782.038026,-83.6100006103516
1782.053651,-85.6600036621094
1782.069276,-85.5199966430664
1782.084901,-82.2200012207031
1782.100526,-75.5999984741211
1782.116151,-66.2699966430664
1782.131776,-55.0699996948242
1782.147401,-42.6699981689453
1782.163026,-29.7800006866455
1782.178651,-17.4500007629395
1782.194276,-7.17000007629395
1782.209901,-0.0900000035762787
1782.225526,3.64000010490417
1782.241151,4.73000001907349
1782.256776,3.96000003814697
1782.272401,1.8400000333786
1782.288026,-1.24000000953674
1782.303651,-4.8600001335144
1782.319276,-8.56999969482422
1782.334901,-12.0
1782.350526,-14.9099998474121
1782.366151,-17.2399997711182
1782.381776,-19.0900001525879
1782.397401,-20.6299991607666
1782.413026,-22.0900001525879
1782.428651,-23.6399993896484
1782.444276,-25.2999992370605
1782.459901,-27.1000003814697
1782.475526,-29.1100006103516
1782.491151,-31.5100002288818
1782.506776,-34.7200012207031
1782.522401,-38.5999984741211
1782.538026,-42.9000015258789
1782.553651,-47.1800003051758
1782.569276,-51.0200004577637
1782.584901,-54.2000007629395
1782.600526,-56.560001373291
1782.616151,-57.2900009155273
1782.631776,-54.6699981689453
1782.647401,-47.0800018310547
1782.663026,-34.2900009155273
1782.678651,-17.6000003814697
1782.694276,1.10000002384186
1782.709901,20.2399997711182
1782.725526,38.5999984741211
1782.741151,54.9000015258789
1782.756776,67.3899993896484
1782.772401,74.6999969482422
1782.788026,76.8600006103516
1782.803651,75.2300033569336
1782.819276,71.4599990844727
1782.834901,66.8099975585938
1782.850526,61.9599990844727
1782.866151,57.2000007629395
1782.881776,52.6500015258789
1782.897401,48.310001373291
1782.913026,44.1399993896484
1782.928651,40.1199989318848
1782.944276,36.2200012207031
1782.959901,32.3300018310547
1782.975526,28.2000007629395
1782.991151,23.5900001525879
1783.006776,18.4799995422363
1783.022401,13.0299997329712
1783.038026,7.5
1783.053651,2.16000008583069
1783.069276,-2.60999989509583
1783.084901,-6.44999980926514
1783.100526,-8.85000038146973
1783.116151,-9.0
1783.131776,-5.76999998092651
1783.147401,1.5900000333786
1783.163026,12.7299995422363
1783.178651,26.0400009155273
1783.194276,39.560001373291
1783.209901,52.0
1783.225526,63.2299995422363
1783.241151,73.4100036621094
1783.256776,81.9499969482422
1783.272401,87.7099990844727
1783.288026,90.0899963378906
1783.303651,89.5599975585938
1783.319276,87.3099975585938
1783.334901,84.4599990844727
1783.350526,81.4899978637695
1783.366151,78.3000030517578
1783.381776,74.6399993896484
1783.397401,70.4700012207031
1783.413026,66.0100021362305
1783.428651,61.5699996948242
1783.444276,57.3699989318848
1783.459901,53.3600006103516
1783.475526,49.189998626709
1783.491151,44.3600006103516
1783.506776,38.3800010681152
1783.522401,31.3600006103516
1783.538026,23.6399993896484
1783.553651,15.7600002288818
1783.569276,8.23999977111816
1783.584901,1.37999999523163
1783.600526,-4.65999984741211
1783.616151,-9.5600004196167
1783.631776,-12.5900001525879
1783.647401,-13.1000003814697
1783.663026,-10.960000038147
1783.678651,-6.42999982833862
1783.694276,0.389999985694885
1783.709901,9.5
1783.725526,20.4099998474121
1783.741151,31.9699993133545
1783.756776,42.5400009155273
1783.772401,50.8899993896484
1783.788026,56.7099990844727
1783.803651,60.2900009155273
1783.819276,61.689998626709
1783.834901,60.7400016784668
1783.850526,57.5699996948242
1783.866151,52.7999992370605
1783.881776,47.3400001525879
1783.897401,41.8800010681152
1783.913026,36.6199989318848
1783.928651,31.4099998474121
1783.944276,26.0
1783.959901,20.2600002288818
1783.975526,14.1199998855591
1783.991151,7.59999990463257
1784.006776,0.839999973773956
1784.022401,-5.8600001335144
1784.038026,-12.3000001907349
1784.053651,-18.5300006866455
1784.069276,-24.9599990844727
1784.084901,-32.0099983215332
1784.100526,-39.5800018310547
1784.116151,-47.1199989318848
1784.131776,-54.0099983215332
1784.147401,-59.8899993896484
1784.163026,-64.6500015258789
1784.178651,-67.9800033569336
1784.194276,-69.0400009155273
1784.209901,-67.0
1784.225526,-61.8199996948242
1784.241151,-54.2900009155273
1784.256776,-45.5900001525879
1784.272401,-36.689998626709
1784.288026,-28.2399997711182
1784.303651,-20.7700004577637
1784.319276,-14.8599996566772
1784.334901,-11.0500001907349
1784.350526,-9.47000026702881
1784.366151,-9.81999969482422
1784.381776,-11.5600004196167
1784.397401,-14.0799999237061
1784.413026,-16.8700008392334
1784.428651,-19.5400009155273
1784.444276,-21.9400005340576
1784.459901,-24.1299991607666
1784.475526,-26.4200000762939
1784.491151,-29.1100006103516
1784.506776,-32.4199981689453
1784.522401,-36.0400009155273
1784.538026,-39.6500015258789
1784.553651,-42.9500007629395
1784.569276,-45.8300018310547
1784.584901,-48.5400009155273
1784.600526,-51.6699981689453
1784.616151,-55.7700004577637
1784.631776,-61.0200004577637
1784.647401,-67.2099990844727
1784.663026,-74.0899963378906
1784.678651,-81.4599990844727
1784.694276,-88.9700012207031
1784.709901,-95.7900009155273
1784.725526,-100.589996337891
1784.741151,-102.080001831055
1784.756776,-99.7799987792969
1784.772401,-94.0699996948242
1784.788026,-85.879997253418
1784.803651,-76.3600006103516
1784.819276,-66.6900024414063
1784.834901,-57.7900009155273
1784.850526,-50.0999984741211
1784.866151,-43.6599998474121
1784.881776,-38.3499984741211
1784.897401,-34.2700004577637
1784.913026,-31.6499996185303
1784.928651,-30.5400009155273
1784.944276,-30.4699993133545
1784.959901,-30.5799999237061
1784.975526,-30.1299991607666
1784.991151,-28.8099994659424
1785.006776,-26.8299999237061
1785.022401,-24.8099994659424
1785.038026,-23.6299991607666
1785.053651,-24.0
1785.069276,-26.0699996948242
1785.084901,-29.7900009155273
1785.100526,-35.2999992370605
1785.116151,-42.8300018310547
1785.131776,-52.060001373291
1785.147401,-61.6199989318848
1785.163026,-69.4700012207031
1785.178651,-74.1900024414063
1785.194276,-75.9599990844727
1785.209901,-75.9199981689453
1785.225526,-74.8099975585938
1785.241151,-72.4300003051758
1785.256776,-68.2900009155273
1785.272401,-62.2700004577637
1785.288026,-54.7400016784668
1785.303651,-46.0999984741211
1785.319276,-36.3199996948242
1785.334901,-25.2399997711182
1785.350526,-13.1300001144409
1785.366151,-0.829999983310699
1785.381776,10.6300001144409
1785.397401,20.6499996185303
1785.413026,29.1200008392334
1785.428651,36.4500007629395
1785.444276,43.1199989318848
1785.459901,49.3300018310547
1785.475526,54.8199996948242
1785.491151,59.1500015258789
1785.506776,62.0499992370605
1785.522401,63.8600006103516
1785.538026,65.0800018310547
1785.553651,66.2099990844727
1785.569276,67.5100021362305
1785.584901,68.9499969482422
1785.600526,70.2799987792969
1785.616151,71.2300033569336
1785.631776,71.5999984741211
1785.647401,71.1800003051758
1785.663026,69.5299987792969
1785.678651,66.25
1785.694276,61.5099983215332
1785.709901,56.2900009155273
1785.725526,52.2599983215332
1785.741151,50.9799995422363
1785.756776,53.2400016784668
