Time(s),Value(%)
1429.0056241,-16.5799999237061
1429.0212491,-17.4400005340576
1429.0368741,-17.8299999237061
1429.0524991,-17.7700004577637
1429.0681241,-17.4500007629395
1429.0837491,-17.1100006103516
1429.0993741,-16.8400001525879
1429.1149991,-16.4799995422363
1429.1306241,-15.5799999237061
1429.1462491,-13.4799995422363
1429.1618741,-9.69999980926514
1429.1774991,-4.17000007629395
1429.1931241,2.61999988555908
1429.2087491,9.81999969482422
1429.2243741,16.3999996185303
1429.2399991,21.4699993133545
1429.2556241,24.5200004577637
1429.2712491,25.5499992370605
1429.2868741,25.0200004577637
1429.3024991,23.6000003814697
1429.3181241,21.8099994659424
1429.3337491,19.7600002288818
1429.3493741,17.2999992370605
1429.3649991,14.4099998474121
1429.3806241,11.2399997711182
1429.3962491,8.05000019073486
1429.4118741,5.07000017166138
1429.4274991,2.48000001907349
1429.4431241,0.330000013113022
1429.4587491,-1.38999998569489
1429.4743741,-2.78999996185303
1429.4899991,-3.92000007629395
1429.5056241,-4.90000009536743
1429.5212491,-5.90000009536743
1429.5368741,-7.03000020980835
1429.5524991,-8.3100004196167
1429.5681241,-9.65999984741211
1429.5837491,-11.1000003814697
1429.5993741,-12.6300001144409
1429.6149991,-14.1400003433228
1429.6306241,-15.3699998855591
1429.6462491,-16.1700000762939
1429.6618741,-16.5499992370605
1429.6774991,-16.6399993896484
1429.6931241,-16.6200008392334
1429.7087491,-16.6100006103516
1429.7243741,-16.6499996185303
1429.7399991,-16.5599994659424
1429.7556241,-15.9499998092651
1429.7712491,-14.2399997711182
1429.7868741,-10.8400001525879
1429.8024991,-5.59000015258789
1429.8181241,1.05999994277954
1429.8337491,8.13000011444092
1429.8493741,14.5600004196167
1429.8649991,19.5900001525879
1429.8806241,22.7800006866455
1429.8962491,23.9799995422363
1429.9118741,23.4699993133545
1429.9274991,21.8799991607666
1429.9431241,19.8199996948242
1429.9587491,17.5799999237061
1429.9743741,15.1199998855591
1429.9899991,12.3500003814697
1430.0056241,9.34000015258789
1430.0212491,6.34999990463257
1430.0368741,3.60999989509583
1430.0524991,1.24000000953674
1430.0681241,-0.620000004768372
1430.0837491,-1.92999994754791
1430.0993741,-2.74000000953674
1430.1149991,-3.25999999046326
1430.1306241,-3.75999999046326
1430.1462491,-4.44000005722046
1430.1618741,-5.40999984741211
1430.1774991,-6.67999982833862
1430.1931241,-8.10000038146973
1430.2087491,-9.4399995803833
1430.2243741,-10.6000003814697
1430.2399991,-11.6099996566772
1430.2556241,-12.5100002288818
1430.2712491,-13.3299999237061
1430.2868741,-14.0200004577637
1430.3024991,-14.5200004577637
1430.3181241,-14.6999998092651
1430.3337491,-14.5100002288818
1430.3493741,-13.9799995422363
1430.3649991,-12.960000038147
1430.3806241,-10.9200000762939
1430.3962491,-7.23999977111816
1430.4118741,-1.66999995708466
1430.4274991,5.26000022888184
1430.4431241,12.4799995422363
1430.4587491,18.8700008392334
1430.4743741,23.6599998474121
1430.4899991,26.4599990844727
1430.5056241,27.2800006866455
1430.5212491,26.4899997711182
1430.5368741,24.6599998474121
1430.5524991,22.3400001525879
1430.5681241,19.8199996948242
1430.5837491,17.0499992370605
1430.5993741,13.8199996948242
1430.6149991,10.1199998855591
1430.6306241,6.25
1430.6462491,2.57999992370605
1430.6618741,-0.589999973773956
1430.6774991,-3.07999992370605
1430.6931241,-4.80999994277954
1430.7087491,-6.0
1430.7243741,-6.98000001907349
1430.7399991,-8.02000045776367
1430.7556241,-9.26000022888184
1430.7712491,-10.6599998474121
1430.7868741,-12.0500001907349
1430.8024991,-13.3100004196167
1430.8181241,-14.4300003051758
1430.8337491,-15.4300003051758
1430.8493741,-16.2000007629395
1430.8649991,-16.6100006103516
1430.8806241,-16.7199993133545
1430.8962491,-16.8500003814697
1430.9118741,-17.2900009155273
1430.9274991,-17.9500007629395
1430.9431241,-18.4699993133545
1430.9587491,-18.4099998474121
1430.9743741,-17.4400005340576
1430.9899991,-15.3599996566772
1431.0056241,-11.9499998092651
1431.0212491,-6.98000001907349
1431.0368741,-0.449999988079071
1431.0524991,7.13000011444092
1431.0681241,14.8000001907349
1431.0837491,21.4200000762939
1431.0993741,26.1800003051758
1431.1149991,28.8600006103516
1431.1306241,29.7900009155273
1431.1462491,29.5200004577637
1431.1618741,28.3999996185303
1431.1774991,26.5
1431.1931241,23.8099994659424
1431.2087491,20.3600006103516
1431.2243741,16.3299999237061
1431.2399991,12.0500001907349
1431.2556241,7.96999979019165
1431.2712491,4.5
1431.2868741,1.8400000333786
1431.3024991,-0.109999999403954
1431.3181241,-1.64999997615814
1431.3337491,-3.0
1431.3493741,-4.21999979019165
1431.3649991,-5.32999992370605
1431.3806241,-6.46999979019165
1431.3962491,-7.78999996185303
1431.4118741,-9.34000015258789
1431.4274991,-11.0100002288818
1431.4431241,-12.5900001525879
1431.4587491,-13.9399995803833
1431.4743741,-15.0799999237061
1431.4899991,-16.1900005340576
1431.5056241,-17.3999996185303
1431.5212491,-18.5900001525879
1431.5368741,-19.5499992370605
1431.5524991,-20.1299991607666
1431.5681241,-20.2399997711182
1431.5837491,-19.8400001525879
1431.5993741,-18.7800006866455
1431.6149991,-16.7299995422363
1431.6306241,-13.0799999237061
1431.6462491,-7.36999988555908
1431.6618741,0.140000000596046
1431.6774991,8.47000026702881
1431.6931241,16.2299995422363
1431.7087491,22.2399997711182
1431.7243741,26.0200004577637
1431.7399991,27.7999992370605
1431.7556241,28.1499996185303
1431.7712491,27.5100002288818
1431.7868741,26.0699996948242
1431.8024991,23.8500003814697
1431.8181241,20.9200000762939
1431.8337491,17.3999996185303
1431.8493741,13.5500001907349
1431.8649991,9.64000034332275
1431.8806241,5.90999984741211
1431.8962491,2.58999991416931
1431.9118741,-0.129999995231628
1431.9274991,-2.16000008583069
1431.9431241,-3.4300000667572
1431.9587491,-4.03000020980835
1431.9743741,-4.26000022888184
1431.9899991,-4.51000022888184
1432.0056241,-4.92000007629395
1432.0212491,-5.40000009536743
1432.0368741,-5.76999998092651
1432.0524991,-6.01000022888184
1432.0681241,-6.40999984741211
1432.0837491,-7.32000017166138
1432.0993741,-8.89999961853027
1432.1149991,-11.0299997329712
1432.1306241,-13.5200004577637
1432.1462491,-16.1200008392334
1432.1618741,-18.5699996948242
1432.1774991,-20.6299991607666
1432.1931241,-22.1700000762939
1432.2087491,-23.0200004577637
1432.2243741,-22.8500003814697
1432.2399991,-21.1800003051758
1432.2556241,-17.5300006866455
1432.2712491,-11.8199996948242
1432.2868741,-4.5
1432.3024991,3.40000009536743
1432.3181241,10.75
1432.3337491,16.6399993896484
1432.3493741,20.6700000762939
1432.3649991,22.8199996948242
1432.3806241,23.3999996185303
1432.3962491,22.9699993133545
1432.4118741,21.8999996185303
1432.4274991,20.1700000762939
1432.4431241,17.5200004577637
1432.4587491,13.9200000762939
1432.4743741,9.75
1432.4899991,5.59999990463257
1432.5056241,1.88999998569489
1432.5212491,-1.25
1432.5368741,-3.9300000667572
1432.5524991,-6.23999977111816
1432.5681241,-8.3100004196167
1432.5837491,-10.2600002288818
1432.5993741,-12.2600002288818
1432.6149991,-14.3999996185303
1432.6306241,-16.5900001525879
1432.6462491,-18.5400009155273
1432.6618741,-19.9599990844727
1432.6774991,-20.7199993133545
1432.6931241,-20.8600006103516
1432.7087491,-20.5400009155273
1432.7243741,-20.0100002288818
1432.7399991,-19.5400009155273
1432.7556241,-19.2700004577637
1432.7712491,-19.1000003814697
1432.7868741,-18.7700004577637
1432.8024991,-18.0900001525879
1432.8181241,-16.8899993896484
1432.8337491,-14.9700002670288
1432.8493741,-12.0200004577637
1432.8649991,-7.71000003814697
1432.8806241,-1.79999995231628
1432.8962491,5.53000020980835
1432.9118741,13.5299997329712
1432.9274991,21.0400009155273
1432.9431241,27.0799999237061
1432.9587491,31.1100006103516
1432.9743741,33.1300010681152
1432.9899991,33.4700012207031
1433.0056241,32.5699996948242
1433.0212491,30.7399997711182
1433.0368741,28.1700000762939
1433.0524991,25.0300006866455
1433.0681241,21.4400005340576
1433.0837491,17.6100006103516
1433.0993741,13.8199996948242
1433.1149991,10.3900003433228
1433.1306241,7.61999988555908
1433.1462491,5.57999992370605
1433.1618741,4.19999980926514
1433.1774991,3.27999997138977
1433.1931241,2.57999992370605
1433.2087491,1.85000002384186
1433.2243741,0.819999992847443
1433.2399991,-0.670000016689301
1433.2556241,-2.57999992370605
1433.2712491,-4.6399998664856
1433.2868741,-6.55999994277954
1433.3024991,-8.10999965667725
1433.3181241,-9.23999977111816
1433.3337491,-10.1099996566772
1433.3493741,-10.8800001144409
1433.3649991,-11.5900001525879
1433.3806241,-12.2399997711182
1433.3962491,-12.8100004196167
1433.4118741,-13.3000001907349
1433.4274991,-13.539999961853
1433.4431241,-13.039999961853
1433.4587491,-11.1199998855591
1433.4743741,-7.23000001907349
1433.4899991,-1.28999996185303
1433.5056241,6.17000007629395
1433.5212491,13.960000038147
1433.5368741,20.6700000762939
1433.5524991,25.2600002288818
1433.5681241,27.3899993896484
1433.5837491,27.3299999237061
1433.5993741,25.7800006866455
1433.6149991,23.4500007629395
1433.6306241,20.8299999237061
1433.6462491,18.0699996948242
1433.6618741,15.0900001525879
1433.6774991,11.8100004196167
1433.6931241,8.28999996185303
1433.7087491,4.75
1433.7243741,1.50999999046326
1433.7399991,-1.20000004768372
1433.7556241,-3.32999992370605
1433.7712491,-5.0
1433.7868741,-6.40000009536743
1433.8024991,-7.65999984741211
1433.8181241,-8.89000034332275
1433.8337491,-10.1700000762939
1433.8493741,-11.5100002288818
1433.8649991,-12.8800001144409
1433.8806241,-14.2600002288818
1433.8962491,-15.5900001525879
1433.9118741,-16.8299999237061
1433.9274991,-18.0
1433.9431241,-19.1200008392334
1433.9587491,-20.1399993896484
1433.9743741,-20.8999996185303
1433.9899991,-21.3899993896484
1434.0056241,-21.6499996185303
1434.0212491,-21.6399993896484
1434.0368741,-21.1100006103516
1434.0524991,-19.7199993133545
1434.0681241,-17.0499992370605
1434.0837491,-12.7799997329712
1434.0993741,-6.92000007629395
1434.1149991,0.0
1434.1306241,6.96000003814697
1434.1462491,12.8599996566772
1434.1618741,16.9799995422363
1434.1774991,19.3500003814697
1434.1931241,20.4500007629395
1434.2087491,20.7700004577637
1434.2243741,20.5400009155273
1434.2399991,19.7900009155273
1434.2556241,18.4599990844727
1434.2712491,16.5499992370605
1434.2868741,14.1099996566772
1434.3024991,11.210000038147
1434.3181241,8.02999973297119
1434.3337491,4.86999988555908
1434.3493741,1.99000000953674
1434.3649991,-0.409999996423721
1434.3806241,-2.21000003814697
1434.3962491,-3.34999990463257
1434.4118741,-4.07000017166138
1434.4274991,-4.80000019073486
1434.4431241,-5.76999998092651
1434.4587491,-7.01999998092651
1434.4743741,-8.36999988555908
1434.4899991,-9.64999961853027
1434.5056241,-10.8500003814697
1434.5212491,-12.0
1434.5368741,-13.0500001907349
1434.5524991,-13.9300003051758
1434.5681241,-14.6099996566772
1434.5837491,-15.0799999237061
1434.5993741,-15.3500003814697
1434.6149991,-15.3900003433228
1434.6306241,-15.0799999237061
1434.6462491,-14.3500003814697
1434.6618741,-13.4399995803833
1434.6774991,-12.6599998474121
1434.6931241,-12.1000003814697
1434.7087491,-11.4300003051758
1434.7243741,-9.97999954223633
1434.7399991,-7.01999998092651
1434.7556241,-2.14000010490417
1434.7712491,4.53999996185303
1434.7868741,12.210000038147
1434.8024991,19.5
1434.8181241,25.1499996185303
1434.8337491,28.5400009155273
1434.8493741,29.7199993133545
1434.8649991,29.2099990844727
1434.8806241,27.7000007629395
1434.8962491,25.7600002288818
1434.9118741,23.6100006103516
1434.9274991,21.1200008392334
1434.9431241,18.1100006103516
1434.9587491,14.5799999237061
1434.9743741,10.8400001525879
1434.9899991,7.32000017166138
1435.0056241,4.36999988555908
1435.0212491,2.08999991416931
1435.0368741,0.430000007152557
1435.0524991,-0.790000021457672
1435.0681241,-1.76999998092651
1435.0837491,-2.70000004768372
1435.0993741,-3.78999996185303
1435.1149991,-5.15999984741211
1435.1306241,-6.76999998092651
1435.1462491,-8.47999954223633
1435.1618741,-10.1800003051758
1435.1774991,-11.7200002670288
1435.1931241,-12.9200000762939
1435.2087491,-13.710000038147
1435.2243741,-14.1800003051758
1435.2399991,-14.5100002288818
1435.2556241,-14.8400001525879
1435.2712491,-15.3199996948242
1435.2868741,-15.9499998092651
1435.3024991,-16.5400009155273
1435.3181241,-16.75
1435.3337491,-16.3400001525879
1435.3493741,-15.1599998474121
1435.3649991,-12.960000038147
1435.3806241,-9.35000038146973
1435.3962491,-4.07000017166138
1435.4118741,2.63000011444092
1435.4274991,9.98999977111816
1435.4431241,16.7700004577637
1435.4587491,21.7999992370605
1435.4743741,24.4599990844727
1435.4899991,24.9500007629395
1435.5056241,23.9899997711182
1435.5212491,22.2900009155273
1435.5368741,20.2999992370605
1435.5524991,18.1200008392334
1435.5681241,15.6499996185303
1435.5837491,12.7399997711182
1435.5993741,9.42000007629395
1435.6149991,5.98999977111816
1435.6306241,2.84999990463257
1435.6462491,0.239999994635582
1435.6618741,-1.83000004291534
1435.6774991,-3.48000001907349
1435.6931241,-4.84999990463257
1435.7087491,-6.03999996185303
1435.7243741,-7.01000022888184
1435.7399991,-7.71000003814697
1435.7556241,-8.26000022888184
1435.7712491,-8.93000030517578
1435.7868741,-9.9399995803833
1435.8024991,-11.210000038147
1435.8181241,-12.4399995803833
1435.8337491,-13.3500003814697
1435.8493741,-13.8400001525879
1435.8649991,-14.0200004577637
1435.8806241,-14.0500001907349
1435.8962491,-14.039999961853
1435.9118741,-14.1499996185303
1435.9274991,-14.4899997711182
1435.9431241,-14.960000038147
1435.9587491,-15.25
1435.9743741,-15.0299997329712
1435.9899991,-14.0500001907349
1436.0056241,-11.9700002670288
1436.0212491,-8.38000011444092
1436.0368741,-3.08999991416931
1436.0524991,3.44000005722046
1436.0681241,10.210000038147
1436.0837491,16.0599994659424
1436.0993741,20.2000007629395
1436.1149991,22.3899993896484
1436.1306241,22.9099998474121
1436.1462491,22.25
1436.1618741,20.9500007629395
1436.1774991,19.4300003051758
1436.1931241,17.7700004577637
1436.2087491,15.7799997329712
1436.2243741,13.25
1436.2399991,10.210000038147
1436.2556241,6.90999984741211
1436.2712491,3.80999994277954
1436.2868741,1.33000004291534
1436.3024991,-0.270000010728836
1436.3181241,-1.13999998569489
1436.3337491,-1.6599999666214
1436.3493741,-2.17000007629395
1436.3649991,-2.79999995231628
1436.3806241,-3.50999999046326
1436.3962491,-4.26999998092651
1436.4118741,-5.15000009536743
1436.4274991,-6.17000007629395
1436.4431241,-7.26999998092651
1436.4587491,-8.40999984741211
1436.4743741,-9.5600004196167
1436.4899991,-10.6499996185303
1436.5056241,-11.6000003814697
1436.5212491,-12.3699998855591
1436.5368741,-12.9700002670288
1436.5524991,-13.4200000762939
1436.5681241,-13.710000038147
1436.5837491,-13.8100004196167
1436.5993741,-13.5799999237061
1436.6149991,-12.6300001144409
1436.6306241,-10.4499998092651
1436.6462491,-6.61999988555908
1436.6618741,-1.04999995231628
1436.6774991,5.78000020980835
1436.6931241,12.8599996566772
1436.7087491,18.9400005340576
1436.7243741,23.1000003814697
1436.7399991,25.0100002288818
1436.7556241,25.0300006866455
1436.7712491,23.8600006103516
1436.7868741,22.1700000762939
1436.8024991,20.2700004577637
1436.8181241,18.1200008392334
1436.8337491,15.5500001907349
1436.8493741,12.4499998092651
1436.8649991,8.93000030517578
1436.8806241,5.30000019073486
1436.8962491,1.99000000953674
1436.9118741,-0.629999995231628
1436.9274991,-2.47000002861023
1436.9431241,-3.66000008583069
1436.9587491,-4.46000003814697
1436.9743741,-5.1399998664856
1436.9899991,-5.84000015258789
1437.0056241,-6.57999992370605
1437.0212491,-7.42999982833862
1437.0368741,-8.4399995803833
1437.0524991,-9.52999973297119
1437.0681241,-10.539999961853
1437.0837491,-11.4399995803833
1437.0993741,-12.3400001525879
1437.1149991,-13.3599996566772
1437.1306241,-14.460000038147
1437.1462491,-15.4099998474121
1437.1618741,-16.0499992370605
1437.1774991,-16.3500003814697
1437.1931241,-16.3799991607666
1437.2087491,-16.1000003814697
1437.2243741,-15.3500003814697
1437.2399991,-13.7799997329712
1437.2556241,-10.8900003433228
1437.2712491,-6.19999980926514
1437.2868741,0.25
1437.3024991,7.63000011444092
1437.3181241,14.5799999237061
1437.3337491,19.8600006103516
1437.3493741,22.8500003814697
1437.3649991,23.7000007629395
1437.3806241,23.0300006866455
1437.3962491,21.6000003814697
1437.4118741,19.9200000762939
1437.4274991,18.1599998474121
1437.4431241,16.2299995422363
1437.4587491,14.0100002288818
1437.4743741,11.3800001144409
1437.4899991,8.31999969482422
1437.5056241,5.03000020980835
1437.5212491,1.83000004291534
1437.5368741,-0.949999988079071
1437.5524991,-3.14000010490417
1437.5681241,-4.71000003814697
1437.5837491,-5.8600001335144
1437.5993741,-6.88000011444092
1437.6149991,-7.92999982833862
1437.6306241,-9.02000045776367
1437.6462491,-10.1300001144409
1437.6618741,-11.3100004196167
1437.6774991,-12.5600004196167
1437.6931241,-13.8100004196167
1437.7087491,-14.9700002670288
1437.7243741,-15.9799995422363
1437.7399991,-16.8700008392334
1437.7556241,-17.6399993896484
1437.7712491,-18.2900009155273
1437.7868741,-18.7900009155273
1437.8024991,-19.1499996185303
1437.8181241,-19.3199996948242
1437.8337491,-19.2399997711182
1437.8493741,-18.8099994659424
1437.8649991,-17.75
1437.8806241,-15.6099996566772
1437.8962491,-12.0299997329712
1437.9118741,-7.11999988555908
1437.9274991,-1.41999995708466
1437.9431241,4.71000003814697
1437.9587491,11.0900001525879
1437.9743741,17.2800006866455
1437.9899991,22.4799995422363
1438.0056241,26.0400009155273
1438.0212491,27.7700004577637
1438.0368741,27.8700008392334
1438.0524991,26.7999992370605
1438.0681241,25.0100002288818
1438.0837491,22.8199996948242
1438.0993741,20.3500003814697
1438.1149991,17.5699996948242
1438.1306241,14.4300003051758
1438.1462491,10.9399995803833
1438.1618741,7.36999988555908
1438.1774991,4.09999990463257
1438.1931241,1.37999999523163
1438.2087491,-0.730000019073486
1438.2243741,-2.39000010490417
1438.2399991,-3.71000003814697
1438.2556241,-4.84999990463257
1438.2712491,-5.96999979019165
1438.2868741,-7.21000003814697
1438.3024991,-8.64000034332275
1438.3181241,-10.2700004577637
1438.3337491,-12.0200004577637
1438.3493741,-13.6800003051758
1438.3649991,-15.0299997329712
1438.3806241,-15.9799995422363
1438.3962491,-16.5900001525879
1438.4118741,-17.0699996948242
1438.4274991,-17.5499992370605
1438.4431241,-18.0900001525879
1438.4587491,-18.6499996185303
1438.4743741,-19.1399993896484
1438.4899991,-19.3700008392334
1438.5056241,-19.0400009155273
1438.5212491,-17.7600002288818
1438.5368741,-15.0900001525879
1438.5524991,-10.6000003814697
1438.5681241,-4.28000020980835
1438.5837491,3.23000001907349
1438.5993741,10.8500003814697
1438.6149991,17.5
1438.6306241,22.4400005340576
1438.6462491,25.4200000762939
1438.6618741,26.6200008392334
1438.6774991,26.5100002288818
1438.6931241,25.5400009155273
1438.7087491,24.0100002288818
1438.7243741,22.0400009155273
1438.7399991,19.6100006103516
1438.7556241,16.7199993133545
1438.7712491,13.5
1438.7868741,10.1400003433228
1438.8024991,6.90000009536743
1438.8181241,3.98000001907349
1438.8337491,1.51999998092651
1438.8493741,-0.430000007152557
1438.8649991,-1.94000005722046
1438.8806241,-3.08999991416931
1438.8962491,-3.96000003814697
1438.9118741,-4.73000001907349
1438.9274991,-5.6100001335144
1438.9431241,-6.73000001907349
1438.9587491,-8.07999992370605
1438.9743741,-9.56999969482422
1438.9899991,-11.0
1439.0056241,-12.1999998092651
1439.0212491,-13.0900001525879
1439.0368741,-13.6800003051758
1439.0524991,-14.0100002288818
1439.0681241,-14.1800003051758
1439.0837491,-14.3199996948242
1439.0993741,-14.5
1439.1149991,-14.7399997711182
1439.1306241,-14.8599996566772
1439.1462491,-14.5
1439.1618741,-13.2700004577637
1439.1774991,-10.7799997329712
1439.1931241,-6.65000009536743
1439.2087491,-0.839999973773956
1439.2243741,6.01000022888184
1439.2399991,12.8299999237061
1439.2556241,18.4899997711182
1439.2712491,22.2800006866455
1439.2868741,24.0100002288818
1439.3024991,24.0900001525879
1439.3181241,23.1900005340576
1439.3337491,21.8899993896484
1439.3493741,20.4599990844727
