Time(s),Value(%)
693.0073503,-4.73999977111816
693.0229753,-0.209999993443489
693.0386003,6.17000007629395
693.0542253,14.3699998855591
693.0698503,23.4099998474121
693.0854753,31.8500003814697
693.1011003,38.2400016784668
693.1167253,41.6100006103516
693.1323503,41.689998626709
693.1479753,39.0200004577637
693.1636003,34.7400016784668
693.1792253,30.0499992370605
693.1948503,25.8799991607666
693.2104753,22.5900001525879
693.2261003,19.9300003051758
693.2417253,17.1599998474121
693.2573503,13.6599998474121
693.2729753,9.14999961853027
693.2886003,3.63000011444092
693.3042253,-2.49000000953674
693.3198503,-8.48999977111816
693.3354753,-13.6000003814697
693.3511003,-17.2099990844727
693.3667253,-18.6800003051758
693.3823503,-17.5200004577637
693.3979753,-14.2399997711182
693.4136003,-10.6000003814697
693.4292253,-8.69999980926514
693.4448503,-9.59000015258789
693.4604753,-12.5900001525879
693.4761003,-15.9200000762939
693.4917253,-17.8400001525879
693.5073503,-17.6200008392334
693.5229753,-15.8100004196167
693.5386003,-13.9300003051758
693.5542253,-13.4200000762939
693.5698503,-14.6099996566772
693.5854753,-16.6900005340576
693.6011003,-18.7399997711182
693.6167253,-20.2800006866455
693.6323503,-21.1900005340576
693.6479753,-21.3600006103516
693.6636003,-20.4599990844727
693.6792253,-18.1900005340576
693.6948503,-14.6700000762939
693.7104753,-10.5799999237061
693.7261003,-6.82000017166138
693.7417253,-4.01000022888184
693.7573503,-2.20000004768372
693.7729753,-0.560000002384186
693.7886003,2.50999999046326
693.8042253,8.57999992370605
693.8198503,18.0699996948242
693.8354753,29.7000007629395
693.8511003,40.8499984741211
693.8667253,48.7099990844727
693.8823503,51.5800018310547
693.8979753,49.6800003051758
693.9136003,44.810001373291
693.9292253,39.1599998474121
693.9448503,34.1599998474121
693.9604753,30.0499992370605
693.9761003,26.3899993896484
693.9917253,22.6700000762939
694.0073503,18.7700004577637
694.0229753,14.9700002670288
694.0386003,11.5500001907349
694.0542253,8.55000019073486
694.0698503,5.80999994277954
694.0854753,3.20000004768372
694.1011003,0.740000009536743
694.1167253,-1.38999998569489
694.1323503,-3.0
694.1479753,-4.05999994277954
694.1636003,-4.86999988555908
694.1792253,-5.92000007629395
694.1948503,-7.76000022888184
694.2104753,-10.6499996185303
694.2261003,-14.3199996948242
694.2417253,-18.0
694.2573503,-20.8500003814697
694.2729753,-22.5
694.2886003,-23.1700000762939
694.3042253,-23.1499996185303
694.3198503,-22.5100002288818
694.3354753,-21.3999996185303
694.3511003,-20.3600006103516
694.3667253,-20.1000003814697
694.3823503,-20.7800006866455
694.3979753,-21.75
694.4136003,-21.8999996185303
694.4292253,-20.3899993896484
694.4448503,-17.2600002288818
694.4604753,-13.539999961853
694.4761003,-10.6999998092651
694.4917253,-9.80000019073486
694.5073503,-10.7299995422363
694.5229753,-12.0600004196167
694.5386003,-11.4700002670288
694.5542253,-6.76999998092651
694.5698503,2.82999992370605
694.5854753,16.25
694.6011003,30.8500003814697
694.6167253,43.3800010681152
694.6323503,50.9300003051758
694.6479753,52.0400009155273
694.6636003,47.4099998474121
694.6792253,39.5499992370605
694.6948503,31.4699993133545
694.7104753,25.6000003814697
694.7261003,23.1100006103516
694.7417253,23.7900009155273
694.7573503,26.25
694.7729753,28.4899997711182
694.7886003,28.5200004577637
694.8042253,25.2299995422363
694.8198503,18.8600006103516
694.8354753,10.7299995422363
694.8511003,2.58999991416931
694.8667253,-3.94000005722046
694.8823503,-7.98999977111816
694.8979753,-9.78999996185303
694.9136003,-10.3599996566772
694.9292253,-10.7700004577637
694.9448503,-11.789999961853
694.9604753,-14.1000003814697
694.9761003,-18.0
694.9917253,-23.0200004577637
695.0073503,-27.8600006103516
695.0229753,-31.1200008392334
695.0386003,-32.1399993896484
695.0542253,-31.2700004577637
695.0698503,-29.5499992370605
695.0854753,-27.8199996948242
695.1011003,-26.2700004577637
695.1167253,-24.6399993896484
695.1323503,-22.7700004577637
695.1479753,-20.7000007629395
695.1636003,-18.6399993896484
695.1792253,-16.9300003051758
695.1948503,-15.9499998092651
695.2104753,-15.8199996948242
695.2261003,-16.0900001525879
695.2417253,-15.9899997711182
695.2573503,-15.1700000762939
695.2729753,-13.8900003433228
695.2886003,-12.3999996185303
695.3042253,-10.3599996566772
695.3198503,-6.8899998664856
695.3354753,-1.02999997138977
695.3511003,7.69999980926514
695.3667253,18.4799995422363
695.3823503,29.0499992370605
695.3979753,36.7200012207031
695.4136003,39.8499984741211
695.4292253,38.6599998474121
695.4448503,34.9000015258789
695.4604753,30.6700000762939
695.4761003,27.4099998474121
695.4917253,25.4300003051758
695.5073503,24.2399997711182
695.5229753,23.0400009155273
695.5386003,21.0
695.5542253,17.2900009155273
695.5698503,11.4499998092651
695.5854753,3.91000008583069
695.6011003,-3.78999996185303
695.6167253,-9.67000007629395
695.6323503,-12.3999996185303
695.6479753,-12.0200004577637
695.6636003,-9.64999961853027
695.6792253,-6.71999979019165
695.6948503,-4.3600001335144
695.7104753,-3.17000007629395
695.7261003,-3.25
695.7417253,-4.36999988555908
695.7573503,-6.32999992370605
695.7729753,-8.96000003814697
695.7886003,-11.9499998092651
695.8042253,-14.8100004196167
695.8198503,-17.0499992370605
695.8354753,-18.5699996948242
695.8511003,-19.9599990844727
695.8667253,-22.2000007629395
695.8823503,-25.9200000762939
695.8979753,-31.0699996948242
695.9136003,-36.9799995422363
695.9292253,-42.6199989318848
695.9448503,-46.8800010681152
695.9604753,-48.7700004577637
695.9761003,-47.6800003051758
695.9917253,-43.3300018310547
696.0073503,-35.5099983215332
696.0229753,-24.2700004577637
696.0386003,-10.3000001907349
696.0542253,4.88000011444092
696.0698503,19.4699993133545
696.0854753,31.7900009155273
696.1011003,40.7599983215332
696.1167253,45.9300003051758
696.1323503,47.4700012207031
696.1479753,46.2599983215332
696.1636003,43.6699981689453
696.1792253,41.0499992370605
696.1948503,39.0900001525879
696.2104753,37.7200012207031
696.2261003,36.4099998474121
696.2417253,34.7299995422363
696.2573503,32.4700012207031
696.2729753,29.4899997711182
696.2886003,25.5100002288818
696.3042253,20.3600006103516
696.3198503,14.1000003814697
696.3354753,7.13000011444092
696.3511003,0.189999997615814
696.3667253,-5.76000022888184
696.3823503,-9.97000026702881
696.3979753,-12.039999961853
696.4136003,-12.0600004196167
696.4292253,-10.5699996948242
696.4448503,-8.40999984741211
696.4604753,-6.44000005722046
696.4761003,-5.28000020980835
696.4917253,-5.11999988555908
696.5073503,-5.92999982833862
696.5229753,-7.82999992370605
696.5386003,-11.0299997329712
696.5542253,-15.3800001144409
696.5698503,-20.0
696.5854753,-23.4099998474121
696.6011003,-24.2399997711182
696.6167253,-22.1900005340576
696.6323503,-18.3999996185303
696.6479753,-14.7600002288818
696.6636003,-12.8299999237061
696.6792253,-12.9300003051758
696.6948503,-13.9700002670288
696.7104753,-13.8800001144409
696.7261003,-10.5500001907349
696.7417253,-2.6800000667572
696.7573503,9.56999969482422
696.7729753,24.4200000762939
696.7886003,38.7900009155273
696.8042253,49.3600006103516
696.8198503,54.0099983215332
696.8354753,52.7400016784668
696.8511003,47.5499992370605
696.8667253,41.2700004577637
696.8823503,36.1100006103516
696.8979753,32.6699981689453
696.9136003,29.9799995422363
696.9292253,26.4400005340576
696.9448503,20.7700004577637
696.9604753,12.6999998092651
696.9761003,3.00999999046326
696.9917253,-6.96000003814697
697.0073503,-15.9200000762939
697.0229753,-22.6700000762939
697.0386003,-26.2999992370605
697.0542253,-26.4099998474121
697.0698503,-23.4500007629395
697.0854753,-18.7900009155273
697.1011003,-14.5
697.1167253,-12.5799999237061
697.1323503,-13.9200000762939
697.1479753,-17.8799991607666
697.1636003,-22.9099998474121
697.1792253,-27.5200004577637
697.1948503,-30.8600006103516
697.2104753,-32.9000015258789
697.2261003,-34.0900001525879
697.2417253,-34.8899993896484
697.2573503,-35.3300018310547
697.2729753,-34.9000015258789
697.2886003,-33.0699996948242
697.3042253,-29.9899997711182
697.3198503,-26.8400001525879
697.3354753,-25.3799991607666
697.3511003,-27.0200004577637
697.3667253,-31.7099990844727
697.3823503,-37.6800003051758
697.3979753,-42.3499984741211
697.4136003,-43.5800018310547
697.4292253,-40.4199981689453
697.4448503,-33.0299987792969
697.4604753,-22.0100002288818
697.4761003,-8.13000011444092
697.4917253,7.42000007629395
697.5073503,22.8400001525879
697.5229753,36.0200004577637
697.5386003,45.4599990844727
697.5542253,50.7900009155273
697.5698503,52.6100006103516
697.5854753,52.0999984741211
697.6011003,50.5
697.6167253,48.3600006103516
697.6323503,45.4300003051758
697.6479753,41.1300010681152
697.6636003,35.3199996948242
697.6792253,28.4799995422363
697.6948503,21.3799991607666
697.7104753,14.6000003814697
697.7261003,8.31999969482422
697.7417253,2.48000001907349
697.7573503,-2.86999988555908
697.7729753,-7.53999996185303
697.7886003,-11.1499996185303
697.8042253,-13.460000038147
697.8198503,-14.6400003433228
697.8354753,-15.289999961853
697.8511003,-16.1700000762939
697.8667253,-17.6499996185303
697.8823503,-19.4599990844727
697.8979753,-20.9699993133545
697.9136003,-21.8999996185303
697.9292253,-22.5400009155273
697.9448503,-23.2999992370605
697.9604753,-24.0200004577637
697.9761003,-24.1399993896484
697.9917253,-23.3799991607666
698.0073503,-22.1599998474121
698.0229753,-21.2000007629395
698.0386003,-20.9899997711182
698.0542253,-21.3299999237061
698.0698503,-21.4400005340576
698.0854753,-20.4599990844727
698.1011003,-18.1800003051758
698.1167253,-15.2399997711182
698.1323503,-12.8000001907349
698.1479753,-11.7700004577637
698.1636003,-12.0600004196167
698.1792253,-12.6400003433228
698.1948503,-12.2299995422363
698.2104753,-9.68000030517578
698.2261003,-4.09000015258789
698.2417253,4.65999984741211
698.2573503,15.5600004196167
698.2729753,26.6100006103516
698.2886003,35.7599983215332
698.3042253,41.7400016784668
698.3198503,44.3499984741211
698.3354753,44.1300010681152
698.3511003,42.0699996948242
698.3667253,39.4000015258789
698.3823503,37.2799987792969
698.3979753,36.3800010681152
698.4136003,36.6100006103516
698.4292253,37.1300010681152
698.4448503,36.75
698.4604753,34.5999984741211
698.4761003,30.4300003051758
698.4917253,24.5699996948242
698.5073503,17.7600002288818
698.5229753,11.0799999237061
698.5386003,5.53999996185303
698.5542253,1.76999998092651
698.5698503,-0.100000001490116
698.5854753,-0.330000013113022
698.6011003,0.649999976158142
698.6167253,2.27999997138977
698.6323503,3.75
698.6479753,4.15999984741211
698.6636003,2.86999988555908
698.6792253,-0.189999997615814
698.6948503,-4.46999979019165
698.7104753,-8.9399995803833
698.7261003,-12.5
698.7417253,-14.3800001144409
698.7573503,-14.3199996948242
698.7729753,-12.4300003051758
698.7886003,-9.09000015258789
698.8042253,-5.25
698.8198503,-2.41000008583069
698.8354753,-1.97000002861023
698.8511003,-4.44000005722046
698.8667253,-9.03999996185303
698.8823503,-13.9700002670288
698.8979753,-17.2900009155273
698.9136003,-17.5100002288818
698.9292253,-13.8299999237061
698.9448503,-6.38000011444092
698.9604753,3.63000011444092
698.9761003,14.1099996566772
698.9917253,22.7000007629395
699.0073503,27.6299991607666
699.0229753,28.4699993133545
699.0386003,26.3500003814697
699.0542253,23.1399993896484
699.0698503,20.4500007629395
699.0854753,19.3999996185303
699.1011003,20.6700000762939
699.1167253,23.7099990844727
699.1323503,26.2900009155273
699.1479753,25.5799999237061
699.1636003,20.1200008392334
699.1792253,11.1499996185303
699.1948503,2.02999997138977
699.2104753,-3.71000003814697
699.2261003,-4.5
699.2417253,-1.42999994754791
699.2573503,2.63000011444092
699.2729753,4.98000001907349
699.2886003,4.48000001907349
699.3042253,1.54999995231628
699.3198503,-2.69000005722046
699.3354753,-7.03999996185303
699.3511003,-10.7299995422363
699.3667253,-13.7299995422363
699.3823503,-16.4400005340576
699.3979753,-19.2099990844727
699.4136003,-22.2099990844727
699.4292253,-25.5699996948242
699.4448503,-29.1499996185303
699.4604753,-32.560001373291
699.4761003,-35.5099983215332
699.4917253,-38.1100006103516
699.5073503,-40.8699989318848
699.5229753,-44.4900016784668
699.5386003,-49.310001373291
699.5542253,-54.8899993896484
699.5698503,-60.0699996948242
699.5854753,-63.5499992370605
699.6011003,-64.3899993896484
699.6167253,-62.3800010681152
699.6323503,-58.0099983215332
699.6479753,-51.9599990844727
699.6636003,-44.4900016784668
699.6792253,-35.1599998474121
699.6948503,-23.4400005340576
699.7104753,-9.61999988555908
699.7261003,4.8899998664856
699.7417253,18.2299995422363
699.7573503,28.9300003051758
699.7729753,36.4900016784668
699.7886003,41.4199981689453
699.8042253,44.7000007629395
699.8198503,47.0400009155273
699.8354753,48.6599998474121
699.8511003,49.4599990844727
699.8667253,49.2400016784668
699.8823503,47.8899993896484
699.8979753,45.3699989318848
699.9136003,41.5800018310547
699.9292253,36.439998626709
699.9448503,30.1599998474121
699.9604753,23.4400005340576
699.9761003,17.4400005340576
699.9917253,13.3900003433228
700.0073503,12.0299997329712
700.0229753,12.8800001144409
700.0386003,14.2799997329712
700.0542253,14.3900003433228
700.0698503,12.5
700.0854753,9.22000026702881
700.1011003,5.84999990463257
700.1167253,3.50999999046326
700.1323503,2.65000009536743
700.1479753,3.14000010490417
700.1636003,4.38000011444092
700.1792253,5.59000015258789
700.1948503,6.07000017166138
700.2104753,5.63000011444092
700.2261003,4.63000011444092
700.2417253,3.73000001907349
700.2573503,3.25999999046326
700.2729753,3.0699999332428
700.2886003,2.90000009536743
700.3042253,2.66000008583069
700.3198503,2.05999994277954
700.3354753,0.600000023841858
700.3511003,-1.83000004291534
700.3667253,-4.46000003814697
700.3823503,-6.05000019073486
700.3979753,-5.82000017166138
700.4136003,-3.70000004768372
700.4292253,-0.100000001490116
700.4448503,4.57000017166138
700.4604753,10.1199998855591
700.4761003,16.4200000762939
700.4917253,22.9799995422363
700.5073503,28.6800003051758
700.5229753,32.1500015258789
700.5386003,32.6100006103516
700.5542253,30.3400001525879
700.5698503,26.6599998474121
700.5854753,23.2299995422363
700.6011003,21.1200008392334
700.6167253,20.2800006866455
700.6323503,19.75
700.6479753,18.4200000762939
700.6636003,15.5600004196167
700.6792253,10.9399995803833
700.6948503,4.59000015258789
700.7104753,-2.96000003814697
700.7261003,-10.710000038147
700.7417253,-17.4300003051758
700.7573503,-21.9899997711182
700.7729753,-23.7000007629395
700.7886003,-22.6599998474121
700.8042253,-19.8600006103516
700.8198503,-16.8600006103516
700.8354753,-15.1999998092651
700.8511003,-15.6599998474121
700.8667253,-17.8799991607666
700.8823503,-20.5599994659424
700.8979753,-22.2900009155273
700.9136003,-22.2800006866455
700.9292253,-20.6000003814697
700.9448503,-18.0900001525879
700.9604753,-16.0100002288818
700.9761003,-15.4200000762939
700.9917253,-16.4599990844727
701.0073503,-18.3199996948242
701.0229753,-19.8799991607666
701.0386003,-20.6100006103516
701.0542253,-20.6299991607666
701.0698503,-20.2800006866455
701.0854753,-19.7999992370605
701.1011003,-19.3400001525879
701.1167253,-18.9500007629395
701.1323503,-18.3600006103516
701.1479753,-16.6100006103516
701.1636003,-12.1800003051758
701.1792253,-4.11999988555908
701.1948503,6.86999988555908
701.2104753,18.5300006866455
701.2261003,28.1399993896484
701.2417253,33.939998626709
701.2573503,35.9000015258789
701.2729753,35.4300003051758
701.2886003,34.25
701.3042253,33.3600006103516
701.3198503,32.5800018310547
701.3354753,31.0499992370605
701.3511003,28.2000007629395
701.3667253,24.4300003051758
701.3823503,20.8199996948242
701.3979753,18.2000007629395
701.4136003,16.5100002288818
701.4292253,15.0500001907349
701.4448503,13.2299995422363
701.4604753,10.8400001525879
701.4761003,7.78000020980835
701.4917253,3.92000007629395
701.5073503,-0.649999976158142
701.5229753,-5.57999992370605
701.5386003,-10.5
701.5542253,-15.4700002670288
701.5698503,-20.7800006866455
701.5854753,-26.5100002288818
701.6011003,-32.060001373291
701.6167253,-36.4300003051758
701.6323503,-39.060001373291
701.6479753,-40.2999992370605
701.6636003,-40.9900016784668
701.6792253,-41.810001373291
701.6948503,-43.1100006103516
701.7104753,-44.9000015258789
701.7261003,-46.8800010681152
701.7417253,-48.560001373291
701.7573503,-49.560001373291
701.7729753,-49.560001373291
701.7886003,-48.189998626709
701.8042253,-45.25
701.8198503,-40.9099998474121
701.8354753,-35.7999992370605
701.8511003,-30.6700000762939
701.8667253,-25.9500007629395
701.8823503,-21.5
701.8979753,-16.5799999237061
701.9136003,-10.3100004196167
701.9292253,-2.35999989509583
701.9448503,6.61999988555908
701.9604753,15.2200002670288
701.9761003,22.0200004577637
701.9917253,26.3700008392334
702.0073503,28.5300006866455
702.0229753,29.2900009155273
702.0386003,29.4500007629395
702.0542253,29.5799999237061
702.0698503,29.7399997711182
702.0854753,29.4799995422363
702.1011003,28.1499996185303
702.1167253,25.1299991607666
702.1323503,20.1299991607666
702.1479753,13.3999996185303
702.1636003,5.8899998664856
702.1792253,-1.08000004291534
702.1948503,-6.32999992370605
702.2104753,-9.23999977111816
702.2261003,-9.89999961853027
702.2417253,-8.90999984741211
702.2573503,-7.26000022888184
702.2729753,-6.11999988555908
702.2886003,-6.57000017166138
702.3042253,-8.90999984741211
702.3198503,-12.4099998474121
702.3354753,-15.8000001907349
702.3511003,-18.2000007629395
702.3667253,-19.4400005340576
702.3823503,-19.8700008392334
702.3979753,-20.0499992370605
702.4136003,-20.2900009155273
702.4292253,-20.3400001525879
702.4448503,-19.7600002288818
702.4604753,-18.3999996185303
702.4761003,-16.5400009155273
702.4917253,-14.75
702.5073503,-13.6400003433228
702.5229753,-13.6300001144409
702.5386003,-14.6000003814697
702.5542253,-15.8500003814697
702.5698503,-16.3999996185303
702.5854753,-15.6400003433228
702.6011003,-13.6499996185303
702.6167253,-10.8900003433228
702.6323503,-7.84999990463257
702.6479753,-4.71999979019165
702.6636003,-1.23000001907349
702.6792253,3.22000002861023
702.6948503,9.26000022888184
702.7104753,17.0799999237061
702.7261003,26.0300006866455
702.7417253,34.689998626709
702.7573503,41.5699996948242
702.7729753,45.9900016784668
702.7886003,48.25
702.8042253,48.9599990844727
702.8198503,48.4500007629395
702.8354753,46.7799987792969
702.8511003,44.1100006103516
702.8667253,40.9900016784668
702.8823503,38.0499992370605
702.8979753,35.560001373291
702.9136003,33.2099990844727
702.9292253,30.4899997711182
702.9448503,26.9099998474121
702.9604753,22.2000007629395
702.9761003,16.3500003814697
702.9917253,9.78999996185303
703.0073503,3.4300000667572
703.0229753,-1.55999994277954
703.0386003,-4.32000017166138
703.0542253,-4.73000001907349
703.0698503,-3.69000005722046
703.0854753,-2.51999998092651
703.1011003,-2.24000000953674
703.1167253,-3.07999992370605
703.1323503,-4.61999988555908
703.1479753,-6.44999980926514
703.1636003,-8.48999977111816
703.1792253,-10.7200002670288
703.1948503,-12.6899995803833
703.2104753,-13.75
703.2261003,-13.4300003051758
703.2417253,-11.9700002670288
703.2573503,-10.3500003814697
703.2729753,-9.68000030517578
703.2886003,-10.3800001144409
703.3042253,-11.9300003051758
703.3198503,-13.5600004196167
703.3354753,-14.9300003051758
703.3511003,-15.9799995422363
703.3667253,-16.6200008392334
703.3823503,-16.4799995422363
703.3979753,-15.0699996948242
703.4136003,-12.0299997329712
703.4292253,-7.28000020980835
703.4448503,-0.930000007152557
703.4604753,6.96999979019165
703.4761003,16.4300003051758
703.4917253,26.9699993133545
703.5073503,37.5099983215332
703.5229753,46.4700012207031
703.5386003,52.2999992370605
703.5542253,54.2400016784668
703.5698503,52.8300018310547
703.5854753,49.5400009155273
703.6011003,45.939998626709
703.6167253,42.9500007629395
703.6323503,40.6500015258789
703.6479753,38.4199981689453
703.6636003,35.3300018310547
703.6792253,30.6100006103516
703.6948503,24.0699996948242
703.7104753,16.3999996185303
