Time(s),Value(℃)
157.0030072,93.1600036621094
157.0186322,93.120002746582
157.0342572,93.0899963378906
157.0498822,93.0500030517578
157.0655072,93.0100021362305
157.0811322,92.9700012207031
157.0967572,92.9300003051758
157.1123822,92.8899993896484
157.1280072,92.8600006103516
157.1436322,92.8199996948242
157.1592572,92.7900009155273
157.1748822,92.7600021362305
157.1905072,92.7399978637695
157.2061322,92.7200012207031
157.2217572,92.6999969482422
157.2373822,92.6900024414063
157.2530072,92.6800003051758
157.2686322,92.6699981689453
157.2842572,92.6699981689453
157.2998822,92.6699981689453
157.3155072,92.6699981689453
157.3311322,92.6800003051758
157.3467572,92.6999969482422
157.3623822,92.7099990844727
157.3780072,92.7300033569336
157.3936322,92.7399978637695
157.4092572,92.7600021362305
157.4248822,92.7699966430664
157.4405072,92.7900009155273
157.4561322,92.8000030517578
157.4717572,92.8099975585938
157.4873822,92.8099975585938
157.5030072,92.8199996948242
157.5186322,92.8199996948242
157.5342572,92.8300018310547
157.5498822,92.8300018310547
157.5655072,92.8399963378906
157.5811322,92.8399963378906
157.5967572,92.8499984741211
157.6123822,92.8600006103516
157.6280072,92.870002746582
157.6436322,92.8899993896484
157.6592572,92.9000015258789
157.6748822,92.9199981689453
157.6905072,92.9300003051758
157.7061322,92.9499969482422
157.7217572,92.9700012207031
157.7373822,92.9899978637695
157.7530072,93.0100021362305
157.7686322,93.0299987792969
157.7842572,93.0699996948242
157.7998822,93.1100006103516
157.8155072,93.1500015258789
157.8311322,93.1999969482422
157.8467572,93.25
157.8623822,93.3099975585938
157.8780072,93.370002746582
157.8936322,93.4199981689453
157.9092572,93.4800033569336
157.9248822,93.5299987792969
157.9405072,93.5699996948242
157.9561322,93.620002746582
157.9717572,93.6600036621094
157.9873822,93.7099990844727
158.0030072,93.75
158.0186322,93.8000030517578
158.0342572,93.8499984741211
158.0498822,93.8899993896484
158.0655072,93.9400024414063
158.0811322,93.9899978637695
158.0967572,94.0400009155273
158.1123822,94.0899963378906
158.1280072,94.1399993896484
158.1436322,94.1999969482422
158.1592572,94.25
158.1748822,94.3099975585938
158.1905072,94.370002746582
158.2061322,94.4300003051758
158.2217572,94.4899978637695
158.2373822,94.5599975585938
158.2530072,94.620002746582
158.2686322,94.6800003051758
158.2842572,94.75
158.2998822,94.8099975585938
158.3155072,94.870002746582
158.3311322,94.9300003051758
158.3467572,94.9899978637695
158.3623822,95.0400009155273
158.3780072,95.0999984741211
158.3936322,95.1500015258789
158.4092572,95.1999969482422
158.4248822,95.25
158.4405072,95.3000030517578
158.4561322,95.3399963378906
158.4717572,95.370002746582
158.4873822,95.4100036621094
158.5030072,95.4400024414063
158.5186322,95.4700012207031
158.5342572,95.4899978637695
158.5498822,95.5199966430664
158.5655072,95.5500030517578
158.5811322,95.5699996948242
158.5967572,95.5999984741211
158.6123822,95.620002746582
158.6280072,95.6399993896484
158.6436322,95.6500015258789
158.6592572,95.6600036621094
158.6748822,95.6699981689453
158.6905072,95.6699981689453
158.7061322,95.6699981689453
158.7217572,95.6699981689453
158.7373822,95.6600036621094
158.7530072,95.6600036621094
158.7686322,95.6600036621094
158.7842572,95.6600036621094
158.7998822,95.6699981689453
158.8155072,95.6800003051758
158.8311322,95.6999969482422
158.8467572,95.7300033569336
158.8623822,95.75
158.8780072,95.7799987792969
158.8936322,95.8099975585938
158.9092572,95.8499984741211
158.9248822,95.879997253418
158.9405072,95.9100036621094
158.9561322,95.9499969482422
158.9717572,95.9800033569336
158.9873822,96.0100021362305
159.0030072,96.0400009155273
159.0186322,96.0699996948242
159.0342572,96.0999984741211
159.0498822,96.129997253418
159.0655072,96.1600036621094
159.0811322,96.1900024414063
159.0967572,96.2099990844727
159.1123822,96.2300033569336
159.1280072,96.2399978637695
159.1436322,96.2399978637695
159.1592572,96.2399978637695
159.1748822,96.2200012207031
159.1905072,96.2099990844727
159.2061322,96.1800003051758
159.2217572,96.1500015258789
159.2373822,96.120002746582
159.2530072,96.0899963378906
159.2686322,96.0599975585938
159.2842572,96.0199966430664
159.2998822,95.9899978637695
159.3155072,95.9499969482422
159.3311322,95.9100036621094
159.3467572,95.8600006103516
159.3623822,95.8099975585938
159.3780072,95.7600021362305
159.3936322,95.7099990844727
159.4092572,95.6600036621094
159.4248822,95.6100006103516
159.4405072,95.5599975585938
159.4561322,95.5
159.4717572,95.4499969482422
159.4873822,95.4000015258789
159.5030072,95.3499984741211
159.5186322,95.3099975585938
159.5342572,95.2699966430664
159.5498822,95.2399978637695
159.5655072,95.2300033569336
159.5811322,95.2200012207031
159.5967572,95.2200012207031
159.6123822,95.2200012207031
159.6280072,95.2300033569336
159.6436322,95.25
159.6592572,95.2600021362305
159.6748822,95.2699966430664
159.6905072,95.2699966430664
159.7061322,95.2600021362305
159.7217572,95.25
159.7373822,95.2399978637695
159.7530072,95.2099990844727
159.7686322,95.1900024414063
159.7842572,95.1500015258789
159.7998822,95.120002746582
159.8155072,95.0800018310547
159.8311322,95.0500030517578
159.8467572,95.0100021362305
159.8623822,94.9700012207031
159.8780072,94.9300003051758
159.8936322,94.879997253418
159.9092572,94.8399963378906
159.9248822,94.8000030517578
159.9405072,94.75
159.9561322,94.7099990844727
159.9717572,94.6600036621094
159.9873822,94.6100006103516
160.0030072,94.5599975585938
160.0186322,94.5100021362305
160.0342572,94.4499969482422
160.0498822,94.3899993896484
160.0655072,94.3399963378906
160.0811322,94.2799987792969
160.0967572,94.2300033569336
160.1123822,94.1699981689453
160.1280072,94.120002746582
160.1436322,94.0800018310547
160.1592572,94.0400009155273
160.1748822,94.0
160.1905072,93.9700012207031
160.2061322,93.9499969482422
160.2217572,93.9300003051758
160.2373822,93.9199981689453
160.2530072,93.9100036621094
160.2686322,93.9100036621094
160.2842572,93.9199981689453
160.2998822,93.9300003051758
160.3155072,93.9499969482422
160.3311322,93.9700012207031
160.3467572,93.9899978637695
160.3623822,94.0199966430664
160.3780072,94.0500030517578
160.3936322,94.0699996948242
160.4092572,94.0999984741211
160.4248822,94.120002746582
160.4405072,94.1399993896484
160.4561322,94.1600036621094
160.4717572,94.1699981689453
160.4873822,94.1699981689453
160.5030072,94.1699981689453
160.5186322,94.1699981689453
160.5342572,94.1500015258789
160.5498822,94.1399993896484
160.5655072,94.120002746582
160.5811322,94.0999984741211
160.5967572,94.0800018310547
160.6123822,94.0599975585938
160.6280072,94.0400009155273
160.6436322,94.0199966430664
160.6592572,94.0100021362305
160.6748822,94.0
160.6905072,93.9899978637695
160.7061322,93.9899978637695
160.7217572,93.9800033569336
160.7373822,93.9700012207031
160.7530072,93.9599990844727
160.7686322,93.9499969482422
160.7842572,93.9400024414063
160.7998822,93.9300003051758
160.8155072,93.9300003051758
160.8311322,93.9300003051758
160.8467572,93.9300003051758
160.8623822,93.9400024414063
160.8780072,93.9599990844727
160.8936322,93.9800033569336
160.9092572,94.0
160.9248822,94.0199966430664
160.9405072,94.0500030517578
160.9561322,94.0800018310547
160.9717572,94.120002746582
160.9873822,94.1699981689453
161.0030072,94.2099990844727
161.0186322,94.2600021362305
161.0342572,94.3099975585938
161.0498822,94.370002746582
161.0655072,94.4100036621094
161.0811322,94.4599990844727
161.0967572,94.5
161.1123822,94.5400009155273
161.1280072,94.5699996948242
161.1436322,94.5999984741211
161.1592572,94.620002746582
161.1748822,94.6399993896484
161.1905072,94.6600036621094
161.2061322,94.6800003051758
161.2217572,94.6900024414063
161.2373822,94.7099990844727
161.2530072,94.7200012207031
161.2686322,94.7399978637695
161.2842572,94.7600021362305
161.2998822,94.7799987792969
161.3155072,94.8099975585938
161.3311322,94.8300018310547
161.3467572,94.8600006103516
161.3623822,94.8899993896484
161.3780072,94.9199981689453
161.3936322,94.9599990844727
161.4092572,94.9899978637695
161.4248822,95.0199966430664
161.4405072,95.0500030517578
161.4561322,95.0800018310547
161.4717572,95.1100006103516
161.4873822,95.1399993896484
161.5030072,95.1699981689453
161.5186322,95.1999969482422
161.5342572,95.2300033569336
161.5498822,95.2600021362305
161.5655072,95.3000030517578
161.5811322,95.3300018310547
161.5967572,95.370002746582
161.6123822,95.4000015258789
161.6280072,95.4400024414063
161.6436322,95.4800033569336
161.6592572,95.5299987792969
161.6748822,95.5699996948242
161.6905072,95.6100006103516
161.7061322,95.6399993896484
161.7217572,95.6800003051758
161.7373822,95.6999969482422
161.7530072,95.7200012207031
161.7686322,95.7300033569336
161.7842572,95.7300033569336
161.7998822,95.7200012207031
161.8155072,95.7099990844727
161.8311322,95.6900024414063
161.8467572,95.6699981689453
161.8623822,95.6399993896484
161.8780072,95.5999984741211
161.8936322,95.5699996948242
161.9092572,95.5299987792969
161.9248822,95.5
161.9405072,95.4599990844727
161.9561322,95.4300003051758
161.9717572,95.3899993896484
161.9873822,95.370002746582
162.0030072,95.3499984741211
162.0186322,95.3399963378906
162.0342572,95.3399963378906
162.0498822,95.3399963378906
162.0655072,95.3499984741211
162.0811322,95.3499984741211
162.0967572,95.3600006103516
162.1123822,95.370002746582
162.1280072,95.379997253418
162.1436322,95.379997253418
162.1592572,95.370002746582
162.1748822,95.370002746582
162.1905072,95.3499984741211
162.2061322,95.3399963378906
162.2217572,95.3199996948242
162.2373822,95.2900009155273
162.2530072,95.2699966430664
162.2686322,95.2399978637695
162.2842572,95.2099990844727
162.2998822,95.1800003051758
162.3155072,95.1600036621094
162.3311322,95.129997253418
162.3467572,95.1100006103516
162.3623822,95.0800018310547
162.3780072,95.0599975585938
162.3936322,95.0400009155273
162.4092572,95.0199966430664
162.4248822,95.0
162.4405072,94.9800033569336
162.4561322,94.9700012207031
162.4717572,94.9599990844727
162.4873822,94.9499969482422
162.5030072,94.9499969482422
162.5186322,94.9400024414063
162.5342572,94.9400024414063
162.5498822,94.9300003051758
162.5655072,94.9199981689453
162.5811322,94.9100036621094
162.5967572,94.9100036621094
162.6123822,94.9100036621094
162.6280072,94.9100036621094
162.6436322,94.9100036621094
162.6592572,94.9199981689453
162.6748822,94.9300003051758
162.6905072,94.9499969482422
162.7061322,94.9700012207031
162.7217572,94.9899978637695
162.7373822,95.0100021362305
162.7530072,95.0299987792969
162.7686322,95.0500030517578
162.7842572,95.0699996948242
162.7998822,95.0899963378906
162.8155072,95.0999984741211
162.8311322,95.120002746582
162.8467572,95.129997253418
162.8623822,95.1399993896484
162.8780072,95.1399993896484
162.8936322,95.1399993896484
162.9092572,95.1399993896484
162.9248822,95.1399993896484
162.9405072,95.129997253418
162.9561322,95.120002746582
162.9717572,95.0999984741211
162.9873822,95.0800018310547
163.0030072,95.0599975585938
163.0186322,95.0400009155273
163.0342572,95.0100021362305
163.0498822,94.9899978637695
163.0655072,94.9700012207031
163.0811322,94.9400024414063
163.0967572,94.9300003051758
163.1123822,94.9100036621094
163.1280072,94.8899993896484
163.1436322,94.879997253418
163.1592572,94.870002746582
163.1748822,94.8600006103516
163.1905072,94.8399963378906
163.2061322,94.8300018310547
163.2217572,94.8099975585938
163.2373822,94.7900009155273
163.2530072,94.7600021362305
163.2686322,94.7300033569336
163.2842572,94.6999969482422
163.2998822,94.6600036621094
163.3155072,94.620002746582
163.3311322,94.5800018310547
163.3467572,94.5400009155273
163.3623822,94.5
163.3780072,94.4499969482422
163.3936322,94.4100036621094
163.4092572,94.3600006103516
163.4248822,94.3099975585938
163.4405072,94.2600021362305
163.4561322,94.2200012207031
163.4717572,94.1699981689453
163.4873822,94.120002746582
163.5030072,94.0800018310547
163.5186322,94.0400009155273
163.5342572,94.0100021362305
163.5498822,93.9700012207031
163.5655072,93.9400024414063
163.5811322,93.9000015258789
163.5967572,93.870002746582
163.6123822,93.8399963378906
163.6280072,93.8199996948242
163.6436322,93.8000030517578
163.6592572,93.7799987792969
163.6748822,93.7699966430664
163.6905072,93.7699966430664
163.7061322,93.7699966430664
163.7217572,93.7699966430664
163.7373822,93.7799987792969
163.7530072,93.7799987792969
163.7686322,93.7900009155273
163.7842572,93.8000030517578
163.7998822,93.8099975585938
163.8155072,93.8199996948242
163.8311322,93.8300018310547
163.8467572,93.8399963378906
163.8623822,93.8499984741211
163.8780072,93.8600006103516
163.8936322,93.870002746582
163.9092572,93.879997253418
163.9248822,93.9000015258789
163.9405072,93.9100036621094
163.9561322,93.9300003051758
163.9717572,93.9499969482422
163.9873822,93.9700012207031
164.0030072,93.9899978637695
164.0186322,94.0199966430664
164.0342572,94.0400009155273
164.0498822,94.0699996948242
164.0655072,94.0899963378906
164.0811322,94.120002746582
164.0967572,94.1500015258789
164.1123822,94.1699981689453
164.1280072,94.1999969482422
164.1436322,94.2200012207031
164.1592572,94.2399978637695
164.1748822,94.2600021362305
164.1905072,94.2799987792969
164.2061322,94.3000030517578
164.2217572,94.3199996948242
164.2373822,94.3399963378906
164.2530072,94.3600006103516
164.2686322,94.379997253418
164.2842572,94.4100036621094
164.2998822,94.4300003051758
164.3155072,94.4499969482422
164.3311322,94.4700012207031
164.3467572,94.4800033569336
164.3623822,94.4899978637695
164.3780072,94.4800033569336
164.3936322,94.4800033569336
164.4092572,94.4599990844727
164.4248822,94.4300003051758
164.4405072,94.3899993896484
164.4561322,94.3499984741211
164.4717572,94.3000030517578
164.4873822,94.25
164.5030072,94.1900024414063
164.5186322,94.120002746582
164.5342572,94.0500030517578
164.5498822,93.9700012207031
164.5655072,93.8899993896484
164.5811322,93.8099975585938
164.5967572,93.7300033569336
164.6123822,93.6600036621094
164.6280072,93.5800018310547
164.6436322,93.5100021362305
164.6592572,93.4400024414063
164.6748822,93.370002746582
164.6905072,93.3000030517578
164.7061322,93.2200012207031
164.7217572,93.1399993896484
164.7373822,93.0599975585938
164.7530072,92.9800033569336
164.7686322,92.8899993896484
164.7842572,92.8000030517578
164.7998822,92.7099990844727
164.8155072,92.620002746582
164.8311322,92.5299987792969
164.8467572,92.4300003051758
164.8623822,92.3399963378906
164.8780072,92.2399978637695
164.8936322,92.1500015258789
164.9092572,92.0500030517578
164.9248822,91.9599990844727
164.9405072,91.8600006103516
164.9561322,91.7600021362305
164.9717572,91.6600036621094
164.9873822,91.5599975585938
165.0030072,91.4499969482422
165.0186322,91.3399963378906
165.0342572,91.2300033569336
165.0498822,91.120002746582
165.0655072,91.0100021362305
165.0811322,90.9100036621094
165.0967572,90.8000030517578
165.1123822,90.6999969482422
165.1280072,90.6100006103516
165.1436322,90.5100021362305
165.1592572,90.4199981689453
165.1748822,90.3399963378906
165.1905072,90.25
165.2061322,90.1699981689453
165.2217572,90.0999984741211
165.2373822,90.0199966430664
165.2530072,89.9400024414063
165.2686322,89.870002746582
165.2842572,89.7900009155273
165.2998822,89.7300033569336
165.3155072,89.6699981689453
165.3311322,89.6100006103516
165.3467572,89.5699996948242
165.3623822,89.5299987792969
165.3780072,89.5100021362305
165.3936322,89.5
165.4092572,89.5100021362305
165.4248822,89.5199966430664
165.4405072,89.5500030517578
165.4561322,89.5800018310547
165.4717572,89.629997253418
165.4873822,89.6699981689453
165.5030072,89.7200012207031
165.5186322,89.7600021362305
165.5342572,89.8000030517578
165.5498822,89.8399963378906
165.5655072,89.870002746582
165.5811322,89.9000015258789
165.5967572,89.9199981689453
165.6123822,89.9499969482422
165.6280072,89.9800033569336
165.6436322,90.0199966430664
165.6592572,90.0599975585938
165.6748822,90.0999984741211
165.6905072,90.1500015258789
165.7061322,90.1900024414063
165.7217572,90.2399978637695
165.7373822,90.2900009155273
165.7530072,90.3399963378906
165.7686322,90.3899993896484
165.7842572,90.4300003051758
165.7998822,90.4700012207031
165.8155072,90.5100021362305
165.8311322,90.5400009155273
165.8467572,90.5599975585938
165.8623822,90.5899963378906
165.8780072,90.6100006103516
165.8936322,90.6399993896484
165.9092572,90.6600036621094
165.9248822,90.6699981689453
165.9405072,90.6900024414063
165.9561322,90.6999969482422
165.9717572,90.7099990844727
165.9873822,90.7200012207031
166.0030072,90.7200012207031
166.0186322,90.7300033569336
166.0342572,90.7399978637695
166.0498822,90.75
166.0655072,90.7699966430664
166.0811322,90.7799987792969
166.0967572,90.8000030517578
166.1123822,90.8199996948242
166.1280072,90.8399963378906
166.1436322,90.8600006103516
166.1592572,90.879997253418
166.1748822,90.9100036621094
166.1905072,90.9400024414063
166.2061322,90.9700012207031
166.2217572,91.0199966430664
166.2373822,91.0599975585938
166.2530072,91.1100006103516
166.2686322,91.1600036621094
166.2842572,91.2099990844727
166.2998822,91.2600021362305
166.3155072,91.2900009155273
166.3311322,91.3199996948242
166.3467572,91.3300018310547
166.3623822,91.3300018310547
166.3780072,91.3199996948242
166.3936322,91.2900009155273
166.4092572,91.2600021362305
166.4248822,91.2200012207031
166.4405072,91.1800003051758
166.4561322,91.1500015258789
166.4717572,91.1100006103516
166.4873822,91.0899963378906
166.5030072,91.0699996948242
166.5186322,91.0599975585938
166.5342572,91.0599975585938
166.5498822,91.0599975585938
166.5655072,91.0599975585938
166.5811322,91.0699996948242
166.5967572,91.0800018310547
166.6123822,91.0899963378906
166.6280072,91.0999984741211
166.6436322,91.1100006103516
166.6592572,91.1100006103516
166.6748822,91.120002746582
166.6905072,91.129997253418
166.7061322,91.129997253418
166.7217572,91.1399993896484
166.7373822,91.1500015258789
166.7530072,91.1600036621094
166.7686322,91.1699981689453
166.7842572,91.1900024414063
166.7998822,91.1999969482422
166.8155072,91.2300033569336
166.8311322,91.25
166.8467572,91.2699966430664
166.8623822,91.3000030517578
166.8780072,91.3300018310547
166.8936322,91.370002746582
166.9092572,91.4100036621094
166.9248822,91.4499969482422
166.9405072,91.5
166.9561322,91.5500030517578
166.9717572,91.5999984741211
166.9873822,91.6399993896484
167.0030072,91.6800003051758
167.0186322,91.7200012207031
167.0342572,91.7600021362305
167.0498822,91.7900009155273
167.0655072,91.8199996948242
167.0811322,91.8499984741211
167.0967572,91.879997253418
167.1123822,91.9000015258789
167.1280072,91.9199981689453
167.1436322,91.9300003051758
167.1592572,91.9400024414063
167.1748822,91.9400024414063
167.1905072,91.9400024414063
167.2061322,91.9300003051758
167.2217572,91.9300003051758
167.2373822,91.9300003051758
167.2530072,91.9300003051758
167.2686322,91.9300003051758
167.2842572,91.9400024414063
167.2998822,91.9499969482422
167.3155072,91.9700012207031
167.3311322,91.9899978637695
167.3467572,92.0100021362305
167.3623822,92.0299987792969
167.3780072,92.0500030517578
167.3936322,92.0699996948242
167.4092572,92.0800018310547
167.4248822,92.0800018310547
167.4405072,92.0800018310547
167.4561322,92.0599975585938
167.4717572,92.0400009155273
167.4873822,92.0100021362305
167.5030072,91.9700012207031
167.5186322,91.9300003051758
167.5342572,91.879997253418
167.5498822,91.8399963378906
167.5655072,91.7900009155273
167.5811322,91.7399978637695
167.5967572,91.6999969482422
167.6123822,91.6500015258789
167.6280072,91.620002746582
167.6436322,91.5800018310547
167.6592572,91.5500030517578
167.6748822,91.5199966430664
167.6905072,91.5
167.7061322,91.4800033569336
167.7217572,91.4599990844727
167.7373822,91.4499969482422
167.7530072,91.4400024414063
167.7686322,91.4300003051758
167.7842572,91.4300003051758
167.7998822,91.4199981689453
167.8155072,91.4199981689453
167.8311322,91.4199981689453
167.8467572,91.4100036621094
167.8623822,91.4000015258789
167.8780072,91.4000015258789
167.8936322,91.3899993896484
167.9092572,91.370002746582
167.9248822,91.3600006103516
