Time(s),Value(%)
2504.010146,-103.669998168945
2504.025771,-104.669998168945
2504.041396,-101.279998779297
2504.057021,-92.5599975585938
2504.072646,-78.3600006103516
2504.088271,-60.0800018310547
2504.103896,-40.439998626709
2504.119521,-22.2999992370605
2504.135146,-7.3600001335144
2504.150771,4.28999996185303
2504.166396,13.6800003051758
2504.182021,21.9699993133545
2504.197646,29.8500003814697
2504.213271,37.439998626709
2504.228896,44.560001373291
2504.244521,51.0999984741211
2504.260146,57.189998626709
2504.275771,63.0900001525879
2504.291396,68.9300003051758
2504.307021,74.4800033569336
2504.322646,78.7900009155273
2504.338271,81.7699966430664
2504.353896,83.4700012207031
2504.369521,84.3099975585938
2504.385146,84.75
2504.400771,85.0199966430664
2504.416396,85.1500015258789
2504.432021,85.1100006103516
2504.447646,84.8000030517578
2504.463271,83.9199981689453
2504.478896,81.9199981689453
2504.494521,78.2799987792969
2504.510146,72.8000030517578
2504.525771,65.1600036621094
2504.541396,54.4599990844727
2504.557021,39.8199996948242
2504.572646,21.4799995422363
2504.588271,1.13999998569489
2504.603896,-18.9200000762939
2504.619521,-37.5699996948242
2504.635146,-55.5699996948242
2504.650771,-74.0999984741211
2504.666396,-92.8199996948242
2504.682021,-110.419998168945
2504.697646,-126.459999084473
2504.713271,-141.850006103516
2504.728896,-157.520004272461
2504.744521,-172.919998168945
2504.760146,-185.699996948242
2504.775771,-193.25
2504.791396,-194.360000610352
2504.807021,-189.399993896484
2504.822646,-179.289993286133
2504.838271,-165.029998779297
2504.853896,-147.889999389648
2504.869521,-129.410003662109
2504.885146,-110.98999786377
2504.900771,-93.5500030517578
2504.916396,-77.4000015258789
2504.932021,-62.3499984741211
2504.947646,-48.0900001525879
2504.963271,-34.4900016784668
2504.978896,-21.6900005340576
2504.994521,-9.92000007629395
2505.010146,0.660000026226044
2505.025771,10.1499996185303
2505.041396,18.6200008392334
2505.057021,25.8600006103516
2505.072646,31.3199996948242
2505.088271,34.560001373291
2505.103896,35.8400001525879
2505.119521,36.0699996948242
2505.135146,36.25
2505.150771,37.0099983215332
2505.166396,38.4500007629395
2505.182021,40.1800003051758
2505.197646,41.6300010681152
2505.213271,42.2999992370605
2505.228896,42.0400009155273
2505.244521,40.7700004577637
2505.260146,38.2599983215332
2505.275771,34.2700004577637
2505.291396,29.0100002288818
2505.307021,23.5200004577637
2505.322646,19.3500003814697
2505.338271,17.6299991607666
2505.353896,17.8400001525879
2505.369521,18.5799999237061
2505.385146,18.9699993133545
2505.400771,19.1200008392334
2505.416396,19.6200008392334
2505.432021,20.8899993896484
2505.447646,22.8999996185303
2505.463271,25.2000007629395
2505.478896,27.1100006103516
2505.494521,28.0699996948242
2505.510146,28.0400009155273
2505.525771,27.5100002288818
2505.541396,27.3799991607666
2505.557021,28.4200000762939
2505.572646,30.9799995422363
2505.588271,35.310001373291
2505.603896,41.5200004577637
2505.619521,48.0200004577637
2505.635146,50.5099983215332
2505.650771,44.0200004577637
2505.666396,26.4699993133545
2505.682021,-0.0799999982118607
2505.697646,-30.9200000762939
2505.713271,-61.1699981689453
2505.728896,-88.1699981689453
2505.744521,-113.050003051758
2505.760146,-140.509994506836
2505.775771,-175.440002441406
2505.791396,-219.679992675781
2505.807021,-272.420013427734
2505.822646,-327.679992675781
2505.838271,-327.679992675781
2505.853896,-327.679992675781
2505.869521,-327.679992675781
2505.885146,-327.679992675781
2505.900771,-327.679992675781
2505.916396,-327.679992675781
2505.932021,-327.679992675781
2505.947646,-327.679992675781
2505.963271,-327.679992675781
2505.978896,-327.679992675781
2505.994521,-327.679992675781
2506.010146,-327.679992675781
2506.025771,-327.679992675781
2506.041396,-327.679992675781
2506.057021,-327.679992675781
2506.072646,-305.839996337891
2506.088271,-266.299987792969
2506.103896,-227.990005493164
2506.119521,-192.179992675781
2506.135146,-159.210006713867
2506.150771,-127.830001831055
2506.166396,-95.4300003051758
2506.182021,-59.6300010681152
2506.197646,-19.8799991607666
2506.213271,22.4599990844727
2506.228896,65.370002746582
2506.244521,107.190002441406
2506.260146,146.979995727539
2506.275771,184.449996948242
2506.291396,219.639999389648
2506.307021,252.660003662109
2506.322646,279.019989013672
2506.338271,302.529998779297
2506.353896,323.320007324219
2506.369521,327.670013427734
2506.385146,327.670013427734
2506.400771,327.670013427734
2506.416396,327.670013427734
2506.432021,327.670013427734
2506.447646,327.670013427734
2506.463271,327.670013427734
2506.478896,327.670013427734
2506.494521,327.670013427734
2506.510146,327.670013427734
2506.525771,327.670013427734
2506.541396,327.670013427734
2506.557021,327.670013427734
2506.572646,327.670013427734
2506.588271,327.670013427734
2506.603896,327.670013427734
2506.619521,327.670013427734
2506.635146,327.670013427734
2506.650771,327.670013427734
2506.666396,327.670013427734
2506.682021,327.670013427734
2506.697646,327.670013427734
2506.713271,327.670013427734
2506.728896,327.670013427734
2506.744521,327.670013427734
2506.760146,327.670013427734
2506.775771,327.670013427734
2506.791396,327.670013427734
2506.807021,327.670013427734
2506.822646,327.670013427734
2506.838271,327.670013427734
2506.853896,327.670013427734
2506.869521,327.670013427734
2506.885146,327.670013427734
2506.900771,327.670013427734
2506.916396,327.670013427734
2506.932021,327.670013427734
2506.947646,327.670013427734
2506.963271,327.640014648438
2506.978896,320.390014648438
2506.994521,313.070007324219
2507.010146,305.820007324219
2507.025771,298.839996337891
2507.041396,292.260009765625
2507.057021,286.049987792969
2507.072646,279.980010986328
2507.088271,273.850006103516
2507.103896,267.640014648438
2507.119521,261.480010986328
2507.135146,255.419998168945
2507.150771,249.330001831055
2507.166396,242.919998168945
2507.182021,235.960006713867
2507.197646,228.380004882813
2507.213271,220.270004272461
2507.228896,211.619995117188
2507.244521,202.360000610352
2507.260146,192.479995727539
2507.275771,182.110000610352
2507.291396,171.449996948242
2507.307021,160.690002441406
2507.322646,146.580001831055
2507.338271,133.130004882813
2507.353896,120.220001220703
2507.369521,107.639999389648
2507.385146,95.0800018310547
2507.400771,82.2699966430664
2507.416396,69.2200012207031
2507.432021,56.1699981689453
2507.447646,43.4199981689453
2507.463271,31.1200008392334
2507.478896,19.2299995422363
2507.494521,7.71999979019165
2507.510146,-3.19000005722046
2507.525771,-13.1999998092651
2507.541396,-22.1499996185303
2507.557021,-30.1000003814697
2507.572646,-37.3300018310547
2507.588271,-44.0299987792969
2507.603896,-50.189998626709
2507.619521,-55.7200012207031
2507.635146,-60.5499992370605
2507.650771,-64.7099990844727
2507.666396,-68.1999969482422
2507.682021,-71.0599975585938
2507.697646,-73.4100036621094
2507.713271,-75.4599990844727
2507.728896,-77.4599990844727
2507.744521,-79.4800033569336
2507.760146,-81.4100036621094
2507.775771,-83.1100006103516
2507.791396,-84.6600036621094
2507.807021,-86.3099975585938
2507.822646,-88.3099975585938
2507.838271,-90.7099990844727
2507.853896,-93.3600006103516
2507.869521,-96.0100021362305
2507.885146,-98.3199996948242
2507.900771,-100.089996337891
2507.916396,-101.279998779297
2507.932021,-101.970001220703
2507.947646,-102.199996948242
2507.963271,-101.980003356934
2507.978896,-101.419998168945
2507.994521,-100.879997253418
2508.010146,-100.900001525879
2508.025771,-101.879997253418
2508.041396,-103.790000915527
2508.057021,-106.25
2508.072646,-108.930000305176
2508.088271,-111.720001220703
2508.103896,-114.620002746582
2508.119521,-117.620002746582
2508.135146,-120.680000305176
2508.150771,-123.720001220703
2508.166396,-126.73999786377
2508.182021,-129.75
2508.197646,-132.770004272461
2508.213271,-135.75
2508.228896,-138.619995117188
2508.244521,-141.339996337891
2508.260146,-143.860000610352
2508.275771,-146.25
2508.291396,-148.600006103516
2508.307021,-151.059997558594
2508.322646,-155.309997558594
2508.338271,-159.729995727539
2508.353896,-164.199996948242
2508.369521,-168.550003051758
2508.385146,-172.589996337891
2508.400771,-176.25
2508.416396,-179.479995727539
2508.432021,-182.240005493164
2508.447646,-184.389999389648
2508.463271,-185.789993286133
2508.478896,-186.440002441406
2508.494521,-186.440002441406
2508.510146,-185.979995727539
2508.525771,-185.169998168945
2508.541396,-184.149993896484
2508.557021,-183.020004272461
2508.572646,-181.929992675781
2508.588271,-180.979995727539
2508.603896,-180.149993896484
2508.619521,-179.380004882813
2508.635146,-178.589996337891
2508.650771,-177.75
2508.666396,-176.860000610352
2508.682021,-175.899993896484
2508.697646,-174.839996337891
2508.713271,-173.639999389648
2508.728896,-172.300003051758
2508.744521,-170.839996337891
2508.760146,-169.270004272461
2508.775771,-167.610000610352
2508.791396,-165.910003662109
2508.807021,-164.199996948242
2508.822646,-162.490005493164
2508.838271,-160.75
2508.853896,-158.919998168945
2508.869521,-157.0
2508.885146,-154.949996948242
2508.900771,-152.740005493164
2508.916396,-150.330001831055
2508.932021,-147.669998168945
2508.947646,-144.779998779297
2508.963271,-141.690002441406
2508.978896,-138.479995727539
2508.994521,-135.229995727539
2509.010146,-131.990005493164
2509.025771,-128.820007324219
2509.041396,-125.690002441406
2509.057021,-122.569999694824
2509.072646,-119.410003662109
2509.088271,-116.180000305176
2509.103896,-112.839996337891
2509.119521,-109.269996643066
2509.135146,-105.279998779297
2509.150771,-100.660003662109
2509.166396,-95.370002746582
2509.182021,-89.4700012207031
2509.197646,-82.9700012207031
2509.213271,-75.8499984741211
2509.228896,-68.2399978637695
2509.244521,-60.5
2509.260146,-53.1100006103516
2509.275771,-46.3699989318848
2509.291396,-40.2000007629395
2509.307021,-34.3499984741211
2509.322646,-28.7600002288818
2509.338271,-23.4200000762939
2509.353896,-18.2000007629395
2509.369521,-12.8299999237061
2509.385146,-7.15999984741211
2509.400771,-1.32000005245209
2509.416396,4.25
2509.432021,9.26000022888184
2509.447646,13.8000001907349
2509.463271,18.1499996185303
2509.478896,22.4500007629395
2509.494521,26.6399993896484
2509.510146,30.8299999237061
2509.525771,35.25
2509.541396,40.0299987792969
2509.557021,44.9500007629395
2509.572646,49.4599990844727
2509.588271,53.1100006103516
2509.603896,55.9199981689453
2509.619521,58.1800003051758
2509.635146,60.060001373291
2509.650771,61.4500007629395
2509.666396,62.2400016784668
2509.682021,62.4599990844727
2509.697646,62.310001373291
2509.713271,62.0200004577637
2509.728896,61.7999992370605
2509.744521,61.7200012207031
2509.760146,61.7900009155273
2509.775771,62.0400009155273
2509.791396,62.5900001525879
2509.807021,63.5900001525879
2509.822646,65.0199966430664
2509.838271,66.5999984741211
2509.853896,67.8199996948242
2509.869521,68.370002746582
2509.885146,68.3300018310547
2509.900771,68.0500030517578
2509.916396,67.7600021362305
2509.932021,67.4599990844727
2509.947646,67.0100021362305
2509.963271,66.3199996948242
2509.978896,65.4599990844727
2509.994521,64.7300033569336
2510.010146,64.6399993896484
2510.025771,65.6100006103516
2510.041396,67.6900024414063
2510.057021,70.5199966430664
2510.072646,73.5599975585938
2510.088271,76.3499984741211
2510.103896,78.6800003051758
2510.119521,80.5699996948242
2510.135146,82.1699981689453
2510.150771,83.6699981689453
2510.166396,85.1999969482422
2510.182021,86.9499969482422
2510.197646,89.2600021362305
2510.213271,92.4100036621094
2510.228896,96.3300018310547
2510.244521,100.339996337891
2510.260146,103.290000915527
2510.275771,104.319999694824
2510.291396,103.430000305176
2510.307021,101.26000213623
2510.322646,98.9199981689453
2510.338271,96.3099975585938
2510.353896,93.7799987792969
2510.369521,91.6800003051758
2510.385146,90.1399993896484
2510.400771,88.9400024414063
2510.416396,87.5199966430664
2510.432021,85.4199981689453
2510.447646,82.5800018310547
2510.463271,79.2099990844727
2510.478896,75.4499969482422
2510.494521,71.2799987792969
2510.510146,66.6500015258789
2510.525771,61.6800003051758
2510.541396,56.5900001525879
2510.557021,51.6199989318848
2510.572646,46.9500007629395
2510.588271,42.6399993896484
2510.603896,38.6599998474121
2510.619521,35.0099983215332
2510.635146,31.75
2510.650771,28.9500007629395
2510.666396,26.6000003814697
2510.682021,24.5
2510.697646,22.2999992370605
2510.713271,19.7600002288818
2510.728896,16.9300003051758
2510.744521,14.0500001907349
2510.760146,11.3000001907349
2510.775771,8.68000030517578
2510.791396,6.1100001335144
2510.807021,3.51999998092651
2510.822646,1.0
2510.838271,-1.14999997615814
2510.853896,-2.38000011444092
2510.869521,-2.17000007629395
2510.885146,-0.430000007152557
2510.900771,2.5699999332428
2510.916396,6.57999992370605
2510.932021,11.3699998855591
2510.947646,16.6299991607666
2510.963271,21.6800003051758
2510.978896,25.5499992370605
2510.994521,27.5499992370605
2511.010146,27.8099994659424
2511.025771,27.0100002288818
2511.041396,25.7399997711182
2511.057021,24.1700000762939
2511.072646,22.2600002288818
2511.088271,20.0
2511.103896,17.5
2511.119521,14.960000038147
2511.135146,12.6099996566772
2511.150771,10.5799999237061
2511.166396,8.89999961853027
2511.182021,7.55000019073486
2511.197646,6.57999992370605
2511.213271,6.01999998092651
2511.228896,5.82000017166138
2511.244521,5.65999984741211
2511.260146,5.0
2511.275771,3.4300000667572
2511.291396,0.930000007152557
2511.307021,-2.10999989509583
2511.322646,-5.25
2511.338271,-8.22999954223633
2511.353896,-11.0200004577637
2511.369521,-13.6199998855591
2511.385146,-16.0400009155273
2511.400771,-18.2800006866455
2511.416396,-20.3199996948242
2511.432021,-22.1599998474121
2511.447646,-23.7999992370605
2511.463271,-25.25
2511.478896,-26.5100002288818
2511.494521,-27.6000003814697
2511.510146,-28.5400009155273
2511.525771,-29.3899993896484
2511.541396,-30.2800006866455
2511.557021,-31.2900009155273
2511.572646,-32.4000015258789
2511.588271,-33.5
2511.603896,-34.4599990844727
2511.619521,-35.2299995422363
2511.635146,-35.7999992370605
2511.650771,-36.2099990844727
2511.666396,-36.4700012207031
2511.682021,-36.4500007629395
2511.697646,-35.8600006103516
2511.713271,-34.4199981689453
2511.728896,-32.0900001525879
2511.744521,-29.0499992370605
2511.760146,-25.5400009155273
2511.775771,-21.7600002288818
2511.791396,-17.9099998474121
2511.807021,-14.3100004196167
2511.822646,-11.3699998855591
2511.838271,-9.42000007629395
2511.853896,-8.38000011444092
2511.869521,-7.90999984741211
2511.885146,-7.67999982833862
2511.900771,-7.51000022888184
2511.916396,-7.30000019073486
2511.932021,-6.98000001907349
2511.947646,-6.51999998092651
2511.963271,-6.01000022888184
2511.978896,-5.63000011444092
2511.994521,-5.57999992370605
2512.010146,-5.94000005722046
2512.025771,-6.67000007629395
2512.041396,-7.69000005722046
2512.057021,-8.89999961853027
2512.072646,-10.1899995803833
2512.088271,-11.4499998092651
2512.103896,-12.6099996566772
2512.119521,-13.6899995803833
2512.135146,-14.8100004196167
2512.150771,-16.0900001525879
2512.166396,-17.5699996948242
2512.182021,-19.2099990844727
2512.197646,-20.9599990844727
2512.213271,-22.75
2512.228896,-24.5200004577637
2512.244521,-26.1200008392334
2512.260146,-27.3500003814697
2512.275771,-28.0699996948242
2512.291396,-28.3299999237061
2512.307021,-28.2700004577637
2512.322646,-28.7399997711182
2512.338271,-29.0100002288818
2512.353896,-29.0599994659424
2512.369521,-28.8799991607666
2512.385146,-28.4899997711182
2512.400771,-27.8999996185303
2512.416396,-27.1200008392334
2512.432021,-26.1399993896484
2512.447646,-24.9200000762939
2512.463271,-23.4400005340576
2512.478896,-21.5900001525879
2512.494521,-19.2600002288818
2512.510146,-16.4500007629395
2512.525771,-13.3000001907349
2512.541396,-9.93000030517578
2512.557021,-6.36999988555908
2512.572646,-2.44000005722046
2512.588271,1.95000004768372
2512.603896,6.67000007629395
2512.619521,11.3400001525879
2512.635146,15.6000003814697
2512.650771,19.2999992370605
2512.666396,22.5300006866455
2512.682021,25.4699993133545
2512.697646,28.3600006103516
2512.713271,31.3199996948242
2512.728896,34.3699989318848
2512.744521,37.5099983215332
2512.760146,40.7999992370605
2512.775771,44.2900009155273
2512.791396,47.939998626709
2512.807021,51.4700012207031
2512.822646,54.4099998474121
2512.838271,56.3600006103516
2512.853896,57.3199996948242
2512.869521,57.5699996948242
2512.885146,57.4199981689453
2512.900771,57.0200004577637
2512.916396,56.439998626709
2512.932021,55.7200012207031
2512.947646,54.8899993896484
2512.963271,53.9599990844727
2512.978896,52.9300003051758
2512.994521,51.7299995422363
2513.010146,50.3800010681152
2513.025771,48.9199981689453
2513.041396,47.4199981689453
2513.057021,45.9599990844727
2513.072646,44.560001373291
2513.088271,43.2200012207031
2513.103896,41.8800010681152
2513.119521,40.5
2513.135146,39.0400009155273
2513.150771,37.5499992370605
2513.166396,36.060001373291
2513.182021,34.6300010681152
2513.197646,33.2799987792969
2513.213271,32.0200004577637
2513.228896,30.8299999237061
2513.244521,29.7299995422363
2513.260146,28.7399997711182
2513.275771,27.9200000762939
2513.291396,27.2800006866455
2513.307021,26.8799991607666
2513.322646,27.4200000762939
2513.338271,28.4099998474121
2513.353896,29.8600006103516
2513.369521,31.5900001525879
2513.385146,33.3600006103516
2513.400771,35.0200004577637
2513.416396,36.7000007629395
2513.432021,38.5800018310547
2513.447646,40.5900001525879
2513.463271,42.4700012207031
2513.478896,43.9099998474121
2513.494521,44.7999992370605
2513.510146,45.2599983215332
2513.525771,45.5499992370605
2513.541396,46.0299987792969
2513.557021,46.939998626709
2513.572646,48.3400001525879
2513.588271,50.1699981689453
2513.603896,52.4099998474121
2513.619521,55.060001373291
2513.635146,58.0099983215332
2513.650771,60.8300018310547
2513.666396,62.8400001525879
2513.682021,63.4799995422363
2513.697646,62.7299995422363
2513.713271,61.0099983215332
2513.728896,58.7299995422363
2513.744521,56.0999984741211
2513.760146,53.2000007629395
2513.775771,50.0900001525879
2513.791396,46.8600006103516
2513.807021,43.5800018310547
2513.822646,40.2799987792969
2513.838271,36.9300003051758
2513.853896,33.5499992370605
2513.869521,30.1700000762939
2513.885146,26.8999996185303
2513.900771,23.7999992370605
2513.916396,20.9300003051758
2513.932021,18.1900005340576
2513.947646,15.4200000762939
2513.963271,12.4700002670288
2513.978896,9.26000022888184
2513.994521,5.84000015258789
2514.010146,2.30999994277954
2514.025771,-1.26999998092651
2514.041396,-4.8899998664856
2514.057021,-8.59000015258789
2514.072646,-12.3299999237061
2514.088271,-16.0400009155273
2514.103896,-19.6100006103516
2514.119521,-22.9599990844727
2514.135146,-26.1100006103516
2514.150771,-29.1100006103516
2514.166396,-31.9200000762939
2514.182021,-34.4700012207031
2514.197646,-36.6699981689453
2514.213271,-38.5499992370605
2514.228896,-40.1399993896484
2514.244521,-41.4599990844727
2514.260146,-42.3800010681152
2514.275771,-42.7599983215332
2514.291396,-42.5699996948242
2514.307021,-41.9000015258789
2514.322646,-41.310001373291
2514.338271,-40.3699989318848
2514.353896,-39.1800003051758
2514.369521,-37.9099998474121
2514.385146,-36.7900009155273
2514.400771,-35.9799995422363
2514.416396,-35.4799995422363
2514.432021,-35.2000007629395
2514.447646,-35.0999984741211
2514.463271,-35.1699981689453
2514.478896,-35.4199981689453
2514.494521,-35.8199996948242
2514.510146,-36.2700004577637
2514.525771,-36.6500015258789
2514.541396,-36.8400001525879
2514.557021,-36.7700004577637
2514.572646,-36.439998626709
2514.588271,-35.9000015258789
2514.603896,-35.189998626709
2514.619521,-34.3300018310547
2514.635146,-33.3600006103516
2514.650771,-32.4000015258789
2514.666396,-31.6100006103516
2514.682021,-31.1599998474121
2514.697646,-31.0900001525879
2514.713271,-31.3400001525879
2514.728896,-31.7900009155273
2514.744521,-32.3600006103516
