Time(s),Value(%)
634.0043075,-27.7399997711182
634.0199325,-23.8899993896484
634.0355575,-19.4699993133545
634.0511825,-14.6099996566772
634.0668075,-9.55000019073486
634.0824325,-4.48000001907349
634.0980575,0.389999985694885
634.1136825,4.78000020980835
634.1293075,8.19999980926514
634.1449325,10.2799997329712
634.1605575,11.0799999237061
634.1761825,11.0299997329712
634.1918075,10.710000038147
634.2074325,10.6700000762939
634.2230575,11.4399995803833
634.2386825,13.3599996566772
634.2543075,16.3899993896484
634.2699325,20.0599994659424
634.2855575,23.8099994659424
634.3011825,27.3099994659424
634.3168075,30.75
634.3324325,34.3899993896484
634.3480575,38.1199989318848
634.3636825,41.439998626709
634.3793075,43.9199981689453
634.3949325,45.4700012207031
634.4105575,46.3199996948242
634.4261825,46.9599990844727
634.4418075,47.9099998474121
634.4574325,49.5
634.4730575,51.810001373291
634.4886825,54.9099998474121
634.5043075,59.1300010681152
634.5199325,64.8199996948242
634.5355575,71.870002746582
634.5511825,79.379997253418
634.5668075,85.9300003051758
634.5824325,90.2099990844727
634.5980575,91.6500015258789
634.6136825,90.2900009155273
634.6293075,86.4300003051758
634.6449325,80.4800033569336
634.6605575,73.0100021362305
634.6761825,64.8300018310547
634.6918075,56.6100006103516
634.7074325,48.6100006103516
634.7230575,40.4599990844727
634.7386825,31.6000003814697
634.7543075,21.7299995422363
634.7699325,10.7200002670288
634.7855575,-1.63999998569489
634.8011825,-15.5299997329712
634.8168075,-30.6299991607666
634.8324325,-45.8300018310547
634.8480575,-59.2999992370605
634.8636825,-69.9199981689453
634.8793075,-77.3199996948242
634.8949325,-81.7600021362305
634.9105575,-83.5699996948242
634.9261825,-82.9499969482422
634.9418075,-80.3399963378906
634.9574325,-76.4300003051758
634.9730575,-72.0100021362305
634.9886825,-67.5599975585938
635.0043075,-63.0999984741211
635.0199325,-58.4000015258789
635.0355575,-53.2299995422363
635.0511825,-47.4099998474121
635.0668075,-40.7599983215332
635.0824325,-33.1300010681152
635.0980575,-24.7099990844727
635.1136825,-16.0499992370605
635.1293075,-7.84000015258789
635.1449325,-0.529999971389771
635.1605575,5.94000005722046
635.1761825,11.8800001144409
635.1918075,17.2900009155273
635.2074325,21.8999996185303
635.2230575,25.4799995422363
635.2386825,28.0799999237061
635.2543075,30.0799999237061
635.2699325,32.25
635.2855575,35.6500015258789
635.3011825,41.1199989318848
635.3168075,48.7999992370605
635.3324325,58.5699996948242
635.3480575,70.5800018310547
635.3636825,85.0899963378906
635.3793075,101.660003662109
635.3949325,118.690002441406
635.4105575,133.869995117188
635.4261825,145.910003662109
635.4418075,155.630004882813
635.4574325,164.789993286133
635.4730575,174.009994506836
635.4886825,182.380004882813
635.5043075,188.610000610352
635.5199325,192.119995117188
635.5355575,193.320007324219
635.5511825,193.169998168945
635.5668075,192.610000610352
635.5824325,192.190002441406
635.5980575,192.059997558594
635.6136825,192.240005493164
635.6293075,192.970001220703
635.6449325,194.509994506836
635.6605575,196.710006713867
635.6761825,198.360000610352
635.6918075,197.259994506836
635.7074325,191.309997558594
635.7230575,179.759994506836
635.7386825,163.449996948242
635.7543075,144.070007324219
635.7699325,123.319999694824
635.7855575,102.540000915527
635.8011825,82.5699996948242
635.8168075,63.6199989318848
635.8324325,44.9799995422363
635.8480575,25.0300006866455
635.8636825,2.46000003814697
635.8793075,-23.0699996948242
635.8949325,-50.9900016784668
635.9105575,-80.6600036621094
635.9261825,-111.599998474121
635.9418075,-142.949996948242
635.9574325,-172.889999389648
635.9730575,-198.710006713867
635.9886825,-218.279998779297
636.0043075,-231.330001831055
636.0199325,-239.070007324219
636.0355575,-242.839996337891
636.0511825,-243.470001220703
636.0668075,-241.600006103516
636.0824325,-238.009994506836
636.0980575,-233.580001831055
636.1136825,-229.229995727539
636.1293075,-225.75
636.1449325,-223.630004882813
636.1605575,-222.770004272461
636.1761825,-222.610000610352
636.1918075,-222.470001220703
636.2074325,-221.830001831055
636.2230575,-220.570007324219
636.2386825,-219.080001831055
636.2543075,-218.190002441406
636.2699325,-218.669998168945
636.2855575,-220.699996948242
636.3011825,-223.729995727539
636.3168075,-226.940002441406
636.3324325,-229.600006103516
636.3480575,-231.190002441406
636.3636825,-230.979995727539
636.3793075,-227.789993286133
636.3949325,-220.639999389648
636.4105575,-209.699996948242
636.4261825,-196.289993286133
636.4418075,-182.179992675781
636.4574325,-168.710006713867
636.4730575,-156.550003051758
636.4886825,-145.639999389648
636.5043075,-135.580001831055
636.5199325,-125.819999694824
636.5355575,-115.930000305176
636.5511825,-105.809997558594
636.5668075,-95.7600021362305
636.5824325,-86.1900024414063
636.5980575,-77.3300018310547
636.6136825,-69.120002746582
636.6293075,-61.3300018310547
636.6449325,-53.7799987792969
636.6605575,-46.3400001525879
636.6761825,-38.8699989318848
636.6918075,-31.1499996185303
636.7074325,-22.8999996185303
636.7230575,-13.9099998474121
636.7386825,-4.19999980926514
636.7543075,5.98999977111816
636.7699325,16.2999992370605
636.7855575,26.3500003814697
636.8011825,35.8800010681152
636.8168075,44.8300018310547
636.8324325,53.2900009155273
636.8480575,60.939998626709
636.8636825,68.4400024414063
636.8793075,75.8899993896484
636.8949325,83.2799987792969
636.9105575,90.620002746582
636.9261825,97.9300003051758
636.9418075,105.129997253418
636.9574325,111.889999389648
636.9730575,117.75
636.9886825,122.400001525879
637.0043075,125.959999084473
637.0199325,128.820007324219
637.0355575,131.300003051758
637.0511825,133.440002441406
637.0668075,135.190002441406
637.0824325,136.490005493164
637.0980575,137.389999389648
637.1136825,138.009994506836
637.1293075,138.520004272461
637.1449325,139.029998779297
637.1605575,139.559997558594
637.1761825,140.070007324219
637.1918075,140.440002441406
637.2074325,140.619995117188
637.2230575,140.550003051758
637.2386825,140.259994506836
637.2543075,139.770004272461
637.2699325,139.110000610352
637.2855575,138.309997558594
637.3011825,137.440002441406
637.3168075,136.610000610352
637.3324325,135.929992675781
637.3480575,135.389999389648
637.3636825,134.770004272461
637.3793075,133.679992675781
637.3949325,131.839996337891
637.4105575,129.25
637.4261825,126.150001525879
637.4418075,122.800003051758
637.4574325,119.300003051758
637.4730575,115.620002746582
637.4886825,111.669998168945
637.5043075,107.470001220703
637.5199325,103.059997558594
637.5355575,98.4599990844727
637.5511825,93.5800018310547
637.5668075,88.2300033569336
637.5824325,82.3199996948242
637.5980575,75.9899978637695
637.6136825,69.5699996948242
637.6293075,63.4099998474121
637.6449325,57.7000007629395
637.6605575,52.4199981689453
637.6761825,47.4199981689453
637.6918075,42.4500007629395
637.7074325,37.3300018310547
637.7230575,32.0
637.7386825,26.5599994659424
637.7543075,21.1399993896484
637.7699325,15.8400001525879
637.7855575,10.7399997711182
637.8011825,6.07999992370605
637.8168075,2.23000001907349
637.8324325,-0.479999989271164
637.8480575,-1.97000002861023
637.8636825,-2.48000001907349
637.8793075,-2.44000005722046
637.8949325,-2.21000003814697
637.9105575,-2.03999996185303
637.9261825,-2.0
637.9418075,-2.09999990463257
637.9574325,-2.39000010490417
637.9730575,-3.0
637.9886825,-4.07999992370605
638.0043075,-5.6399998664856
638.0199325,-7.55000019073486
638.0355575,-9.63000011444092
638.0511825,-11.7299995422363
638.0668075,-13.7200002670288
638.0824325,-15.5
638.0980575,-16.8899993896484
638.1136825,-17.7299995422363
638.1293075,-17.9599990844727
638.1449325,-17.6200008392334
638.1605575,-16.8700008392334
638.1761825,-15.8999996185303
638.1918075,-14.8800001144409
638.2074325,-13.9300003051758
638.2230575,-13.0900001525879
638.2386825,-12.3299999237061
638.2543075,-11.5500001907349
638.2699325,-10.6400003433228
638.2855575,-9.60999965667725
638.3011825,-8.52999973297119
638.3168075,-7.59999990463257
638.3324325,-6.98999977111816
638.3480575,-6.75
638.3636825,-6.8899998664856
638.3793075,-7.40999984741211
638.3949325,-8.35000038146973
638.4105575,-9.71000003814697
638.4261825,-11.3699998855591
638.4418075,-13.0799999237061
638.4574325,-14.6000003814697
638.4730575,-15.789999961853
638.4886825,-16.6700000762939
638.5043075,-17.3099994659424
638.5199325,-17.6800003051758
638.5355575,-17.5300006866455
638.5511825,-16.5900001525879
638.5668075,-14.7799997329712
638.5824325,-12.1999998092651
638.5980575,-8.97000026702881
638.6136825,-5.19999980926514
638.6293075,-1.08000004291534
638.6449325,2.99000000953674
638.6605575,6.51000022888184
638.6761825,9.07999992370605
638.6918075,10.6999998092651
638.7074325,11.6000003814697
638.7230575,11.9300003051758
638.7386825,11.6999998092651
638.7543075,10.9099998474121
638.7699325,9.6899995803833
638.7855575,8.21000003814697
638.8011825,6.59999990463257
638.8168075,4.84999990463257
638.8324325,2.89000010490417
638.8480575,0.649999976158142
638.8636825,-1.75
638.8793075,-4.21999979019165
638.8949325,-6.59000015258789
638.9105575,-8.80000019073486
638.9261825,-10.8199996948242
638.9418075,-12.6599998474121
638.9574325,-14.289999961853
638.9730575,-15.6300001144409
638.9886825,-16.6000003814697
639.0043075,-17.1900005340576
639.0199325,-17.4699993133545
639.0355575,-17.4899997711182
639.0511825,-17.3099994659424
639.0668075,-16.9899997711182
639.0824325,-16.6700000762939
639.0980575,-16.5100002288818
639.1136825,-16.6100006103516
639.1293075,-16.8700008392334
639.1449325,-17.1299991607666
639.1605575,-17.2800006866455
639.1761825,-17.3700008392334
639.1918075,-17.5
639.2074325,-17.7399997711182
639.2230575,-18.0799999237061
639.2386825,-18.4699993133545
639.2543075,-18.8099994659424
639.2699325,-19.0300006866455
639.2855575,-19.1100006103516
639.3011825,-19.0300006866455
639.3168075,-18.7099990844727
639.3324325,-18.1100006103516
639.3480575,-17.2399997711182
639.3636825,-16.2999992370605
639.3793075,-15.5500001907349
639.3949325,-15.1499996185303
639.4105575,-14.9700002670288
639.4261825,-14.7200002670288
639.4418075,-14.2600002288818
639.4574325,-13.6899995803833
639.4730575,-13.1700000762939
639.4886825,-12.8599996566772
639.5043075,-12.7700004577637
639.5199325,-12.8699998855591
639.5355575,-13.1599998474121
639.5511825,-13.6400003433228
639.5668075,-14.3000001907349
639.5824325,-15.0600004196167
639.5980575,-15.8400001525879
639.6136825,-16.5699996948242
639.6293075,-17.2199993133545
639.6449325,-17.8700008392334
639.6605575,-18.6700000762939
639.6761825,-19.7399997711182
639.6918075,-21.0599994659424
639.7074325,-22.4300003051758
639.7230575,-23.6900005340576
639.7386825,-24.7399997711182
639.7543075,-25.5799999237061
639.7699325,-26.2700004577637
639.7855575,-26.8899993896484
639.8011825,-27.4200000762939
639.8168075,-27.7900009155273
639.8324325,-27.9099998474121
639.8480575,-28.1299991607666
639.8636825,-28.1700000762939
639.8793075,-28.25
639.8949325,-28.6000003814697
639.9105575,-29.3099994659424
639.9261825,-30.3899993896484
639.9418075,-31.8899993896484
639.9574325,-34.060001373291
639.9730575,-37.3899993896484
639.9886825,-42.1699981689453
640.0043075,-48.1699981689453
640.0199325,-54.689998626709
640.0355575,-60.9300003051758
640.0511825,-66.3899993896484
640.0668075,-71.0500030517578
640.0824325,-75.629997253418
640.0980575,-81.4499969482422
640.1136825,-89.7099990844727
640.1293075,-100.660003662109
640.1449325,-113.569999694824
640.1605575,-127.379997253418
640.1761825,-141.210006713867
640.1918075,-154.289993286133
640.2074325,-165.440002441406
640.2230575,-172.850006103516
640.2386825,-174.929992675781
640.2543075,-171.529998779297
640.2699325,-163.940002441406
640.2855575,-154.0
640.3011825,-143.210006713867
640.3168075,-132.490005493164
640.3324325,-122.209999084473
640.3480575,-112.379997253418
640.3636825,-102.879997253418
640.3793075,-93.5800018310547
640.3949325,-84.4300003051758
640.4105575,-75.4899978637695
640.4261825,-66.9800033569336
640.4418075,-59.3199996948242
640.4574325,-52.8699989318848
640.4730575,-47.6500015258789
640.4886825,-43.3400001525879
640.5043075,-39.4799995422363
640.5199325,-35.7799987792969
640.5355575,-32.2200012207031
640.5511825,-28.8400001525879
640.5668075,-25.4200000762939
640.5824325,-21.5799999237061
640.5980575,-17.0599994659424
640.6136825,-11.9200000762939
640.6293075,-6.40999984741211
640.6449325,-0.600000023841858
640.6605575,5.78000020980835
640.6761825,13.1700000762939
640.6918075,21.6900005340576
640.7074325,31.1200008392334
640.7230575,41.1300010681152
640.7386825,51.4199981689453
640.7543075,61.689998626709
640.7699325,71.5
640.7855575,80.370002746582
640.8011825,88.0699996948242
640.8168075,94.9199981689453
640.8324325,101.459999084473
640.8480575,108.970001220703
640.8636825,116.199996948242
640.8793075,122.779998779297
640.8949325,128.5
640.9105575,133.429992675781
640.9261825,138.020004272461
640.9418075,143.029998779297
640.9574325,149.070007324219
640.9730575,156.309997558594
640.9886825,164.570007324219
641.0043075,173.679992675781
641.0199325,183.539993286133
641.0355575,193.800003051758
641.0511825,203.520004272461
641.0668075,211.169998168945
641.0824325,215.520004272461
641.0980575,216.369995117188
641.1136825,214.440002441406
641.1293075,210.580001831055
641.1449325,205.369995117188
641.1605575,199.199996948242
641.1761825,192.410003662109
641.1918075,185.309997558594
641.2074325,177.979995727539
641.2230575,170.160003662109
641.2386825,161.520004272461
641.2543075,151.979995727539
641.2699325,141.860000610352
641.2855575,131.690002441406
641.3011825,121.980003356934
641.3168075,113.0
641.3324325,104.830001831055
641.3480575,97.5299987792969
641.3636825,91.120002746582
641.3793075,85.5599975585938
641.3949325,80.629997253418
641.4105575,76.0199966430664
641.4261825,71.5699996948242
641.4418075,67.3399963378906
641.4574325,63.5699996948242
641.4730575,60.3800010681152
641.4886825,57.689998626709
641.5043075,55.2200012207031
641.5199325,52.7700004577637
641.5355575,50.3300018310547
641.5511825,47.9700012207031
641.5668075,45.5699996948242
641.5824325,42.8699989318848
641.5980575,39.689998626709
641.6136825,36.060001373291
641.6293075,32.1500015258789
641.6449325,28.0799999237061
641.6605575,23.7800006866455
641.6761825,19.1000003814697
641.6918075,13.9799995422363
641.7074325,8.52000045776367
641.7230575,2.88000011444092
641.7386825,-2.79999995231628
641.7543075,-8.39000034332275
641.7699325,-13.7700004577637
641.7855575,-18.8500003814697
641.8011825,-23.5400009155273
641.8168075,-27.7900009155273
641.8324325,-31.5799999237061
641.8480575,-34.7299995422363
641.8636825,-37.3899993896484
641.8793075,-39.6399993896484
641.8949325,-41.5900001525879
641.9105575,-43.3600006103516
641.9261825,-44.9599990844727
641.9418075,-46.2799987792969
641.9574325,-47.1800003051758
641.9730575,-47.6100006103516
641.9886825,-47.5900001525879
642.0043075,-47.1399993896484
642.0199325,-46.2599983215332
642.0355575,-45.0499992370605
642.0511825,-43.75
642.0668075,-42.6599998474121
642.0824325,-41.8699989318848
642.0980575,-41.0400009155273
642.1136825,-39.7099990844727
642.1293075,-37.7400016784668
642.1449325,-35.4199981689453
642.1605575,-33.1699981689453
642.1761825,-31.3099994659424
642.1918075,-29.9099998474121
642.2074325,-28.7199993133545
642.2230575,-27.3199996948242
642.2386825,-25.3400001525879
642.2543075,-22.6499996185303
642.2699325,-19.2700004577637
642.2855575,-15.1899995803833
642.3011825,-10.3299999237061
642.3168075,-4.8899998664856
642.3324325,0.430000007152557
642.3480575,4.59999990463257
642.3636825,6.80999994277954
642.3793075,7.11999988555908
642.3949325,6.19999980926514
642.4105575,4.6399998664856
642.4261825,2.65000009536743
642.4418075,0.259999990463257
642.4574325,-2.5
642.4730575,-5.46999979019165
642.4886825,-8.32999992370605
642.5043075,-10.6400003433228
642.5199325,-12.0799999237061
642.5355575,-12.5799999237061
642.5511825,-12.2399997711182
642.5668075,-11.0799999237061
642.5824325,-9.10999965667725
642.5980575,-6.5
642.6136825,-3.84999990463257
642.6293075,-2.07999992370605
642.6449325,-1.75999999046326
642.6605575,-2.67000007629395
642.6761825,-4.09000015258789
642.6918075,-5.48999977111816
642.7074325,-6.88000011444092
642.7230575,-8.47999954223633
642.7386825,-10.4700002670288
642.7543075,-12.7299995422363
642.7699325,-14.5799999237061
642.7855575,-14.9099998474121
642.8011825,-12.710000038147
642.8168075,-7.78999996185303
642.8324325,-0.579999983310699
642.8480575,8.36999988555908
642.8636825,18.6200008392334
642.8793075,29.5400009155273
642.8949325,39.7900009155273
642.9105575,47.4199981689453
642.9261825,51.1199989318848
642.9418075,51.2200012207031
642.9574325,49.1399993896484
642.9730575,46.0800018310547
642.9886825,42.4300003051758
643.0043075,38.1300010681152
643.0199325,33.1699981689453
643.0355575,27.7700004577637
643.0511825,22.2800006866455
643.0668075,17.0400009155273
643.0824325,12.2399997711182
643.0980575,7.92000007629395
643.1136825,4.17999982833862
643.1293075,1.24000000953674
643.1449325,-0.649999976158142
643.1605575,-1.5900000333786
643.1761825,-2.1800000667572
643.1918075,-3.46000003814697
643.2074325,-6.17000007629395
643.2230575,-10.1499996185303
643.2386825,-14.6700000762939
643.2543075,-19.1700000762939
643.2699325,-23.5300006866455
643.2855575,-27.8999996185303
643.3011825,-32.4099998474121
643.3168075,-36.9599990844727
643.3324325,-41.0
643.3480575,-43.6199989318848
643.3636825,-44.0299987792969
643.3793075,-42.0400009155273
643.3949325,-37.8600006103516
643.4105575,-31.5499992370605
643.4261825,-23.1100006103516
643.4418075,-13.0100002288818
643.4574325,-2.67000007629395
643.4730575,5.80000019073486
643.4886825,10.8299999237061
643.5043075,12.3599996566772
643.5199325,11.3800001144409
643.5355575,8.75
643.5511825,4.78000020980835
643.5668075,-0.270000010728836
643.5824325,-5.92000007629395
643.5980575,-11.6400003433228
643.6136825,-17.2199993133545
643.6293075,-23.0
643.6449325,-29.5
643.6605575,-36.9000015258789
643.6761825,-44.9799995422363
643.6918075,-53.3699989318848
643.7074325,-61.7099990844727
643.7230575,-69.7799987792969
643.7386825,-77.4199981689453
643.7543075,-84.5599975585938
643.7699325,-91.2099990844727
643.7855575,-97.4700012207031
643.8011825,-103.430000305176
643.8168075,-109.099998474121
643.8324325,-114.349998474121
643.8480575,-118.139999389648
643.8636825,-120.930000305176
643.8793075,-122.699996948242
643.8949325,-123.629997253418
643.9105575,-123.949996948242
643.9261825,-123.599998474121
643.9418075,-122.150001525879
643.9574325,-119.199996948242
643.9730575,-114.900001525879
643.9886825,-109.910003662109
644.0043075,-105.01000213623
644.0199325,-100.669998168945
644.0355575,-96.9599990844727
644.0511825,-93.629997253418
644.0668075,-90.2900009155273
644.0824325,-86.6600036621094
644.0980575,-82.6500015258789
644.1136825,-78.2799987792969
644.1293075,-73.620002746582
644.1449325,-68.6600036621094
644.1605575,-63.5499992370605
644.1761825,-58.7700004577637
644.1918075,-55.1599998474121
644.2074325,-53.4199981689453
644.2230575,-53.5999984741211
644.2386825,-55.1199989318848
644.2543075,-57.2200012207031
644.2699325,-59.3600006103516
644.2855575,-61.2400016784668
644.3011825,-62.7999992370605
644.3168075,-64.0899963378906
644.3324325,-65.2799987792969
644.3480575,-66.629997253418
644.3636825,-68.3099975585938
644.3793075,-70.370002746582
644.3949325,-72.6800003051758
644.4105575,-75.0899963378906
644.4261825,-77.5299987792969
644.4418075,-79.870002746582
644.4574325,-81.9499969482422
644.4730575,-83.5
644.4886825,-84.2099990844727
644.5043075,-83.7799987792969
644.5199325,-82.0599975585938
644.5355575,-79.0899963378906
644.5511825,-75.1399993896484
644.5668075,-70.5999984741211
644.5824325,-65.8899993896484
644.5980575,-61.25
644.6136825,-56.6599998474121
644.6293075,-51.810001373291
644.6449325,-46.3499984741211
644.6605575,-40.1800003051758
644.6761825,-33.439998626709
644.6918075,-26.4099998474121
644.7074325,-19.3199996948242
