Time(s),Value(%)
0.0255917,0.0
0.0412167,-4.5
0.0568417,-7.76999998092651
0.0724667,-9.81999969482422
0.0880917,-10.5900001525879
0.1037167,-10.1899995803833
0.1193417,-9.02999973297119
0.1349667,-7.73000001907349
0.1505917,-6.80000019073486
0.1662167,-6.65999984741211
0.1818417,-7.55999994277954
0.1974667,-9.46000003814697
0.2130917,-11.9099998474121
0.2287167,-14.2799997329712
0.2443417,-16.2199993133545
0.2599667,-17.7399997711182
0.2755917,-18.9400005340576
0.2912167,-19.7999992370605
0.3068417,-20.0400009155273
0.3224667,-19.2099990844727
0.3380917,-17.1399993896484
0.3537167,-14.2299995422363
0.3693417,-10.6800003051758
0.3849667,-5.61999988555908
0.4005917,2.5699999332428
0.4162167,15.0
0.4318417,31.3500003814697
0.4474667,49.5699996948242
0.4630917,66.1100006103516
0.4787167,77.2900009155273
0.4943417,81.0100021362305
0.5099667,77.5500030517578
0.5255917,69.0400009155273
0.5412167,58.1699981689453
0.5568417,47.0999984741211
0.5724667,37.1699981689453
0.5880917,29.2000007629395
0.6037167,23.6200008392334
0.6193417,20.4599990844727
0.6349667,19.3199996948242
0.6505917,19.4300003051758
0.6662167,19.6399993896484
0.6818417,18.4200000762939
0.6974667,14.2799997329712
0.7130917,6.6100001335144
0.7287167,-3.80999994277954
0.7443417,-15.1499996185303
0.7599667,-25.1800003051758
0.7755917,-32.1500015258789
0.7912167,-35.5099983215332
0.8068417,-36.2099990844727
0.8224667,-36.1399993896484
0.8380917,-36.939998626709
0.8537167,-39.1199989318848
0.8693417,-41.9500007629395
0.8849667,-44.3199996948242
0.9005917,-45.6500015258789
0.9162167,-46.2000007629395
0.9318417,-46.560001373291
0.9474667,-47.3899993896484
0.9630917,-49.8600006103516
0.9787167,-56.0
0.9943417,-68.1500015258789
1.0099667,-87.25
1.0255917,-111.160003662109
1.0412167,-135.169998168945
1.0568417,-154.600006103516
1.0724667,-167.160003662109
1.0880917,-172.759994506836
1.1037167,-172.240005493164
1.1193417,-166.940002441406
1.1349667,-158.720001220703
1.1505917,-149.350006103516
1.1662167,-139.940002441406
1.1818417,-131.080001831055
1.1974667,-122.849998474121
1.2130917,-114.400001525879
1.2287167,-104.199996948242
1.2443417,-91.0899963378906
1.2599667,-75.1500015258789
1.2755917,-57.4300003051758
1.2912167,-39.4000015258789
1.3068417,-22.5699996948242
1.3224667,-8.22999954223633
1.3380917,3.10999989509583
1.3537167,12.1099996566772
1.3693417,19.9699993133545
1.3849667,27.75
1.4005917,35.8899993896484
1.4162167,44.2799987792969
1.4318417,52.5200004577637
1.4474667,60.2999992370605
1.4630917,67.6699981689453
1.4787167,74.8300018310547
1.4943417,81.6999969482422
1.5099667,87.9400024414063
1.5255917,93.2600021362305
1.5412167,97.6100006103516
1.5568417,101.029998779297
1.5724667,103.419998168945
1.5880917,104.73999786377
1.6037167,105.25
1.6193417,105.459999084473
1.6349667,105.790000915527
1.6505917,106.419998168945
1.6662167,107.269996643066
1.6818417,108.279998779297
1.6974667,110.080001831055
1.7130917,115.129997253418
1.7287167,127.650001525879
1.7443417,150.850006103516
1.7599667,183.509994506836
1.7755917,219.580001831055
1.7912167,251.300003051758
1.8068417,272.549987792969
1.8224667,280.450012207031
1.8380917,275.489990234375
1.8537167,261.019989013672
1.8693417,241.539993286133
1.8849667,220.580001831055
1.9005917,199.580001831055
1.9162167,178.229995727539
1.9318417,155.580001831055
1.9474667,131.050003051758
1.9630917,104.849998474121
1.9787167,78.0899963378906
1.9943417,52.2799987792969
2.0099667,28.8299999237061
2.0255917,8.52999973297119
2.0412167,-8.63000011444092
2.0568417,-23.4899997711182
2.0724667,-37.189998626709
2.0880917,-50.6300010681152
2.1037167,-64.2099990844727
2.1193417,-77.6999969482422
2.1349667,-90.4700012207031
2.1505917,-101.959999084473
2.1662167,-112.050003051758
2.1818417,-120.879997253418
2.1974667,-128.649993896484
2.2130917,-135.669998168945
2.2287167,-142.630004882813
2.2443417,-150.389999389648
2.2599667,-159.289993286133
2.2755917,-168.869995117188
2.2912167,-178.059997558594
2.3068417,-185.710006713867
2.3224667,-191.179992675781
2.3380917,-194.610000610352
2.3537167,-196.75
2.3693417,-198.080001831055
2.3849667,-198.25
2.4005917,-196.490005493164
2.4162167,-192.279998779297
2.4318417,-185.600006103516
2.4474667,-176.789993286133
2.4630917,-166.220001220703
2.4787167,-154.089996337891
2.4943417,-140.509994506836
2.5099667,-125.550003051758
2.5255917,-109.099998474121
2.5412167,-91.0100021362305
2.5568417,-71.7900009155273
2.5724667,-52.9900016784668
2.5880917,-36.5999984741211
2.6037167,-24.1499996185303
2.6193417,-16.1100006103516
2.6349667,-11.9099998474121
2.6505917,-10.460000038147
2.6662167,-10.6400003433228
2.6818417,-11.4099998474121
2.6974667,-11.8900003433228
2.7130917,-11.4700002670288
2.7287167,-9.97999954223633
2.7443417,-7.40000009536743
2.7599667,-3.78999996185303
2.7755917,0.709999978542328
2.7912167,5.86999988555908
2.8068417,11.4099998474121
2.8224667,17.2800006866455
2.8380917,23.5900001525879
2.8537167,30.4799995422363
2.8693417,37.9000015258789
2.8849667,45.75
2.9005917,53.9700012207031
2.9162167,62.4500007629395
2.9318417,70.8600006103516
2.9474667,78.1100006103516
2.9630917,82.5800018310547
2.9787167,83.1500015258789
2.9943417,80.1900024414063
3.0099667,75.4300003051758
3.0255917,71.2399978637695
3.0412167,69.9599990844727
3.0568417,73.5999984741211
3.0724667,83.629997253418
3.0880917,100.25
3.1037167,121.470001220703
3.1193417,142.970001220703
3.1349667,159.520004272461
3.1505917,167.410003662109
3.1662167,165.889999389648
3.1818417,156.919998168945
3.1974667,143.770004272461
3.2130917,129.429992675781
3.2287167,115.720001220703
3.2443417,103.290000915527
3.2599667,92.1100006103516
3.2755917,81.8399963378906
3.2912167,72.1600036621094
3.3068417,62.7999992370605
3.3224667,53.6800003051758
3.3380917,44.9700012207031
3.3537167,37.0
3.3693417,30.0
3.3849667,23.7600002288818
3.4005917,17.7700004577637
3.4162167,11.6999998092651
3.4318417,5.71999979019165
3.4474667,0.189999997615814
3.4630917,-4.80999994277954
3.4787167,-9.57999992370605
3.4943417,-14.4899997711182
3.5099667,-19.7800006866455
3.5255917,-25.4400005340576
3.5412167,-31.2800006866455
3.5568417,-37.0400009155273
3.5724667,-42.6399993896484
3.5880917,-48.1199989318848
3.6037167,-53.5099983215332
3.6193417,-58.7099990844727
3.6349667,-63.6500015258789
3.6505917,-68.2200012207031
3.6662167,-71.8399963378906
3.6818417,-73.1600036621094
3.6974667,-70.2300033569336
3.7130917,-61.2999992370605
3.7287167,-46.2999992370605
3.7443417,-27.5699996948242
3.7599667,-8.98999977111816
3.7755917,5.71999979019165
3.7912167,14.2600002288818
3.8068417,15.9700002670288
3.8224667,11.5299997329712
3.8380917,2.39000010490417
3.8537167,-9.72000026702881
3.8693417,-23.1700000762939
3.8849667,-36.6300010681152
3.9005917,-49.189998626709
3.9162167,-60.3400001525879
3.9318417,-69.8600006103516
3.9474667,-77.5500030517578
3.9630917,-83.1500015258789
3.9787167,-86.4000015258789
3.9943417,-87.1999969482422
4.0099667,-85.8600006103516
4.0255917,-83.0599975585938
4.0412167,-79.6900024414063
4.0568417,-76.5299987792969
4.0724667,-74.1100006103516
4.0880917,-72.4899978637695
4.1037167,-71.4800033569336
4.1193417,-70.7600021362305
4.1349667,-70.0599975585938
4.1505917,-69.2300033569336
4.1662167,-68.2900009155273
4.1818417,-67.3600006103516
4.1974667,-66.5500030517578
4.2130917,-65.9100036621094
4.2287167,-65.2600021362305
4.2443417,-64.1500015258789
4.2599667,-62.1100006103516
4.2755917,-58.9000015258789
4.2912167,-54.4000015258789
4.3068417,-48.2000007629395
4.3224667,-39.2799987792969
4.3380917,-26.2099990844727
4.3537167,-8.13000011444092
4.3693417,14.1400003433228
4.3849667,37.8300018310547
4.4005917,59.4000015258789
4.4162167,76.1500015258789
4.4318417,86.9199981689453
4.4474667,91.9300003051758
4.4630917,92.1800003051758
4.4787167,88.9499969482422
4.4943417,83.5
4.5099667,76.7600021362305
4.5255917,69.2099990844727
4.5412167,61.0099983215332
4.5568417,52.310001373291
4.5724667,43.5299987792969
4.5880917,35.1100006103516
4.6037167,27.25
4.6193417,19.9500007629395
4.6349667,13.3500003814697
4.6505917,7.80999994277954
4.6662167,3.53999996185303
4.6818417,0.419999986886978
4.6974667,-1.99000000953674
4.7130917,-4.17999982833862
4.7287167,-6.32000017166138
4.7443417,-8.42000007629395
4.7599667,-10.4399995803833
4.7755917,-12.3900003433228
4.7912167,-14.289999961853
4.8068417,-16.0599994659424
4.8224667,-17.5699996948242
4.8380917,-18.7700004577637
4.8537167,-19.7800006866455
4.8693417,-20.7800006866455
4.8849667,-21.6599998474121
4.9005917,-22.0200004577637
4.9162167,-21.3999996185303
4.9318417,-19.6000003814697
4.9474667,-16.6000003814697
4.9630917,-12.2200002670288
4.9787167,-5.48000001907349
4.9943417,5.65000009536743
5.0099667,22.9899997711182
5.0255917,45.8300018310547
5.0412167,70.379997253418
5.0568417,91.629997253418
5.0724667,105.860000610352
5.0880917,111.940002441406
5.1037167,111.110000610352
5.1193417,105.76000213623
5.1349667,98.2699966430664
5.1505917,90.0500030517578
5.1662167,81.4000015258789
5.1818417,72.0299987792969
5.1974667,61.7700004577637
5.2130917,50.9000015258789
5.2287167,39.9500007629395
5.2443417,29.4400005340576
5.2599667,19.8400001525879
5.2755917,11.6199998855591
5.2912167,5.1399998664856
5.3068417,0.519999980926514
5.3224667,-2.4300000667572
5.3380917,-4.23999977111816
5.3537167,-5.61999988555908
5.3693417,-7.17000007629395
5.3849667,-9.06999969482422
5.4005917,-11.0600004196167
5.4162167,-12.6899995803833
5.4318417,-13.6599998474121
5.4474667,-14.1599998474121
5.4630917,-15.0799999237061
5.4787167,-17.6299991607666
5.4943417,-22.2099990844727
5.5099667,-27.7600002288818
5.5255917,-32.4700012207031
5.5412167,-35.0200004577637
5.5568417,-35.1599998474121
5.5724667,-33.5299987792969
5.5880917,-31.1299991607666
5.6037167,-28.5300006866455
5.6193417,-25.75
5.6349667,-22.5699996948242
5.6505917,-18.6800003051758
5.6662167,-13.4799995422363
5.6818417,-5.84000015258789
5.6974667,5.61999988555908
5.7130917,21.3700008392334
5.7287167,39.4000015258789
5.7443417,55.6800003051758
5.7599667,66.2600021362305
5.7755917,69.2699966430664
5.7912167,65.3899993896484
5.8068417,56.8600006103516
5.8224667,45.9900016784668
5.8380917,34.310001373291
5.8537167,22.5599994659424
5.8693417,11.1199998855591
5.8849667,0.550000011920929
5.9005917,-8.42000007629395
5.9162167,-15.2799997329712
5.9318417,-20.0400009155273
5.9474667,-23.2199993133545
5.9630917,-25.4899997711182
5.9787167,-27.3400001525879
5.9943417,-28.8899993896484
6.0099667,-30.0400009155273
6.0255917,-30.7199993133545
6.0412167,-31.0
6.0568417,-31.1100006103516
6.0724667,-31.3099994659424
6.0880917,-31.7399997711182
6.1037167,-32.3800010681152
6.1193417,-33.1500015258789
6.1349667,-34.0299987792969
6.1505917,-35.0099983215332
6.1662167,-35.9099998474121
6.1818417,-36.4199981689453
6.1974667,-36.310001373291
6.2130917,-35.4500007629395
6.2287167,-33.7099990844727
6.2443417,-30.8999996185303
6.2599667,-26.5200004577637
6.2755917,-19.4500007629395
6.2912167,-8.32999992370605
6.3068417,7.21000003814697
6.3224667,25.4200000762939
6.3380917,42.7799987792969
6.3537167,55.7900009155273
6.3693417,62.6300010681152
6.3849667,63.5400009155273
6.4005917,59.9199981689453
6.4162167,53.4099998474121
6.4318417,45.2299995422363
6.4474667,36.2200012207031
6.4630917,26.9699993133545
6.4787167,17.8400001525879
6.4943417,9.05000019073486
6.5099667,0.949999988079071
6.5255917,-5.8600001335144
6.5412167,-10.7700004577637
6.5568417,-13.5299997329712
6.5724667,-14.4399995803833
6.5880917,-14.0699996948242
6.6037167,-13.1400003433228
6.6193417,-12.2600002288818
6.6349667,-11.8100004196167
6.6505917,-11.8999996185303
6.6662167,-12.6599998474121
6.6818417,-14.2700004577637
6.6974667,-16.8199996948242
6.7130917,-20.0100002288818
6.7287167,-23.25
6.7443417,-26.2199993133545
6.7599667,-29.0100002288818
6.7755917,-31.7600002288818
6.7912167,-34.4000015258789
6.8068417,-36.560001373291
6.8224667,-37.9000015258789
6.8380917,-38.310001373291
6.8537167,-38.0499992370605
6.8693417,-37.6100006103516
6.8849667,-37.3199996948242
6.9005917,-36.6100006103516
6.9162167,-33.7700004577637
6.9318417,-26.7000007629395
6.9474667,-14.3900003433228
6.9630917,2.27999997138977
6.9787167,21.0200004577637
6.9943417,39.1399993896484
7.0099667,54.1800003051758
7.0255917,64.1699981689453
7.0412167,68.0100021362305
7.0568417,65.8600006103516
7.0724667,58.9599990844727
7.0880917,49.1699981689453
7.1037167,38.2099990844727
7.1193417,27.2099990844727
7.1349667,16.6200008392334
7.1505917,6.57999992370605
7.1662167,-2.71000003814697
7.1818417,-10.9099998474121
7.1974667,-17.6700000762939
7.2130917,-22.7800006866455
7.2287167,-26.2600002288818
7.2443417,-28.4300003051758
7.2599667,-29.8199996948242
7.2755917,-30.9300003051758
7.2912167,-32.1699981689453
7.3068417,-33.7599983215332
7.3224667,-35.7900009155273
7.3380917,-38.25
7.3537167,-41.1100006103516
7.3693417,-44.3600006103516
7.3849667,-48.1500015258789
7.4005917,-52.5499992370605
7.4162167,-57.3199996948242
7.4318417,-61.9300003051758
7.4474667,-65.8199996948242
7.4630917,-68.5800018310547
7.4787167,-70.0299987792969
7.4943417,-70.1999969482422
7.5099667,-69.2399978637695
7.5255917,-67.2200012207031
7.5412167,-64.1600036621094
7.5568417,-59.9700012207031
7.5724667,-54.1500015258789
7.5880917,-45.4700012207031
7.6037167,-32.4700012207031
7.6193417,-14.4099998474121
7.6349667,8.03999996185303
7.6505917,32.7099990844727
7.6662167,56.1100006103516
7.6818417,74.7399978637695
7.6974667,86.2699966430664
7.7130917,90.25
7.7287167,87.870002746582
7.7443417,81.2099990844727
7.7599667,72.2600021362305
7.7755917,62.4300003051758
7.7912167,52.3499984741211
7.8068417,42.1399993896484
7.8224667,31.8500003814697
7.8380917,21.8799991607666
7.8537167,13.0600004196167
7.8693417,6.03000020980835
7.8849667,0.850000023841858
7.9005917,-2.91000008583069
7.9162167,-5.8600001335144
7.9318417,-8.40999984741211
7.9474667,-10.6599998474121
7.9630917,-12.6599998474121
7.9787167,-14.5699996948242
7.9943417,-16.7700004577637
8.0099667,-19.5499992370605
8.0255917,-22.8500003814697
8.0412167,-26.25
8.0568417,-29.2700004577637
8.0724667,-31.6200008392334
8.0880917,-33.2000007629395
8.1037167,-34.0
8.1193417,-34.1599998474121
8.1349667,-34.0499992370605
8.1505917,-33.939998626709
8.1662167,-33.7799987792969
8.1818417,-33.3199996948242
8.1974667,-32.2700004577637
8.2130917,-30.4300003051758
8.2287167,-27.7600002288818
8.2443417,-24.1200008392334
8.2599667,-18.6100006103516
8.2755917,-9.26000022888184
8.2912167,5.76999998092651
8.3068417,26.0400009155273
8.3224667,48.25
8.3380917,68.0
8.3537167,81.9400024414063
8.3693417,88.879997253418
8.3849667,89.6100006103516
8.4005917,86.0599975585938
8.4162167,80.1500015258789
8.4318417,73.2200012207031
8.4474667,65.9400024414063
8.4630917,58.5699996948242
8.4787167,51.1800003051758
8.4943417,43.7000007629395
8.5099667,35.9799995422363
8.5255917,28.1299991607666
8.5412167,20.7700004577637
8.5568417,14.6999998092651
8.5724667,10.4899997711182
8.5880917,8.21000003814697
8.6037167,7.53999996185303
8.6193417,7.94999980926514
8.6349667,8.82999992370605
8.6505917,9.60999965667725
8.6662167,9.88000011444092
8.6818417,9.55000019073486
8.6974667,8.65999984741211
8.7130917,7.34000015258789
8.7287167,5.69999980926514
8.7443417,3.8199999332428
8.7599667,1.6599999666214
8.7755917,-0.75
8.7912167,-3.25
8.8068417,-5.5
8.8224667,-7.19999980926514
8.8380917,-8.28999996185303
8.8537167,-8.88000011444092
8.8693417,-9.03999996185303
8.8849667,-8.51000022888184
8.9005917,-7.17000007629395
8.9162167,-5.42999982833862
8.9318417,-3.82999992370605
8.9474667,-2.29999995231628
8.9630917,0.419999986886978
8.9787167,6.69000005722046
8.9943417,18.4799995422363
9.0099667,35.0400009155273
9.0255917,52.5
9.0412167,66.120002746582
9.0568417,72.7099990844727
9.0724667,71.8000030517578
9.0880917,65.2200012207031
9.1037167,55.7799987792969
9.1193417,45.9500007629395
9.1349667,37.1300010681152
9.1505917,29.5100002288818
9.1662167,22.5200004577637
9.1818417,15.5500001907349
9.1974667,8.42000007629395
9.2130917,1.49000000953674
9.2287167,-4.6399998664856
9.2443417,-9.47000026702881
9.2599667,-12.8199996948242
9.2755917,-14.8800001144409
9.2912167,-16.1000003814697
9.3068417,-16.9899997711182
9.3224667,-17.9899997711182
9.3380917,-19.3799991607666
9.3537167,-21.2199993133545
9.3693417,-23.4099998474121
9.3849667,-25.8299999237061
9.4005917,-28.4200000762939
9.4162167,-31.0900001525879
9.4318417,-33.6699981689453
9.4474667,-35.9900016784668
9.4630917,-37.9700012207031
9.4787167,-39.5299987792969
9.4943417,-40.560001373291
9.5099667,-40.9900016784668
9.5255917,-40.9099998474121
9.5412167,-40.6300010681152
9.5568417,-40.4099998474121
9.5724667,-40.2299995422363
9.5880917,-39.7299995422363
9.6037167,-38.1699981689453
9.6193417,-34.310001373291
9.6349667,-26.9799995422363
9.6505917,-16.2000007629395
9.6662167,-3.52999997138977
9.6818417,8.52999973297119
9.6974667,17.6200008392334
9.7130917,22.3799991607666
9.7287167,22.8700008392334
9.7443417,20.1299991607666
9.7599667,15.6199998855591
9.7755917,10.5900001525879
9.7912167,5.82999992370605
9.8068417,1.60000002384186
9.8224667,-2.17000007629395
9.8380917,-5.67000007629395
9.8537167,-9.02999973297119
9.8693417,-12.1800003051758
9.8849667,-14.8999996185303
9.9005917,-16.9799995422363
9.9162167,-18.2299995422363
9.9318417,-18.7099990844727
9.9474667,-18.75
9.9630917,-18.8700008392334
9.9787167,-19.3899993896484
9.9943417,-20.2000007629395
10.0099667,-20.9599990844727
10.0255917,-21.3899993896484
10.0412167,-21.4899997711182
10.0568417,-21.4599990844727
10.0724667,-21.4899997711182
10.0880917,-21.75
10.1037167,-22.4099998474121
10.1193417,-23.6399993896484
10.1349667,-25.6800003051758
10.1505917,-29.0599994659424
10.1662167,-34.5
10.1818417,-42.1100006103516
10.1974667,-50.4000015258789
10.2130917,-56.810001373291
10.2287167,-59.2900009155273
10.2443417,-57.310001373291
10.2599667,-51.6199989318848
10.2755917,-43.189998626709
10.2912167,-32.4900016784668
10.3068417,-19.7099990844727
10.3224667,-5.57000017166138
10.3380917,8.39000034332275
10.3537167,20.3899993896484
10.3693417,29.1800003051758
10.3849667,34.3899993896484
10.4005917,36.3499984741211
10.4162167,35.7099990844727
10.4318417,33.3199996948242
10.4474667,30.0900001525879
10.4630917,26.8500003814697
10.4787167,24.0400009155273
10.4943417,21.7700004577637
10.5099667,19.9599990844727
10.5255917,18.4099998474121
10.5412167,16.9799995422363
10.5568417,15.7200002670288
10.5724667,14.8500003814697
10.5880917,14.6000003814697
10.6037167,15.0200004577637
10.6193417,15.9499998092651
10.6349667,17.1100006103516
10.6505917,18.25
10.6662167,19.2099990844727
10.6818417,19.8799991607666
10.6974667,20.0900001525879
10.7130917,19.7700004577637
10.7287167,18.9799995422363
10.7443417,17.9099998474121
10.7599667,16.7299995422363
10.7755917,15.4200000762939
10.7912167,13.8999996185303
10.8068417,12.1499996185303
10.8224667,10.3199996948242
10.8380917,8.55000019073486
10.8537167,6.94000005722046
10.8693417,5.59000015258789
10.8849667,4.46999979019165
10.9005917,3.46000003814697
10.9162167,2.48000001907349
10.9318417,1.69000005722046
10.9474667,1.62999999523163
10.9630917,3.11999988555908
10.9787167,7.01999998092651
10.9943417,13.6400003433228
11.0099667,22.3299999237061
11.0255917,31.5900001525879
11.0412167,39.6500015258789
11.0568417,45.0299987792969
11.0724667,46.9599990844727
11.0880917,45.5499992370605
11.1037167,41.5999984741211
11.1193417,36.2000007629395
11.1349667,30.3299999237061
11.1505917,24.5799999237061
11.1662167,19.0799999237061
11.1818417,13.6499996185303
11.1974667,8.22000026702881
11.2130917,2.97000002861023
11.2287167,-1.72000002861023
11.2443417,-5.51000022888184
11.2599667,-8.30000019073486
11.2755917,-10.1999998092651
11.2912167,-11.3900003433228
11.3068417,-12.0200004577637
11.3224667,-12.289999961853
11.3380917,-12.4499998092651
11.3537167,-12.6999998092651
11.3693417,-13.0900001525879
11.3849667,-13.6099996566772
11.4005917,-14.3299999237061
11.4162167,-15.3699998855591
11.4318417,-16.8099994659424
11.4474667,-18.5100002288818
11.4630917,-20.2299995422363
11.4787167,-21.6700000762939
11.4943417,-22.75
11.5099667,-23.5599994659424
