Time(s),Value(%)
755.0062101,-24.0900001525879
755.0218351,-20.6499996185303
755.0374601,-15.5100002288818
755.0530851,-8.9399995803833
755.0687101,-1.61000001430511
755.0843351,5.71000003814697
755.0999601,12.3699998855591
755.1155851,17.9799995422363
755.1312101,22.2800006866455
755.1468351,25.1700000762939
755.1624601,26.7099990844727
755.1780851,27.0400009155273
755.1937101,26.3500003814697
755.2093351,24.8700008392334
755.2249601,22.7700004577637
755.2405851,20.1100006103516
755.2562101,16.8999996185303
755.2718351,13.3000001907349
755.2874601,9.5600004196167
755.3030851,5.92999982833862
755.3187101,2.55999994277954
755.3343351,-0.550000011920929
755.3499601,-3.5
755.3655851,-6.42000007629395
755.3812101,-9.27999973297119
755.3968351,-12.0
755.4124601,-14.460000038147
755.4280851,-16.5900001525879
755.4437101,-18.3199996948242
755.4593351,-19.6100006103516
755.4749601,-20.5300006866455
755.4905851,-21.2700004577637
755.5062101,-22.0
755.5218351,-22.7099990844727
755.5374601,-23.3099994659424
755.5530851,-23.7099990844727
755.5687101,-23.8400001525879
755.5843351,-23.6399993896484
755.5999601,-23.0799999237061
755.6155851,-22.2099990844727
755.6312101,-20.9599990844727
755.6468351,-19.1000003814697
755.6624601,-16.2299995422363
755.6780851,-11.9099998474121
755.6937101,-5.94000005722046
755.7093351,1.38999998569489
755.7249601,9.38000011444092
755.7405851,17.2299995422363
755.7562101,24.3199996948242
755.7718351,30.1299991607666
755.7874601,34.3199996948242
755.8030851,36.8600006103516
755.8187101,37.9799995422363
755.8343351,38.0900001525879
755.8499601,37.6599998474121
755.8655851,36.9900016784668
755.8812101,35.8699989318848
755.8968351,33.8600006103516
755.9124601,30.7399997711182
755.9280851,26.7299995422363
755.9437101,22.3099994659424
755.9593351,18.0
755.9749601,14.0600004196167
755.9905851,10.3400001525879
756.0062101,6.57000017166138
756.0218351,2.5699999332428
756.0374601,-1.63999998569489
756.0530851,-5.88000011444092
756.0687101,-9.78999996185303
756.0843351,-13.1199998855591
756.0999601,-15.8900003433228
756.1155851,-18.25
756.1312101,-20.2900009155273
756.1468351,-21.9899997711182
756.1624601,-23.2600002288818
756.1780851,-24.0599994659424
756.1937101,-24.4400005340576
756.2093351,-24.5699996948242
756.2249601,-24.6100006103516
756.2405851,-24.5400009155273
756.2562101,-24.2800006866455
756.2718351,-23.7600002288818
756.2874601,-22.8199996948242
756.3030851,-21.0799999237061
756.3187101,-18.0699996948242
756.3343351,-13.3599996566772
756.3499601,-6.82000017166138
756.3655851,1.13999998569489
756.3812101,9.60999965667725
756.3968351,17.5400009155273
756.4124601,24.25
756.4280851,29.5
756.4437101,33.2200012207031
756.4593351,35.4099998474121
756.4749601,36.0400009155273
756.4905851,35.1599998474121
756.5062101,33.0
756.5218351,30.0200004577637
756.5374601,26.6900005340576
756.5530851,23.2399997711182
756.5687101,19.5100002288818
756.5843351,15.289999961853
756.5999601,10.5799999237061
756.6155851,5.57000017166138
756.6312101,0.550000011920929
756.6468351,-4.19000005722046
756.6624601,-8.46000003814697
756.6780851,-12.1999998092651
756.6937101,-15.3800001144409
756.7093351,-18.0300006866455
756.7249601,-20.2700004577637
756.7405851,-22.2800006866455
756.7562101,-24.1800003051758
756.7718351,-25.9599990844727
756.7874601,-27.4200000762939
756.8030851,-28.4400005340576
756.8187101,-29.1200008392334
756.8343351,-29.75
756.8499601,-30.4500007629395
756.8655851,-31.1299991607666
756.8812101,-31.5
756.8968351,-31.2000007629395
756.9124601,-29.9899997711182
756.9280851,-27.8799991607666
756.9437101,-25.0699996948242
756.9593351,-21.6499996185303
756.9749601,-17.4300003051758
756.9905851,-12.2600002288818
757.0062101,-6.15000009536743
757.0218351,0.930000007152557
757.0374601,8.84000015258789
757.0530851,16.7000007629395
757.0687101,23.1900005340576
757.0843351,27.3299999237061
757.0999601,29.0400009155273
757.1155851,29.0
757.1312101,27.9400005340576
757.1468351,26.2000007629395
757.1624601,23.7199993133545
757.1780851,20.2800006866455
757.1937101,15.7700004577637
757.2093351,10.3000001907349
757.2249601,4.34000015258789
757.2405851,-1.48000001907349
757.2562101,-6.71999979019165
757.2718351,-11.3000001907349
757.2874601,-15.3299999237061
757.3030851,-18.8500003814697
757.3187101,-21.7199993133545
757.3343351,-23.8600006103516
757.3499601,-25.25
757.3655851,-25.9400005340576
757.3812101,-26.0599994659424
757.3968351,-25.7999992370605
757.4124601,-25.2600002288818
757.4280851,-24.4500007629395
757.4437101,-23.4200000762939
757.4593351,-22.1900005340576
757.4749601,-20.7399997711182
757.4905851,-18.9500007629395
757.5062101,-16.8299999237061
757.5218351,-14.6099996566772
757.5374601,-12.4700002670288
757.5530851,-10.1999998092651
757.5687101,-7.17999982833862
757.5843351,-2.61999988555908
757.5999601,3.98000001907349
757.6155851,12.6199998855591
757.6312101,22.7900009155273
757.6468351,33.5099983215332
757.6624601,43.4799995422363
757.6780851,51.6599998474121
757.6937101,57.6199989318848
757.7093351,61.4000015258789
757.7249601,63.310001373291
757.7405851,63.7400016784668
757.7562101,63.0999984741211
757.7718351,61.6300010681152
757.7874601,59.3899993896484
757.8030851,56.4199981689453
757.8187101,52.7999992370605
757.8343351,48.6199989318848
757.8499601,43.9300003051758
757.8655851,38.7599983215332
757.8812101,33.2299995422363
757.8968351,27.6599998474121
757.9124601,22.3799991607666
757.9280851,17.5499992370605
757.9437101,13.1700000762939
757.9593351,9.11999988555908
757.9749601,5.34000015258789
757.9905851,1.89999997615814
758.0062101,-1.08000004291534
758.0218351,-3.60999989509583
758.0374601,-5.76999998092651
758.0530851,-7.80000019073486
758.0687101,-10.0100002288818
758.0843351,-12.460000038147
758.0999601,-14.9300003051758
758.1155851,-17.2000007629395
758.1312101,-19.1599998474121
758.1468351,-20.8099994659424
758.1624601,-22.0200004577637
758.1780851,-22.4699993133545
758.1937101,-21.5400009155273
758.2093351,-18.6000003814697
758.2249601,-13.5500001907349
758.2405851,-7.09999990463257
758.2562101,-0.509999990463257
758.2718351,4.90000009536743
758.2874601,8.18000030517578
758.3030851,8.81999969482422
758.3187101,6.8600001335144
758.3343351,2.98000001907349
758.3499601,-1.54999995231628
758.3655851,-5.61999988555908
758.3812101,-8.94999980926514
758.3968351,-12.0799999237061
758.4124601,-15.7299995422363
758.4280851,-20.3999996185303
758.4437101,-26.1100006103516
758.4593351,-32.2799987792969
758.4749601,-37.9799995422363
758.4905851,-42.3699989318848
758.5062101,-44.9700012207031
758.5218351,-45.8699989318848
758.5374601,-45.6399993896484
758.5530851,-45.0299987792969
758.5687101,-44.5699996948242
758.5843351,-44.4500007629395
758.5999601,-44.6699981689453
758.6155851,-45.310001373291
758.6312101,-46.6399993896484
758.6468351,-48.8199996948242
758.6624601,-51.5099983215332
758.6780851,-53.8899993896484
758.6937101,-54.9199981689453
758.7093351,-53.8199996948242
758.7249601,-50.4300003051758
758.7405851,-45.3199996948242
758.7562101,-39.5699996948242
758.7718351,-34.2400016784668
758.7874601,-29.6499996185303
758.8030851,-25.2000007629395
758.8187101,-19.9300003051758
758.8343351,-13.289999961853
758.8499601,-5.42000007629395
758.8655851,3.02999997138977
758.8812101,11.3100004196167
758.8968351,18.7600002288818
758.9124601,24.9699993133545
758.9280851,29.75
758.9437101,33.1100006103516
758.9593351,35.25
758.9749601,36.4099998474121
758.9905851,36.7000007629395
759.0062101,36.0299987792969
759.0218351,34.2900009155273
759.0374601,31.5699996948242
759.0530851,28.2999992370605
759.0687101,25.0200004577637
759.0843351,22.2099990844727
759.0999601,20.1700000762939
759.1155851,18.9599990844727
759.1312101,18.3099994659424
759.1468351,17.7900009155273
759.1624601,17.1299991607666
759.1780851,16.3799991607666
759.1937101,15.75
759.2093351,15.4300003051758
759.2249601,15.460000038147
759.2405851,15.7200002670288
759.2562101,16.0200004577637
759.2718351,16.1700000762939
759.2874601,16.2099990844727
759.3030851,16.3799991607666
759.3187101,16.8799991607666
759.3343351,17.7399997711182
759.3499601,18.8999996185303
759.3655851,20.3799991607666
759.3812101,22.3799991607666
759.3968351,25.3199996948242
759.4124601,29.7299995422363
759.4280851,35.810001373291
759.4437101,43.1599998474121
759.4593351,50.8400001525879
759.4749601,57.6699981689453
759.4905851,62.7000007629395
759.5062101,65.4899978637695
759.5218351,66.1800003051758
759.5374601,65.2699966430664
759.5530851,63.3300018310547
759.5687101,60.7999992370605
759.5843351,57.9300003051758
759.5999601,54.6800003051758
759.6155851,50.7900009155273
759.6312101,45.9799995422363
759.6468351,40.3499984741211
759.6624601,34.4000015258789
759.6780851,28.7600002288818
759.6937101,23.7700004577637
759.7093351,19.3700008392334
759.7249601,15.3299999237061
759.7405851,11.4200000762939
759.7562101,7.51000022888184
759.7718351,3.49000000953674
759.7874601,-0.519999980926514
759.8030851,-4.26999998092651
759.8187101,-7.53999996185303
759.8343351,-10.3800001144409
759.8499601,-12.9799995422363
759.8655851,-15.5299997329712
759.8812101,-18.0599994659424
759.8968351,-20.5400009155273
759.9124601,-22.9200000762939
759.9280851,-25.1700000762939
759.9437101,-27.2600002288818
759.9593351,-29.0
759.9749601,-29.9400005340576
759.9905851,-29.4699993133545
760.0062101,-27.1100006103516
760.0218351,-22.9599990844727
760.0374601,-17.7900009155273
760.0530851,-12.6400003433228
760.0687101,-8.22000026702881
760.0843351,-4.90000009536743
760.0999601,-2.88000011444092
760.1155851,-2.21000003814697
760.1312101,-2.72000002861023
760.1468351,-3.92000007629395
760.1624601,-5.32999992370605
760.1780851,-6.86999988555908
760.1937101,-8.72000026702881
760.2093351,-11.1700000762939
760.2249601,-14.3299999237061
760.2405851,-18.1000003814697
760.2562101,-22.1800003051758
760.2718351,-26.2000007629395
760.2874601,-29.7700004577637
760.3030851,-32.7799987792969
760.3187101,-35.3400001525879
760.3343351,-37.6100006103516
760.3499601,-39.6199989318848
760.3655851,-41.3400001525879
760.3812101,-42.7900009155273
760.3968351,-44.1199989318848
760.4124601,-45.4900016784668
760.4280851,-46.8800010681152
760.4437101,-48.1199989318848
760.4593351,-49.0299987792969
760.4749601,-49.4799995422363
760.4905851,-49.4599990844727
760.5062101,-49.0099983215332
760.5218351,-48.2200012207031
760.5374601,-47.1800003051758
760.5530851,-46.0099983215332
760.5687101,-44.8199996948242
760.5843351,-43.4099998474121
760.5999601,-41.1199989318848
760.6155851,-37.0099983215332
760.6312101,-30.5200004577637
760.6468351,-21.8600006103516
760.6624601,-12.0500001907349
760.6780851,-2.44000005722046
760.6937101,5.6399998664856
760.7093351,11.4700002670288
760.7249601,15.0299997329712
760.7405851,16.7700004577637
760.7562101,17.2900009155273
760.7718351,17.1800003051758
760.7874601,16.8199996948242
760.8030851,16.3400001525879
760.8187101,15.6000003814697
760.8343351,14.3299999237061
760.8499601,12.3699998855591
760.8655851,9.78999996185303
760.8812101,6.82999992370605
760.8968351,3.77999997138977
760.9124601,0.959999978542328
760.9280851,-1.33000004291534
760.9437101,-3.04999995231628
760.9593351,-4.44999980926514
760.9749601,-5.86999988555908
760.9905851,-7.53000020980835
761.0062101,-9.36999988555908
761.0218351,-11.210000038147
761.0374601,-12.8400001525879
761.0530851,-14.1700000762939
761.0687101,-15.3000001907349
761.0843351,-16.3799991607666
761.0999601,-17.3799991607666
761.1155851,-18.1000003814697
761.1312101,-18.3299999237061
761.1468351,-18.1000003814697
761.1624601,-17.5799999237061
761.1780851,-16.8500003814697
761.1937101,-15.4300003051758
761.2093351,-12.3599996566772
761.2249601,-6.86999988555908
761.2405851,1.11000001430511
761.2562101,10.7600002288818
761.2718351,20.6499996185303
761.2874601,29.3799991607666
761.3030851,36.1500015258789
761.3187101,40.8300018310547
761.3343351,43.689998626709
761.3499601,45.1399993896484
761.3655851,45.6399993896484
761.3812101,45.6100006103516
761.3968351,45.2599983215332
761.4124601,44.4599990844727
761.4280851,42.7700004577637
761.4437101,39.9099998474121
761.4593351,36.0699996948242
761.4749601,31.8199996948242
761.4905851,27.6800003051758
761.5062101,23.9300003051758
761.5218351,20.6200008392334
761.5374601,17.6200008392334
761.5530851,14.6499996185303
761.5687101,11.4399995803833
761.5843351,7.94999980926514
761.5999601,4.42999982833862
761.6155851,1.22000002861023
761.6312101,-1.48000001907349
761.6468351,-3.75
761.6624601,-5.78000020980835
761.6780851,-7.71000003814697
761.6937101,-9.60999965667725
761.7093351,-11.460000038147
761.7249601,-13.1800003051758
761.7405851,-14.7200002670288
761.7562101,-16.1000003814697
761.7718351,-17.2700004577637
761.7874601,-17.9099998474121
761.8030851,-17.3099994659424
761.8187101,-14.6300001144409
761.8343351,-9.40999984741211
761.8499601,-1.92999994754791
761.8655851,6.73000001907349
761.8812101,15.1400003433228
761.8968351,22.1000003814697
761.9124601,27.1000003814697
761.9280851,30.25
761.9437101,31.9300003051758
761.9593351,32.5999984741211
761.9749601,32.6199989318848
761.9905851,32.1500015258789
762.0062101,31.1200008392334
762.0218351,29.1800003051758
762.0374601,26.0200004577637
762.0530851,21.6000003814697
762.0687101,16.2999992370605
762.0843351,10.6499996185303
762.0999601,5.07999992370605
762.1155851,-0.150000005960464
762.1312101,-4.96000003814697
762.1468351,-9.34000015258789
762.1624601,-13.3500003814697
762.1780851,-17.1000003814697
762.1937101,-20.7000007629395
762.2093351,-24.1200008392334
762.2249601,-27.2399997711182
762.2405851,-29.9400005340576
762.2562101,-32.2000007629395
762.2718351,-34.1199989318848
762.2874601,-35.8199996948242
762.3030851,-37.4799995422363
762.3187101,-39.1100006103516
762.3343351,-40.5499992370605
762.3499601,-41.5099983215332
762.3655851,-41.8600006103516
762.3812101,-41.5299987792969
762.3968351,-40.439998626709
762.4124601,-38.2400016784668
762.4280851,-34.3499984741211
762.4437101,-28.2000007629395
762.4593351,-19.7800006866455
762.4749601,-9.89000034332275
762.4905851,0.0700000002980232
762.5062101,8.75
762.5218351,15.3199996948242
762.5374601,19.7000007629395
762.5530851,22.3799991607666
762.5687101,24.0699996948242
762.5843351,25.3099994659424
762.5999601,26.2399997711182
762.6155851,26.6299991607666
762.6312101,26.0699996948242
762.6468351,24.2800006866455
762.6624601,21.2999992370605
762.6780851,17.4699993133545
762.6937101,13.3299999237061
762.7093351,9.4399995803833
762.7249601,6.15000009536743
762.7405851,3.5
762.7562101,1.33000004291534
762.7718351,-0.589999973773956
762.7874601,-2.52999997138977
762.8030851,-4.61999988555908
762.8187101,-6.84000015258789
762.8343351,-9.0
762.8499601,-10.8599996566772
762.8655851,-12.289999961853
762.8812101,-13.3500003814697
762.8968351,-14.25
762.9124601,-15.25
762.9280851,-16.4099998474121
762.9437101,-17.5799999237061
762.9593351,-18.5
762.9749601,-19.0100002288818
762.9905851,-19.0
763.0062101,-18.2000007629395
763.0218351,-16.0799999237061
763.0374601,-11.9300003051758
763.0530851,-5.40000009536743
763.0687101,3.13000011444092
763.0843351,12.539999961853
763.0999601,21.3400001525879
763.1155851,28.4799995422363
763.1312101,33.6100006103516
763.1468351,37.0800018310547
763.1624601,39.4300003051758
763.1780851,41.0499992370605
763.1937101,42.0299987792969
763.2093351,42.25
763.2249601,41.5299987792969
763.2405851,39.7299995422363
763.2562101,36.8699989318848
763.2718351,33.0699996948242
763.2874601,28.6399993896484
763.3030851,23.9799995422363
763.3187101,19.5
763.3343351,15.4899997711182
763.3499601,12.0299997329712
763.3655851,8.9399995803833
763.3812101,6.0
763.3968351,3.05999994277954
763.4124601,0.0700000002980232
763.4280851,-2.94000005722046
763.4437101,-5.90999984741211
763.4593351,-8.67000007629395
763.4749601,-11.0699996948242
763.4905851,-13.039999961853
763.5062101,-14.6000003814697
763.5218351,-15.8699998855591
763.5374601,-16.9500007629395
763.5530851,-17.9099998474121
763.5687101,-18.8400001525879
763.5843351,-19.8099994659424
763.5999601,-20.7199993133545
763.6155851,-21.3099994659424
763.6312101,-21.3299999237061
763.6468351,-20.6000003814697
763.6624601,-18.8400001525879
763.6780851,-15.7200002670288
763.6937101,-11.039999961853
763.7093351,-5.09999990463257
763.7249601,1.37999999523163
763.7405851,7.65000009536743
763.7562101,13.1300001144409
763.7718351,17.5400009155273
763.7874601,20.8600006103516
763.8030851,23.0900001525879
763.8187101,24.2999992370605
763.8343351,24.7600002288818
763.8499601,24.9300003051758
763.8655851,25.0499992370605
763.8812101,25.0100002288818
763.8968351,24.4799995422363
763.9124601,23.2099990844727
763.9280851,21.0400009155273
763.9437101,18.0200004577637
763.9593351,14.4300003051758
763.9749601,10.7600002288818
763.9905851,7.32999992370605
764.0062101,4.23000001907349
764.0218351,1.37999999523163
764.0374601,-1.33000004291534
764.0530851,-4.03999996185303
764.0687101,-6.82999992370605
764.0843351,-9.77000045776367
764.0999601,-12.8699998855591
764.1155851,-15.960000038147
764.1312101,-18.7000007629395
764.1468351,-20.7999992370605
764.1624601,-22.2700004577637
764.1780851,-23.4099998474121
764.1937101,-24.5900001525879
764.2093351,-25.9699993133545
764.2249601,-27.4300003051758
764.2405851,-28.7099990844727
764.2562101,-29.5599994659424
764.2718351,-29.7700004577637
764.2874601,-29.0900001525879
764.3030851,-27.25
764.3187101,-23.9699993133545
764.3343351,-19.2000007629395
764.3499601,-13.2799997329712
764.3655851,-7.03999996185303
764.3812101,-1.42999994754791
764.3968351,2.94000005722046
764.4124601,6.07999992370605
764.4280851,8.27999973297119
764.4437101,9.85999965667725
764.4593351,10.9899997711182
764.4749601,11.7399997711182
764.4905851,12.0600004196167
764.5062101,11.8500003814697
764.5218351,11.0200004577637
764.5374601,9.5600004196167
764.5530851,7.61999988555908
764.5687101,5.38000011444092
764.5843351,2.94000005722046
764.5999601,0.319999992847443
764.6155851,-2.4300000667572
764.6312101,-5.25
764.6468351,-7.96999979019165
764.6624601,-10.4399995803833
764.6780851,-12.5799999237061
764.6937101,-14.4300003051758
764.7093351,-16.0400009155273
764.7249601,-17.3899993896484
764.7405851,-18.3899993896484
764.7562101,-18.9699993133545
764.7718351,-19.1700000762939
764.7874601,-19.1200008392334
764.8030851,-18.9899997711182
764.8187101,-18.9400005340576
764.8343351,-19.0200004577637
764.8499601,-19.1700000762939
764.8655851,-19.1700000762939
764.8812101,-18.7299995422363
764.8968351,-17.5900001525879
764.9124601,-15.3999996185303
764.9280851,-11.789999961853
764.9437101,-6.69000005722046
764.9593351,-0.529999971389771
764.9749601,5.78000020980835
764.9905851,11.3500003814697
765.0062101,15.789999961853
765.0218351,19.2800006866455
765.0374601,22.25
765.0530851,25.0200004577637
765.0687101,27.6299991607666
765.0843351,29.7900009155273
765.0999601,31.0799999237061
765.1155851,31.1800003051758
765.1312101,30.1499996185303
765.1468351,28.4400005340576
765.1624601,26.5300006866455
765.1780851,24.6100006103516
765.1937101,22.6100006103516
765.2093351,20.3500003814697
765.2249601,17.6900005340576
765.2405851,14.6199998855591
765.2562101,11.3000001907349
765.2718351,8.0
765.2874601,4.94999980926514
765.3030851,2.24000000953674
765.3187101,-0.189999997615814
765.3343351,-2.54999995231628
765.3499601,-4.92999982833862
765.3655851,-7.30999994277954
765.3812101,-9.53999996185303
765.3968351,-11.4700002670288
765.4124601,-12.960000038147
765.4280851,-14.039999961853
765.4437101,-14.8999996185303
765.4593351,-15.6999998092651
765.4749601,-16.3899993896484
765.4905851,-16.6000003814697
765.5062101,-15.9300003051758
765.5218351,-14.0799999237061
765.5374601,-10.8800001144409
765.5530851,-6.38000011444092
765.5687101,-0.990000009536743
765.5843351,4.6399998664856
765.5999601,9.92000007629395
765.6155851,14.4200000762939
765.6312101,18.0200004577637
765.6468351,20.8199996948242
765.6624601,22.9799995422363
765.6780851,24.6599998474121
765.6937101,25.8299999237061
765.7093351,26.1700000762939
765.7249601,25.1700000762939
765.7405851,22.6399993896484
765.7562101,18.8700008392334
