Time(s),Value(%)
300.0056241,-13.6300001144409
300.0212491,-13.0200004577637
300.0368741,-13.75
300.0524991,-15.5900001525879
300.0681241,-18.3600006103516
300.0837491,-21.8700008392334
300.0993741,-25.7399997711182
300.1149991,-29.3899993896484
300.1306241,-32.1699981689453
300.1462491,-33.5499992370605
300.1618741,-33.3499984741211
300.1774991,-31.8299999237061
300.1931241,-29.5799999237061
300.2087491,-27.2800006866455
300.2243741,-25.2600002288818
300.2399991,-23.4400005340576
300.2556241,-21.5
300.2712491,-19.0900001525879
300.2868741,-15.539999961853
300.3024991,-9.72999954223633
300.3181241,-0.699999988079071
300.3337491,11.3999996185303
300.3493741,25.0599994659424
300.3649991,37.810001373291
300.3806241,47.0999984741211
300.3962491,51.4300003051758
300.4118741,51.0499992370605
300.4274991,47.6599998474121
300.4431241,43.2200012207031
300.4587491,38.8400001525879
300.4743741,34.2700004577637
300.4899991,28.5799999237061
300.5056241,21.2000007629395
300.5212491,12.5699996948242
300.5368741,3.77999997138977
300.5524991,-4.09000015258789
300.5681241,-10.4099998474121
300.5837491,-14.8900003433228
300.5993741,-17.6100006103516
300.6149991,-19.0900001525879
300.6306241,-20.0300006866455
300.6462491,-20.7999992370605
300.6618741,-21.3899993896484
300.6774991,-21.7600002288818
300.6931241,-22.0400009155273
300.7087491,-22.2800006866455
300.7243741,-22.3999996185303
300.7399991,-22.3700008392334
300.7556241,-22.2999992370605
300.7712491,-22.4799995422363
300.7868741,-23.1100006103516
300.8024991,-24.1299991607666
300.8181241,-25.2800006866455
300.8337491,-26.3199996948242
300.8493741,-27.1599998474121
300.8649991,-27.6200008392334
300.8806241,-27.2099990844727
300.8962491,-25.4400005340576
300.9118741,-22.0100002288818
300.9274991,-16.6399993896484
300.9431241,-8.85999965667725
300.9587491,1.58000004291534
300.9743741,14.0299997329712
300.9899991,26.9200000762939
301.0056241,38.6500015258789
301.0212491,47.9599990844727
301.0368741,53.7200012207031
301.0524991,55.2400016784668
301.0681241,52.7299995422363
301.0837491,47.4900016784668
301.0993741,41.2900009155273
301.1149991,35.310001373291
301.1306241,29.4200000762939
301.1462491,22.6900005340576
301.1618741,14.4499998092651
301.1774991,4.78000020980835
301.1931241,-5.48000001907349
301.2087491,-14.8400001525879
301.2243741,-21.5699996948242
301.2399991,-24.5900001525879
301.2556241,-24.2199993133545
301.2712491,-21.9799995422363
301.2868741,-19.8700008392334
301.3024991,-19.5300006866455
301.3181241,-21.4799995422363
301.3337491,-24.8299999237061
301.3493741,-27.9799995422363
301.3649991,-29.8899993896484
301.3806241,-30.4699993133545
301.3962491,-30.2399997711182
301.4118741,-29.7600002288818
301.4274991,-29.3099994659424
301.4431241,-29.0100002288818
301.4587491,-28.8899993896484
301.4743741,-28.9799995422363
301.4899991,-29.2099990844727
301.5056241,-29.3899993896484
301.5212491,-29.0599994659424
301.5368741,-27.5499992370605
301.5524991,-24.0699996948242
301.5681241,-17.9200000762939
301.5837491,-8.39000034332275
301.5993741,4.73000001907349
301.6149991,20.5300006866455
301.6306241,36.9000015258789
301.6462491,51.2099990844727
301.6618741,61.1199989318848
301.6774991,65.4199981689453
301.6931241,64.4100036621094
301.7087491,59.5400009155273
301.7243741,52.3800010681152
301.7399991,44.2799987792969
301.7556241,36.1800003051758
301.7712491,28.3400001525879
301.7868741,20.4400005340576
301.8024991,12.2600002288818
301.8181241,4.15000009536743
301.8337491,-3.17000007629395
301.8493741,-9.19999980926514
301.8649991,-13.6800003051758
301.8806241,-16.7999992370605
301.8962491,-19.1299991607666
301.9118741,-21.3899993896484
301.9274991,-23.8799991607666
301.9431241,-26.3299999237061
301.9587491,-28.5200004577637
301.9743741,-30.6900005340576
301.9899991,-33.2400016784668
302.0056241,-35.9199981689453
302.0212491,-37.7599983215332
302.0368741,-37.8800010681152
302.0524991,-36.3400001525879
302.0681241,-33.7299995422363
302.0837491,-30.4200000762939
302.0993741,-26.4799995422363
302.1149991,-22.2600002288818
302.1306241,-18.5599994659424
302.1462491,-16.2700004577637
302.1618741,-15.6700000762939
302.1774991,-16.1900005340576
302.1931241,-16.5699996948242
302.2087491,-15.1099996566772
302.2243741,-10.0200004577637
302.2399991,-0.319999992847443
302.2556241,13.1899995803833
302.2712491,28.0300006866455
302.2868741,41.4000015258789
302.3024991,51.5699996948242
302.3181241,58.0699996948242
302.3337491,60.8199996948242
302.3493741,59.6599998474121
302.3649991,54.7900009155273
302.3806241,47.0
302.3962491,37.3199996948242
302.4118741,26.6100006103516
302.4274991,15.460000038147
302.4431241,4.51000022888184
302.4587491,-5.26999998092651
302.4743741,-12.6999998092651
302.4899991,-17.1299991607666
302.5056241,-18.8999996185303
302.5212491,-19.1299991607666
302.5368741,-18.8700008392334
302.5524991,-18.6599998474121
302.5681241,-18.6900005340576
302.5837491,-19.0100002288818
302.5993741,-19.7199993133545
302.6149991,-21.1100006103516
302.6306241,-23.4699993133545
302.6462491,-26.6200008392334
302.6618741,-29.5599994659424
302.6774991,-31.1100006103516
302.6931241,-30.7900009155273
302.7087491,-29.0599994659424
302.7243741,-26.8500003814697
302.7399991,-24.9400005340576
302.7556241,-23.5799999237061
302.7712491,-22.4200000762939
302.7868741,-20.8600006103516
302.8024991,-18.6599998474121
302.8181241,-15.9099998474121
302.8337491,-12.2799997329712
302.8493741,-6.67999982833862
302.8649991,2.1800000667572
302.8806241,14.4799995422363
302.8962491,28.4599990844727
302.9118741,41.2900009155273
302.9274991,50.7599983215332
302.9431241,56.4300003051758
302.9587491,59.2299995422363
302.9743741,60.2900009155273
302.9899991,60.2599983215332
303.0056241,59.1399993896484
303.0212491,56.5499992370605
303.0368741,51.9300003051758
303.0524991,44.9500007629395
303.0681241,35.810001373291
303.0837491,25.3600006103516
303.0993741,14.789999961853
303.1149991,5.32999992370605
303.1306241,-2.04999995231628
303.1462491,-6.88000011444092
303.1618741,-9.39999961853027
303.1774991,-10.4200000762939
303.1931241,-10.789999961853
303.2087491,-11.210000038147
303.2243741,-12.2299995422363
303.2399991,-14.0500001907349
303.2556241,-16.2600002288818
303.2712491,-18.1499996185303
303.2868741,-19.3199996948242
303.3024991,-19.9699993133545
303.3181241,-20.6100006103516
303.3337491,-21.4400005340576
303.3493741,-21.9099998474121
303.3649991,-21.0100002288818
303.3806241,-18.0900001525879
303.3962491,-13.5100002288818
303.4118741,-8.17000007629395
303.4274991,-2.54999995231628
303.4431241,3.85999989509583
303.4587491,12.3199996948242
303.4743741,24.0100002288818
303.4899991,39.2799987792969
303.5056241,57.2000007629395
303.5212491,75.6500015258789
303.5368741,92.0
303.5524991,103.98999786377
303.5681241,110.25
303.5837491,110.430000305176
303.5993741,105.040000915527
303.6149991,95.0199966430664
303.6306241,81.3499984741211
303.6462491,64.6100006103516
303.6618741,45.1100006103516
303.6774991,23.3899993896484
303.6931241,0.759999990463257
303.7087491,-20.8600006103516
303.7243741,-39.5999984741211
303.7399991,-54.189998626709
303.7556241,-64.4000015258789
303.7712491,-70.9100036621094
303.7868741,-74.75
303.8024991,-76.6800003051758
303.8181241,-77.0500030517578
303.8337491,-76.2200012207031
303.8493741,-74.8399963378906
303.8649991,-73.5999984741211
303.8806241,-72.8600006103516
303.8962491,-72.7099990844727
303.9118741,-73.5
303.9274991,-75.7099990844727
303.9431241,-79.3399963378906
303.9587491,-83.5199966430664
303.9743741,-86.9000015258789
303.9899991,-88.3499984741211
304.0056241,-87.3000030517578
304.0212491,-83.629997253418
304.0368741,-77.4000015258789
304.0524991,-68.629997253418
304.0681241,-57.2999992370605
304.0837491,-43.6100006103516
304.0993741,-28.3899993896484
304.1149991,-13.2799997329712
304.1306241,-0.270000010728836
304.1462491,8.85999965667725
304.1618741,13.3999996185303
304.1774991,13.9300003051758
304.1931241,11.9499998092651
304.2087491,9.0600004196167
304.2243741,6.28000020980835
304.2399991,3.69000005722046
304.2556241,0.639999985694885
304.2712491,-3.38000011444092
304.2868741,-8.03999996185303
304.3024991,-12.1800003051758
304.3181241,-14.7200002670288
304.3337491,-15.3800001144409
304.3493741,-14.6899995803833
304.3649991,-13.3699998855591
304.3806241,-11.8100004196167
304.3962491,-10.0799999237061
304.4118741,-8.05000019073486
304.4274991,-5.40999984741211
304.4431241,-1.9099999666214
304.4587491,2.32999992370605
304.4743741,6.61999988555908
304.4899991,10.1300001144409
304.5056241,12.3000001907349
304.5212491,12.9200000762939
304.5368741,11.9700002670288
304.5524991,9.39999961853027
304.5681241,5.34999990463257
304.5837491,0.519999980926514
304.5993741,-3.72000002861023
304.6149991,-5.86999988555908
304.6306241,-4.82000017166138
304.6462491,0.0799999982118607
304.6618741,9.44999980926514
304.6774991,23.3600006103516
304.6931241,40.5999984741211
304.7087491,58.4799995422363
304.7243741,74.0400009155273
304.7399991,85.2699966430664
304.7556241,91.5299987792969
304.7712491,93.2900009155273
304.7868741,91.6600036621094
304.8024991,87.6800003051758
304.8181241,81.9300003051758
304.8337491,74.4100036621094
304.8493741,64.9700012207031
304.8649991,53.7900009155273
304.8806241,41.6699981689453
304.8962491,29.8099994659424
304.9118741,19.2600002288818
304.9274991,10.6000003814697
304.9431241,3.97000002861023
304.9587491,-0.939999997615814
304.9743741,-4.75
304.9899991,-7.98000001907349
305.0056241,-10.8599996566772
305.0212491,-13.5699996948242
305.0368741,-16.4500007629395
305.0524991,-19.8099994659424
305.0681241,-23.3899993896484
305.0837491,-26.4300003051758
305.0993741,-28.3600006103516
305.1149991,-29.3700008392334
305.1306241,-30.0200004577637
305.1462491,-30.2999992370605
305.1618741,-29.5499992370605
305.1774991,-27.2999992370605
305.1931241,-24.1100006103516
305.2087491,-21.3600006103516
305.2243741,-20.2399997711182
305.2399991,-20.3799991607666
305.2556241,-19.2000007629395
305.2712491,-12.960000038147
305.2868741,0.819999992847443
305.3024991,21.3600006103516
305.3181241,44.5
305.3337491,64.7600021362305
305.3493741,78.1600036621094
305.3649991,83.9800033569336
305.3806241,84.1500015258789
305.3962491,81.2600021362305
305.4118741,77.0899963378906
305.4274991,72.2300033569336
305.4431241,66.1900024414063
305.4587491,57.6800003051758
305.4743741,45.7200012207031
305.4899991,31.0100002288818
305.5056241,16.0100002288818
305.5212491,3.42000007629395
305.5368741,-5.3600001335144
305.5524991,-10.5200004577637
305.5681241,-13.0699996948242
305.5837491,-14.1899995803833
305.5993741,-15.25
305.6149991,-17.7199993133545
305.6306241,-22.5300006866455
305.6462491,-29.2800006866455
305.6618741,-36.439998626709
305.6774991,-42.439998626709
305.6931241,-46.4900016784668
305.7087491,-48.5400009155273
305.7243741,-48.9700012207031
305.7399991,-48.3199996948242
305.7556241,-47.0900001525879
305.7712491,-45.5699996948242
305.7868741,-43.8300018310547
305.8024991,-41.8600006103516
305.8181241,-39.7200012207031
305.8337491,-37.4099998474121
305.8493741,-34.5299987792969
305.8649991,-29.7700004577637
305.8806241,-21.0799999237061
305.8962491,-7.03999996185303
305.9118741,11.5600004196167
305.9274991,31.6900005340576
305.9431241,49.7099990844727
305.9587491,63.0
305.9743741,70.629997253418
305.9899991,72.9800033569336
306.0056241,70.7900009155273
306.0212491,64.620002746582
306.0368741,55.0400009155273
306.0524991,43.0900001525879
306.0681241,30.1499996185303
306.0837491,17.4200000762939
306.0993741,5.73000001907349
306.1149991,-4.32000017166138
306.1306241,-12.1700000762939
306.1462491,-17.4400005340576
306.1618741,-20.3199996948242
306.1774991,-21.6599998474121
306.1931241,-22.7299995422363
306.2087491,-24.7000007629395
306.2243741,-28.1000003814697
306.2399991,-32.5900001525879
306.2556241,-37.2900009155273
306.2712491,-41.310001373291
306.2868741,-44.2599983215332
306.3024991,-46.2799987792969
306.3181241,-47.6100006103516
306.3337491,-48.0499992370605
306.3493741,-47.2799987792969
306.3649991,-45.5
306.3806241,-43.5999984741211
306.3962491,-42.6599998474121
306.4118741,-43.2900009155273
306.4274991,-44.9700012207031
306.4431241,-45.9500007629395
306.4587491,-43.6300010681152
306.4743741,-35.5400009155273
306.4899991,-20.6700000762939
306.5056241,-0.370000004768372
306.5212491,21.9500007629395
306.5368741,42.2299995422363
306.5524991,57.25
306.5681241,65.5599975585938
306.5837491,67.4599990844727
306.5993741,64.3099975585938
306.6149991,57.75
306.6306241,49.5
306.6462491,41.2599983215332
306.6618741,34.1599998474121
306.6774991,28.0900001525879
306.6931241,22.0599994659424
306.7087491,15.3199996948242
306.7243741,8.06999969482422
306.7399991,1.28999996185303
306.7556241,-4.03999996185303
306.7712491,-7.71999979019165
306.7868741,-10.4099998474121
306.8024991,-13.0900001525879
306.8181241,-16.5599994659424
306.8337491,-21.1900005340576
306.8493741,-26.9300003051758
306.8649991,-33.5099983215332
306.8806241,-40.560001373291
306.8962491,-47.6199989318848
306.9118741,-54.0200004577637
306.9274991,-59.0499992370605
306.9431241,-62.1699981689453
306.9587491,-63.1699981689453
306.9743741,-62.2000007629395
306.9899991,-59.7299995422363
307.0056241,-56.3400001525879
307.0212491,-52.2599983215332
307.0368741,-47.25
307.0524991,-40.7900009155273
307.0681241,-31.9699993133545
307.0837491,-19.5799999237061
307.0993741,-3.17000007629395
307.1149991,15.8699998855591
307.1306241,34.6300010681152
307.1462491,50.0
307.1618741,59.939998626709
307.1774991,64.0800018310547
307.1931241,63.4300003051758
307.2087491,59.6599998474121
307.2243741,54.439998626709
307.2399991,49.0099983215332
307.2556241,43.7000007629395
307.2712491,37.9199981689453
307.2868741,30.75
307.3024991,21.6599998474121
307.3181241,11.0900001525879
307.3337491,0.400000005960464
307.3493741,-8.6899995803833
307.3649991,-14.8599996566772
307.3806241,-17.8199996948242
307.3962491,-18.6000003814697
307.4118741,-18.8500003814697
307.4274991,-19.75
307.4431241,-21.5
307.4587491,-23.6000003814697
307.4743741,-25.3700008392334
307.4899991,-26.2999992370605
307.5056241,-26.3199996948242
307.5212491,-25.8099994659424
307.5368741,-25.25
307.5524991,-24.9699993133545
307.5681241,-25.2099990844727
307.5837491,-26.25
307.5993741,-28.1599998474121
307.6149991,-30.5100002288818
307.6306241,-32.3499984741211
307.6462491,-32.4000015258789
307.6618741,-29.0400009155273
307.6774991,-20.7000007629395
307.6931241,-6.75
307.7087491,11.539999961853
307.7243741,31.0699996948242
307.7399991,48.0200004577637
307.7556241,59.4799995422363
307.7712491,64.620002746582
307.7868741,64.4899978637695
307.8024991,61.0699996948242
307.8181241,56.1500015258789
307.8337491,51.0299987792969
307.8493741,46.5800018310547
307.8649991,43.1500015258789
307.8806241,40.1100006103516
307.8962491,35.75
307.9118741,28.3600006103516
307.9274991,17.75
307.9431241,5.73000001907349
307.9587491,-5.03999996185303
307.9743741,-12.6700000762939
307.9899991,-16.6599998474121
308.0056241,-17.7199993133545
308.0212491,-17.1299991607666
308.0368741,-16.2000007629395
308.0524991,-15.9099998474121
308.0681241,-16.6599998474121
308.0837491,-18.2600002288818
308.0993741,-20.1100006103516
308.1149991,-21.6499996185303
308.1306241,-22.5300006866455
308.1462491,-22.6800003051758
308.1618741,-22.0900001525879
308.1774991,-20.7700004577637
308.1931241,-18.8600006103516
308.2087491,-16.6100006103516
308.2243741,-14.289999961853
308.2399991,-12.2799997329712
308.2556241,-10.8800001144409
308.2712491,-9.55000019073486
308.2868741,-6.3899998664856
308.3024991,1.12999999523163
308.3181241,14.2600002288818
308.3337491,31.5400009155273
308.3493741,48.9599990844727
308.3649991,61.810001373291
308.3806241,67.370002746582
308.3962491,66.2099990844727
308.4118741,61.4300003051758
308.4274991,56.4700012207031
308.4431241,53.2999992370605
308.4587491,51.75
308.4743741,50.0099983215332
308.4899991,45.7400016784668
308.5056241,37.2700004577637
308.5212491,24.7099990844727
308.5368741,10.2200002670288
308.5524991,-2.85999989509583
308.5681241,-11.7700004577637
308.5837491,-15.5900001525879
308.5993741,-15.539999961853
308.6149991,-13.9799995422363
308.6306241,-13.1000003814697
308.6462491,-13.8800001144409
308.6618741,-16.0599994659424
308.6774991,-18.6599998474121
308.6931241,-20.5900001525879
308.7087491,-21.0100002288818
308.7243741,-19.4599990844727
308.7399991,-16.1700000762939
308.7556241,-12.1499996185303
308.7712491,-8.89000034332275
308.7868741,-7.63000011444092
308.8024991,-8.64999961853027
308.8181241,-11.3000001907349
308.8337491,-14.6599998474121
308.8493741,-18.0100002288818
308.8649991,-20.6599998474121
308.8806241,-21.4200000762939
308.8962491,-18.3799991607666
308.9118741,-9.60999965667725
308.9274991,5.09000015258789
308.9431241,23.1399993896484
308.9587491,40.0
308.9743741,51.75
308.9899991,57.0099983215332
309.0056241,56.7599983215332
309.0212491,52.8800010681152
309.0368741,46.9900016784668
309.0524991,40.4300003051758
309.0681241,34.5
309.0837491,30.1399993896484
309.0993741,27.1700000762939
309.1149991,24.1900005340576
309.1306241,19.3999996185303
309.1462491,11.8999996185303
309.1618741,2.35999989509583
309.1774991,-7.48000001907349
309.1931241,-15.6599998474121
309.2087491,-20.9699993133545
309.2243741,-23.3899993896484
309.2399991,-23.7999992370605
309.2556241,-23.5100002288818
309.2712491,-23.8299999237061
309.2868741,-25.4400005340576
309.3024991,-28.0200004577637
309.3181241,-30.6100006103516
309.3337491,-32.5
309.3493741,-33.5800018310547
309.3649991,-34.060001373291
309.3806241,-34.2900009155273
309.3962491,-34.6199989318848
309.4118741,-35.1300010681152
309.4274991,-35.7900009155273
309.4431241,-36.5900001525879
309.4587491,-37.5299987792969
309.4743741,-38.25
309.4899991,-37.4099998474121
309.5056241,-32.689998626709
309.5212491,-21.9799995422363
309.5368741,-5.44000005722046
309.5524991,13.5699996948242
309.5681241,30.1000003814697
309.5837491,40.2999992370605
309.5993741,43.2099990844727
309.6149991,40.4700012207031
309.6306241,34.9799995422363
309.6462491,29.6900005340576
309.6618741,26.5599994659424
309.6774991,25.9799995422363
309.6931241,26.8099994659424
309.7087491,27.1399993896484
309.7243741,25.3400001525879
309.7399991,20.7700004577637
309.7556241,13.9799995422363
309.7712491,6.42000007629395
309.7868741,-0.349999994039536
309.8024991,-5.67000007629395
309.8181241,-10.0200004577637
309.8337491,-14.4099998474121
309.8493741,-19.3700008392334
309.8649991,-24.6800003051758
309.8806241,-29.7999992370605
309.8962491,-34.3499984741211
309.9118741,-38.1699981689453
309.9274991,-40.9900016784668
309.9431241,-42.5800018310547
309.9587491,-43.2999992370605
309.9743741,-44.2599983215332
309.9899991,-46.5099983215332
310.0056241,-49.9599990844727
310.0212491,-53.0900001525879
310.0368741,-53.9900016784668
310.0524991,-51.4500007629395
310.0681241,-45.0400009155273
310.0837491,-34.6800003051758
310.0993741,-20.4899997711182
310.1149991,-3.22000002861023
310.1306241,15.2600002288818
310.1462491,32.2000007629395
310.1618741,44.9500007629395
310.1774991,52.1199989318848
310.1931241,53.8400001525879
310.2087491,51.2400016784668
310.2243741,45.5900001525879
310.2399991,37.9300003051758
310.2556241,28.9099998474121
310.2712491,19.0799999237061
310.2868741,9.10999965667725
310.3024991,-0.330000013113022
310.3181241,-8.82999992370605
310.3337491,-16.0900001525879
310.3493741,-21.6499996185303
310.3649991,-24.9300003051758
310.3806241,-25.7600002288818
310.3962491,-24.7199993133545
310.4118741,-22.9099998474121
310.4274991,-21.3899993896484
310.4431241,-20.8099994659424
310.4587491,-21.2399997711182
310.4743741,-22.4899997711182
310.4899991,-24.4799995422363
310.5056241,-27.0300006866455
310.5212491,-29.5599994659424
310.5368741,-31.2800006866455
310.5524991,-31.7299995422363
310.5681241,-30.9300003051758
310.5837491,-29.3400001525879
310.5993741,-27.5499992370605
310.6149991,-26.1299991607666
310.6306241,-25.4599990844727
310.6462491,-25.3600006103516
310.6618741,-24.5300006866455
310.6774991,-20.7299995422363
310.6931241,-12.0100002288818
310.7087491,2.01999998092651
310.7243741,19.6700000762939
