Time(s),Value(%)
300.0056241,7.19999980926514
300.0212491,16.1399993896484
300.0368741,24.6800003051758
300.0524991,32.4900016784668
300.0681241,39.2099990844727
300.0837491,44.5
300.0993741,48.0800018310547
300.1149991,49.7200012207031
300.1306241,49.3300018310547
300.1462491,46.9799995422363
300.1618741,42.9199981689453
300.1774991,37.5400009155273
300.1931241,31.2900009155273
300.2087491,24.6499996185303
300.2243741,18.0599994659424
300.2399991,11.8199996948242
300.2556241,6.09999990463257
300.2712491,1.02999997138977
300.2868741,-3.38000011444092
300.3024991,-7.25
300.3181241,-10.6899995803833
300.3337491,-13.8599996566772
300.3493741,-16.8500003814697
300.3649991,-19.6599998474121
300.3806241,-22.2099990844727
300.3962491,-24.4099998474121
300.4118741,-26.2299995422363
300.4274991,-27.7399997711182
300.4431241,-29.0400009155273
300.4587491,-30.1299991607666
300.4743741,-30.8400001525879
300.4899991,-30.9500007629395
300.5056241,-30.6000003814697
300.5212491,-30.2000007629395
300.5368741,-30.0100002288818
300.5524991,-29.8799991607666
300.5681241,-29.4099998474121
300.5837491,-28.1700000762939
300.5993741,-25.6700000762939
300.6149991,-21.3299999237061
300.6306241,-14.6499996185303
300.6462491,-5.69999980926514
300.6618741,4.84999990463257
300.6774991,15.960000038147
300.6931241,26.5400009155273
300.7087491,35.8199996948242
300.7243741,43.25
300.7399991,48.5400009155273
300.7556241,51.7200012207031
300.7712491,53.0200004577637
300.7868741,52.5299987792969
300.8024991,50.1599998474121
300.8181241,45.9599990844727
300.8337491,40.2299995422363
300.8493741,33.4500007629395
300.8649991,26.0900001525879
300.8806241,18.6100006103516
300.8962491,11.5100002288818
300.9118741,5.19000005722046
300.9274991,-0.239999994635582
300.9431241,-4.90000009536743
300.9587491,-8.97000026702881
300.9743741,-12.6999998092651
300.9899991,-16.2399997711182
301.0056241,-19.6700000762939
301.0212491,-23.0
301.0368741,-26.1599998474121
301.0524991,-28.9500007629395
301.0681241,-31.1800003051758
301.0837491,-32.7700004577637
301.0993741,-33.8499984741211
301.1149991,-34.6599998474121
301.1306241,-35.3499984741211
301.1462491,-35.8600006103516
301.1618741,-36.060001373291
301.1774991,-35.8600006103516
301.1931241,-35.2000007629395
301.2087491,-34.0099983215332
301.2243741,-32.1300010681152
301.2399991,-29.1200008392334
301.2556241,-24.1900005340576
301.2712491,-16.6599998474121
301.2868741,-6.6399998664856
301.3024991,4.96000003814697
301.3181241,16.9200000762939
301.3337491,28.1499996185303
301.3493741,37.9300003051758
301.3649991,45.8800010681152
301.3806241,51.7200012207031
301.3962491,55.1300010681152
301.4118741,55.8899993896484
301.4274991,53.9900016784668
301.4431241,49.7200012207031
301.4587491,43.5900001525879
301.4743741,36.2200012207031
301.4899991,28.2600002288818
301.5056241,20.2399997711182
301.5212491,12.5299997329712
301.5368741,5.32999992370605
301.5524991,-1.22000002861023
301.5681241,-6.96000003814697
301.5837491,-11.7600002288818
301.5993741,-15.7299995422363
301.6149991,-19.2000007629395
301.6306241,-22.4200000762939
301.6462491,-25.3700008392334
301.6618741,-27.9099998474121
301.6774991,-29.9500007629395
301.6931241,-31.5499992370605
301.7087491,-32.8199996948242
301.7243741,-33.7700004577637
301.7399991,-34.3400001525879
301.7556241,-34.560001373291
301.7712491,-34.560001373291
301.7868741,-34.3800010681152
301.8024991,-33.9799995422363
301.8181241,-33.310001373291
301.8337491,-32.3199996948242
301.8493741,-30.7299995422363
301.8649991,-27.9200000762939
301.8806241,-23.1100006103516
301.8962491,-15.7700004577637
301.9118741,-5.8899998664856
301.9274991,5.98000001907349
301.9431241,18.9500007629395
301.9587491,31.8199996948242
301.9743741,43.3800010681152
301.9899991,52.7099990844727
302.0056241,59.3499984741211
302.0212491,63.2299995422363
302.0368741,64.3099975585938
302.0524991,62.6500015258789
302.0681241,58.5200004577637
302.0837491,52.4500007629395
302.0993741,44.9900016784668
302.1149991,36.6500015258789
302.1306241,27.8299999237061
302.1462491,19.0200004577637
302.1618741,10.7799997329712
302.1774991,3.55999994277954
302.1931241,-2.48000001907349
302.2087491,-7.42999982833862
302.2243741,-11.539999961853
302.2399991,-15.039999961853
302.2556241,-18.1900005340576
302.2712491,-21.1499996185303
302.2868741,-23.9599990844727
302.3024991,-26.5499992370605
302.3181241,-28.8299999237061
302.3337491,-30.6700000762939
302.3493741,-32.0499992370605
302.3649991,-33.1100006103516
302.3806241,-33.9799995422363
302.3962491,-34.7200012207031
302.4118741,-35.2799987792969
302.4274991,-35.4799995422363
302.4431241,-35.1199989318848
302.4587491,-34.2200012207031
302.4743741,-32.8199996948242
302.4899991,-30.6900005340576
302.5056241,-27.1399993896484
302.5212491,-21.3500003814697
302.5368741,-12.7799997329712
302.5524991,-1.49000000953674
302.5681241,11.6999998092651
302.5837491,25.5300006866455
302.5993741,38.7200012207031
302.6149991,50.3800010681152
302.6306241,59.7799987792969
302.6462491,66.1800003051758
302.6618741,69.0800018310547
302.6774991,68.4899978637695
302.6931241,64.9300003051758
302.7087491,59.1100006103516
302.7243741,51.6800003051758
302.7399991,43.1100006103516
302.7556241,33.7900009155273
302.7712491,24.25
302.7868741,15.210000038147
302.8024991,7.26999998092651
302.8181241,0.610000014305115
302.8337491,-4.96000003814697
302.8493741,-9.75
302.8649991,-13.8599996566772
302.8806241,-17.3600006103516
302.8962491,-20.5
302.9118741,-23.5699996948242
302.9274991,-26.5799999237061
302.9431241,-29.3299999237061
302.9587491,-31.6100006103516
302.9743741,-33.3800010681152
302.9899991,-34.8400001525879
303.0056241,-36.1199989318848
303.0212491,-37.1300010681152
303.0368741,-37.6500015258789
303.0524991,-37.6399993896484
303.0681241,-37.2700004577637
303.0837491,-36.8499984741211
303.0993741,-36.5999984741211
303.1149991,-36.3300018310547
303.1306241,-34.9700012207031
303.1462491,-31.0100002288818
303.1618741,-23.3500003814697
303.1774991,-11.9499998092651
303.1931241,2.14000010490417
303.2087491,17.1399993896484
303.2243741,30.9799995422363
303.2399991,42.0099983215332
303.2556241,49.2700004577637
303.2712491,52.4900016784668
303.2868741,51.9500007629395
303.3024991,48.3800010681152
303.3181241,42.6399993896484
303.3337491,35.3899993896484
303.3493741,27.0699996948242
303.3649991,18.0400009155273
303.3806241,8.71000003814697
303.3962491,-0.330000013113022
303.4118741,-8.53999996185303
303.4274991,-15.5799999237061
303.4431241,-21.4300003051758
303.4587491,-26.2299995422363
303.4743741,-30.0900001525879
303.4899991,-33.0800018310547
303.5056241,-35.2700004577637
303.5212491,-36.75
303.5368741,-37.7999992370605
303.5524991,-38.7200012207031
303.5681241,-39.6399993896484
303.5837491,-40.4500007629395
303.5993741,-40.9099998474121
303.6149991,-40.8499984741211
303.6306241,-40.3600006103516
303.6462491,-39.6699981689453
303.6618741,-38.9500007629395
303.6774991,-38.1300010681152
303.6931241,-36.9799995422363
303.7087491,-35.2599983215332
303.7243741,-32.689998626709
303.7399991,-28.9200000762939
303.7556241,-23.2800006866455
303.7712491,-14.8800001144409
303.7868741,-3.19000005722046
303.8024991,11.2600002288818
303.8181241,27.0100002288818
303.8337491,42.1800003051758
303.8493741,55.2999992370605
303.8649991,65.620002746582
303.8806241,73.0599975585938
303.8962491,77.629997253418
303.9118741,79.1600036621094
303.9274991,77.4700012207031
303.9431241,72.6900024414063
303.9587491,65.2699966430664
303.9743741,55.7999992370605
303.9899991,45.0999984741211
304.0056241,34.3699989318848
304.0212491,24.8500003814697
304.0368741,17.0900001525879
304.0524991,10.8500003814697
304.0681241,5.40999984741211
304.0837491,0.170000001788139
304.0993741,-4.94000005722046
304.1149991,-9.31999969482422
304.1306241,-12.0900001525879
304.1462491,-12.6199998855591
304.1618741,-10.9300003051758
304.1774991,-7.90999984741211
304.1931241,-5.1100001335144
304.2087491,-3.95000004768372
304.2243741,-5.1100001335144
304.2399991,-8.3100004196167
304.2556241,-12.6099996566772
304.2712491,-16.7399997711182
304.2868741,-19.6499996185303
304.3024991,-20.9699993133545
304.3181241,-21.0100002288818
304.3337491,-20.3400001525879
304.3493741,-19.1100006103516
304.3649991,-16.9099998474121
304.3806241,-13.1599998474121
304.3962491,-7.55999994277954
304.4118741,-0.349999994039536
304.4274991,7.65000009536743
304.4431241,15.460000038147
304.4587491,22.3299999237061
304.4743741,27.9899997711182
304.4899991,32.3800010681152
304.5056241,35.2799987792969
304.5212491,36.2999992370605
304.5368741,35.1500015258789
304.5524991,31.7999992370605
304.5681241,26.5599994659424
304.5837491,19.8700008392334
304.5993741,12.210000038147
304.6149991,4.03999996185303
304.6306241,-4.07999992370605
304.6462491,-11.6999998092651
304.6618741,-18.5
304.6774991,-24.3199996948242
304.6931241,-29.1800003051758
304.7087491,-33.189998626709
304.7243741,-36.4700012207031
304.7399991,-39.0800018310547
304.7556241,-41.0800018310547
304.7712491,-42.5400009155273
304.7868741,-43.5699996948242
304.8024991,-44.1699981689453
304.8181241,-44.25
304.8337491,-43.7900009155273
304.8493741,-42.7799987792969
304.8649991,-41.25
304.8806241,-39.2700004577637
304.8962491,-36.9799995422363
304.9118741,-34.310001373291
304.9274991,-30.8099994659424
304.9431241,-25.9099998474121
304.9587491,-19.1100006103516
304.9743741,-10.25
304.9899991,0.300000011920929
305.0056241,11.6999998092651
305.0212491,22.9400005340576
305.0368741,33.2099990844727
305.0524991,41.9300003051758
305.0681241,48.6100006103516
305.0837491,53.0099983215332
305.0993741,55.1300010681152
305.1149991,55.2000007629395
305.1306241,53.4799995422363
305.1462491,50.2400016784668
305.1618741,45.7400016784668
305.1774991,40.3300018310547
305.1931241,34.3499984741211
305.2087491,28.2099990844727
305.2243741,22.3700008392334
305.2399991,17.2099990844727
305.2556241,12.8999996185303
305.2712491,9.39000034332275
305.2868741,6.44999980926514
305.3024991,3.79999995231628
305.3181241,1.14999997615814
305.3337491,-1.67999994754791
305.3493741,-4.71999979019165
305.3649991,-7.8600001335144
305.3806241,-11.0699996948242
305.3962491,-14.3100004196167
305.4118741,-17.3700008392334
305.4274991,-19.8999996185303
305.4431241,-21.6399993896484
305.4587491,-22.5200004577637
305.4743741,-22.6499996185303
305.4899991,-22.1800003051758
305.5056241,-21.1800003051758
305.5212491,-19.7000007629395
305.5368741,-17.5900001525879
305.5524991,-14.539999961853
305.5681241,-10.0799999237061
305.5837491,-3.97000002861023
305.5993741,3.4300000667572
305.6149991,11.3299999237061
305.6306241,18.7800006866455
305.6462491,25.1700000762939
305.6618741,30.2199993133545
305.6774991,33.8600006103516
305.6931241,36.1199989318848
305.7087491,37.0900001525879
305.7243741,36.9000015258789
305.7399991,35.7599983215332
305.7556241,33.7599983215332
305.7712491,31.0
305.7868741,27.6299991607666
305.8024991,24.0
305.8181241,20.6000003814697
305.8337491,17.8099994659424
305.8493741,15.6000003814697
305.8649991,13.6400003433228
305.8806241,11.5799999237061
305.8962491,9.3100004196167
305.9118741,6.8899998664856
305.9274991,4.40000009536743
305.9431241,1.75
305.9587491,-1.23000001907349
305.9743741,-4.78999996185303
305.9899991,-8.92000007629395
306.0056241,-13.210000038147
306.0212491,-17.0
306.0368741,-19.8500003814697
306.0524991,-21.8899993896484
306.0681241,-23.7600002288818
306.0837491,-26.0900001525879
306.0993741,-28.9799995422363
306.1149991,-32.0499992370605
306.1306241,-34.5
306.1462491,-35.439998626709
306.1618741,-34.3199996948242
306.1774991,-31.2399997711182
306.1931241,-26.7099990844727
306.2087491,-21.1100006103516
306.2243741,-14.6899995803833
306.2399991,-7.90000009536743
306.2556241,-1.55999994277954
306.2712491,3.75
306.2868741,8.0
306.3024991,11.3999996185303
306.3181241,13.9799995422363
306.3337491,15.6099996566772
306.3493741,16.2199993133545
306.3649991,15.9499998092651
306.3806241,14.8999996185303
306.3962491,13.039999961853
306.4118741,10.3999996185303
306.4274991,7.38000011444092
306.4431241,4.65000009536743
306.4587491,2.64000010490417
306.4743741,1.12999999523163
306.4899991,-0.629999995231628
306.5056241,-3.5
306.5212491,-7.59999990463257
306.5368741,-12.0900001525879
306.5524991,-16.1399993896484
306.5681241,-20.1299991607666
306.5837491,-25.0799999237061
306.5993741,-31.1000003814697
306.6149991,-37.2400016784668
306.6306241,-42.9099998474121
306.6462491,-48.2200012207031
306.6618741,-53.0400009155273
306.6774991,-56.3800010681152
306.6931241,-57.2700004577637
306.7087491,-55.7099990844727
306.7243741,-52.9300003051758
306.7399991,-50.6800003051758
306.7556241,-49.7099990844727
306.7712491,-48.7799987792969
306.7868741,-45.6199989318848
306.8024991,-38.75
306.8181241,-28.3600006103516
306.8337491,-16.0599994659424
306.8493741,-3.97000002861023
306.8649991,6.34999990463257
306.8806241,14.4399995803833
306.8962491,20.7700004577637
306.9118741,26.1499996185303
306.9274991,31.0
306.9431241,35.0699996948242
306.9587491,37.560001373291
306.9743741,37.6699981689453
306.9899991,35.2299995422363
307.0056241,31.0499992370605
307.0212491,26.5
307.0368741,22.6200008392334
307.0524991,19.5900001525879
307.0681241,17.0900001525879
307.0837491,14.8199996948242
307.0993741,12.6000003814697
307.1149991,10.3999996185303
307.1306241,8.27000045776367
307.1462491,6.46000003814697
307.1618741,5.32999992370605
307.1774991,5.05999994277954
307.1931241,5.3899998664856
307.2087491,5.84999990463257
307.2243741,6.05000019073486
307.2399991,5.82000017166138
307.2556241,5.26000022888184
307.2712491,4.69000005722046
307.2868741,4.53000020980835
307.3024991,4.90999984741211
307.3181241,5.53000020980835
307.3337491,5.92000007629395
307.3493741,6.1399998664856
307.3649991,6.98999977111816
307.3806241,9.46000003814697
307.3962491,14.1099996566772
307.4118741,20.6700000762939
307.4274991,28.1800003051758
307.4431241,35.4199981689453
307.4587491,41.2099990844727
307.4743741,44.7599983215332
307.4899991,45.810001373291
307.5056241,44.5900001525879
307.5212491,41.7400016784668
307.5368741,38.0299987792969
307.5524991,34.0699996948242
307.5681241,30.1399993896484
307.5837491,26.1900005340576
307.5993741,21.9200000762939
307.6149991,17.1100006103516
307.6306241,11.960000038147
307.6462491,6.94000005722046
307.6618741,2.33999991416931
307.6774991,-1.88999998569489
307.6931241,-5.92000007629395
307.7087491,-9.5600004196167
307.7243741,-12.460000038147
307.7399991,-14.5699996948242
307.7556241,-16.2399997711182
307.7712491,-17.9200000762939
307.7868741,-19.7299995422363
307.8024991,-21.4099998474121
307.8181241,-22.6000003814697
307.8337491,-23.1700000762939
307.8493741,-23.2199993133545
307.8649991,-22.8899993896484
307.8806241,-22.2600002288818
307.8962491,-21.4200000762939
307.9118741,-20.6200008392334
307.9274991,-20.1100006103516
307.9431241,-19.8600006103516
307.9587491,-19.5799999237061
307.9743741,-18.8099994659424
307.9899991,-17.0499992370605
308.0056241,-13.8400001525879
308.0212491,-9.03999996185303
308.0368741,-3.09999990463257
308.0524991,2.92000007629395
308.0681241,7.90999984741211
308.0837491,11.3299999237061
308.0993741,13.4099998474121
308.1149991,14.6999998092651
308.1306241,15.5900001525879
308.1462491,16.2000007629395
308.1618741,16.5100002288818
308.1774991,16.5599994659424
308.1931241,16.2900009155273
308.2087491,15.5900001525879
308.2243741,14.4499998092651
308.2399991,13.0
308.2556241,11.3900003433228
308.2712491,9.75
308.2868741,8.17000007629395
308.3024991,6.78000020980835
308.3181241,5.73999977111816
308.3337491,5.07000017166138
308.3493741,4.36999988555908
308.3649991,3.13000011444092
308.3806241,1.3400000333786
308.3962491,-0.569999992847443
308.4118741,-2.44000005722046
308.4274991,-4.65000009536743
308.4431241,-7.48000001907349
308.4587491,-10.5200004577637
308.4743741,-12.9700002670288
308.4899991,-14.4200000762939
308.5056241,-15.210000038147
308.5212491,-16.1700000762939
308.5368741,-17.7900009155273
308.5524991,-19.6700000762939
308.5681241,-20.7299995422363
308.5837491,-20.0799999237061
308.5993741,-17.5100002288818
308.6149991,-13.5
308.6306241,-8.72999954223633
308.6462491,-3.77999997138977
308.6618741,0.790000021457672
308.6774991,4.44000005722046
308.6931241,6.76999998092651
308.7087491,7.80000019073486
308.7243741,7.96999979019165
308.7399991,7.67999982833862
308.7556241,7.01999998092651
308.7712491,5.80999994277954
308.7868741,3.77999997138977
308.8024991,0.699999988079071
308.8181241,-3.45000004768372
308.8337491,-8.34000015258789
308.8493741,-13.039999961853
308.8649991,-16.5599994659424
308.8806241,-18.3999996185303
308.8962491,-18.8700008392334
308.9118741,-18.7900009155273
308.9274991,-18.9899997711182
308.9431241,-19.7900009155273
308.9587491,-20.9400005340576
308.9743741,-22.0499992370605
308.9899991,-22.8799991607666
309.0056241,-23.4699993133545
309.0212491,-23.9699993133545
309.0368741,-24.3799991607666
309.0524991,-24.5400009155273
309.0681241,-24.2399997711182
309.0837491,-23.4599990844727
309.0993741,-22.2800006866455
309.1149991,-20.8400001525879
309.1306241,-19.3400001525879
309.1462491,-17.9300003051758
309.1618741,-16.4799995422363
309.1774991,-14.4300003051758
309.1931241,-11.0
309.2087491,-5.6399998664856
309.2243741,1.61000001430511
309.2399991,10.0299997329712
309.2556241,18.6100006103516
309.2712491,26.3999996185303
309.2868741,32.5999984741211
309.3024991,36.6500015258789
309.3181241,38.4300003051758
309.3337491,38.4599990844727
309.3493741,37.6399993896484
309.3649991,36.6399993896484
309.3806241,35.6399993896484
309.3962491,34.310001373291
309.4118741,32.0
309.4274991,28.1399993896484
309.4431241,22.6900005340576
309.4587491,16.5300006866455
309.4743741,11.1599998474121
309.4899991,7.63000011444092
309.5056241,5.80000019073486
309.5212491,4.6100001335144
309.5368741,3.41000008583069
309.5524991,2.6800000667572
309.5681241,3.36999988555908
309.5837491,5.40000009536743
309.5993741,7.55000019073486
309.6149991,8.85000038146973
309.6306241,9.68000030517578
309.6462491,11.3599996566772
309.6618741,14.9099998474121
309.6774991,20.2800006866455
309.6931241,26.0699996948242
309.7087491,29.4599990844727
309.7243741,27.9099998474121
309.7399991,21.7700004577637
309.7556241,14.3299999237061
309.7712491,9.02999973297119
309.7868741,7.23999977111816
309.8024991,8.35999965667725
309.8181241,10.8100004196167
309.8337491,13.4099998474121
309.8493741,17.5
309.8649991,26.2999992370605
309.8806241,40.1399993896484
309.8962491,54.5099983215332
309.9118741,65.0199966430664
309.9274991,72.5400009155273
309.9431241,81.3300018310547
309.9587491,93.879997253418
309.9743741,109.129997253418
309.9899991,123.790000915527
310.0056241,133.919998168945
310.0212491,137.360000610352
310.0368741,135.639999389648
310.0524991,132.160003662109
310.0681241,128.139999389648
310.0837491,121.459999084473
310.0993741,109.089996337891
310.1149991,89.4499969482422
310.1306241,63.5800018310547
310.1462491,35.5099983215332
310.1618741,10.4499998092651
310.1774991,-8.85999965667725
310.1931241,-24.1399993896484
310.2087491,-40.0200004577637
310.2243741,-61.0900001525879
310.2399991,-89.6399993896484
310.2556241,-125.110000610352
310.2712491,-164.919998168945
310.2868741,-205.119995117188
310.3024991,-240.570007324219
310.3181241,-265.959991455078
310.3337491,-277.809997558594
310.3493741,-275.980010986328
310.3649991,-263.720001220703
310.3806241,-246.660003662109
310.3962491,-230.240005493164
310.4118741,-216.649993896484
310.4274991,-204.009994506836
310.4431241,-188.910003662109
310.4587491,-169.740005493164
310.4743741,-147.410003662109
310.4899991,-124.139999389648
310.5056241,-102.699996948242
310.5212491,-86.0199966430664
310.5368741,-76.4000015258789
310.5524991,-74.0199966430664
310.5681241,-76.4400024414063
310.5837491,-80.25
310.5993741,-83.6600036621094
310.6149991,-86.9499969482422
310.6306241,-90.7799987792969
310.6462491,-94.8499984741211
310.6618741,-97.7200012207031
310.6774991,-97.8899993896484
310.6931241,-94.879997253418
310.7087491,-88.9599990844727
310.7243741,-80.4599990844727
310.7399991,-69.7600021362305
310.7556241,-58.060001373291
310.7712491,-46.7000007629395
