Time(s),Value(%)
618.0066116,-0.140000000596046
618.0222366,-0.0299999993294477
618.0378616,1.22000002861023
618.0534866,3.3199999332428
618.0691116,5.80000019073486
618.0847366,8.27000045776367
618.1003616,10.5500001907349
618.1159866,12.9899997711182
618.1316116,16.5100002288818
618.1472366,21.9899997711182
618.1628616,29.5499992370605
618.1784866,38.3699989318848
618.1941116,47.0999984741211
618.2097366,54.5299987792969
618.2253616,60.0400009155273
618.2409866,63.2599983215332
618.2566116,63.5999984741211
618.2722366,60.3899993896484
618.2878616,53.4099998474121
618.3034866,43.4199981689453
618.3191116,31.9599990844727
618.3347366,20.7700004577637
618.3503616,11.0100002288818
618.3659866,2.96000003814697
618.3816116,-3.8199999332428
618.3972366,-10.3100004196167
618.4128616,-17.6499996185303
618.4284866,-26.6700000762939
618.4441116,-37.5099983215332
618.4597366,-50.0999984741211
618.4753616,-64.7099990844727
618.4909866,-81.6999969482422
618.5066116,-100.720001220703
618.5222366,-120.129997253418
618.5378616,-137.479995727539
618.5534866,-151.139999389648
618.5691116,-161.449996948242
618.5847366,-169.770004272461
618.6003616,-176.75
618.6159866,-181.899993896484
618.6316116,-184.550003051758
618.6472366,-184.660003662109
618.6628616,-182.940002441406
618.6784866,-180.520004272461
618.6941116,-178.529998779297
618.7097366,-177.639999389648
618.7253616,-177.880004882813
618.7409866,-178.850006103516
618.7566116,-180.080001831055
618.7722366,-181.289993286133
618.7878616,-182.149993896484
618.8034866,-181.800003051758
618.8191116,-178.710006713867
618.8347366,-171.619995117188
618.8503616,-160.669998168945
618.8659866,-147.289993286133
618.8816116,-133.240005493164
618.8972366,-119.790000915527
618.9128616,-107.48999786377
618.9284866,-96.3399963378906
618.9441116,-86.0
618.9597366,-75.9599990844727
618.9753616,-65.6800003051758
618.9909866,-54.9799995422363
619.0066116,-44.2000007629395
619.0222366,-33.9599990844727
619.0378616,-24.6399993896484
619.0534866,-16.1800003051758
619.0691116,-8.27999973297119
619.0847366,-0.600000023841858
619.1003616,6.98999977111816
619.1159866,14.3999996185303
619.1316116,21.3600006103516
619.1472366,27.5900001525879
619.1628616,32.9500007629395
619.1784866,37.2999992370605
619.1941116,40.2799987792969
619.2097366,41.5999984741211
619.2253616,41.3800010681152
619.2409866,40.4099998474121
619.2566116,39.8899993896484
619.2722366,40.6800003051758
619.2878616,42.8400001525879
619.3034866,45.8499984741211
619.3191116,49.4199981689453
619.3347366,53.6399993896484
619.3503616,58.6399993896484
619.3659866,64.2900009155273
619.3816116,70.2099990844727
619.3972366,75.9300003051758
619.4128616,81.0400009155273
619.4284866,85.3300018310547
619.4441116,88.8399963378906
619.4597366,91.6900024414063
619.4753616,94.0
619.4909866,95.8199996948242
619.5066116,97.2300033569336
619.5222366,98.5999984741211
619.5378616,100.519996643066
619.5534866,103.48999786377
619.5691116,107.529998779297
619.5847366,112.220001220703
619.6003616,117.029998779297
619.6159866,121.629997253418
619.6316116,125.889999389648
619.6472366,129.789993286133
619.6628616,133.339996337891
619.6784866,135.5
619.6941116,137.149993896484
619.7097366,138.179992675781
619.7253616,138.550003051758
619.7409866,138.339996337891
619.7566116,137.559997558594
619.7722366,136.259994506836
619.7878616,134.539993286133
619.8034866,132.649993896484
619.8191116,130.949996948242
619.8347366,129.630004882813
619.8503616,128.509994506836
619.8659866,127.220001220703
619.8816116,125.550003051758
619.8972366,123.589996337891
619.9128616,121.550003051758
619.9284866,119.610000610352
619.9441116,117.76000213623
619.9597366,115.75
619.9753616,113.089996337891
619.9909866,109.339996337891
620.0066116,104.410003662109
620.0222366,98.4300003051758
620.0378616,91.5400009155273
620.0534866,83.8199996948242
620.0691116,75.5400009155273
620.0847366,67.379997253418
620.1003616,60.3600006103516
620.1159866,55.2000007629395
620.1316116,51.7999992370605
620.1472366,49.5
620.1628616,47.7400016784668
620.1784866,46.3600006103516
620.1941116,45.4000015258789
620.2097366,44.8600006103516
620.2253616,44.5900001525879
620.2409866,44.439998626709
620.2566116,44.2999992370605
620.2722366,44.1199989318848
620.2878616,43.9099998474121
620.3034866,43.6100006103516
620.3191116,43.0499992370605
620.3347366,42.0900001525879
620.3503616,40.7400016784668
620.3659866,39.2099990844727
620.3816116,37.9500007629395
620.3972366,37.4099998474121
620.4128616,37.8400001525879
620.4284866,39.2099990844727
620.4441116,41.2700004577637
620.4597366,43.689998626709
620.4753616,46.1599998474121
620.4909866,48.4199981689453
620.5066116,50.2799987792969
620.5222366,51.5699996948242
620.5378616,52.0
620.5534866,51.3199996948242
620.5691116,49.5699996948242
620.5847366,47.0499992370605
620.6003616,44.1800003051758
620.6159866,41.3300018310547
620.6316116,38.6599998474121
620.6472366,36.189998626709
620.6628616,33.8400001525879
620.6784866,31.25
620.6941116,28.6900005340576
620.7097366,26.1100006103516
620.7253616,23.4599990844727
620.7409866,20.7099990844727
620.7566116,17.8799991607666
620.7722366,15.1300001144409
620.7878616,12.6700000762939
620.8034866,10.6599998474121
620.8191116,9.02000045776367
620.8347366,7.53999996185303
620.8503616,6.0
620.8659866,4.26999998092651
620.8816116,2.23000001907349
620.8972366,-0.159999996423721
620.9128616,-2.86999988555908
620.9284866,-5.71000003814697
620.9441116,-8.39999961853027
620.9597366,-10.6499996185303
620.9753616,-12.289999961853
620.9909866,-13.25
621.0066116,-13.539999961853
621.0222366,-13.2200002670288
621.0378616,-12.4099998474121
621.0534866,-11.2600002288818
621.0691116,-9.96000003814697
621.0847366,-8.77000045776367
621.1003616,-7.90999984741211
621.1159866,-7.57000017166138
621.1316116,-7.84000015258789
621.1472366,-8.69999980926514
621.1628616,-10.0699996948242
621.1784866,-11.8400001525879
621.1941116,-13.8599996566772
621.2097366,-15.9799995422363
621.2253616,-18.0699996948242
621.2409866,-20.1100006103516
621.2566116,-22.1499996185303
621.2722366,-24.2700004577637
621.2878616,-26.5200004577637
621.3034866,-28.9599990844727
621.3191116,-31.6900005340576
621.3347366,-34.7999992370605
621.3503616,-38.2400016784668
621.3659866,-41.7900009155273
621.3816116,-45.1199989318848
621.3972366,-48.0900001525879
621.4128616,-50.8600006103516
621.4284866,-53.7299995422363
621.4441116,-56.7700004577637
621.4597366,-59.7700004577637
621.4753616,-62.4599990844727
621.4909866,-64.6699981689453
621.5066116,-66.4700012207031
621.5222366,-68.1100006103516
621.5378616,-69.9800033569336
621.5534866,-72.3899993896484
621.5691116,-75.3899993896484
621.5847366,-78.7300033569336
621.6003616,-82.0899963378906
621.6159866,-85.1500015258789
621.6316116,-87.7799987792969
621.6472366,-89.9499969482422
621.6628616,-91.6800003051758
621.6784866,-92.2900009155273
621.6941116,-92.5899963378906
621.7097366,-92.6500015258789
621.7253616,-92.5199966430664
621.7409866,-92.2600021362305
621.7566116,-91.8600006103516
621.7722366,-91.0999984741211
621.7878616,-89.5599975585938
621.8034866,-86.879997253418
621.8191116,-83.1100006103516
621.8347366,-78.6500015258789
621.8503616,-74.1100006103516
621.8659866,-69.9599990844727
621.8816116,-66.4800033569336
621.8972366,-63.7000007629395
621.9128616,-61.4599990844727
621.9284866,-59.4900016784668
621.9441116,-57.5400009155273
621.9597366,-55.5999984741211
621.9753616,-53.9500007629395
621.9909866,-52.8699989318848
622.0066116,-52.4000015258789
622.0222366,-52.2900009155273
622.0378616,-52.1699981689453
622.0534866,-51.7900009155273
622.0691116,-51.1500015258789
622.0847366,-50.6599998474121
622.1003616,-51.0900001525879
622.1159866,-53.0900001525879
622.1316116,-56.8499984741211
622.1472366,-62.2099990844727
622.1628616,-69.1100006103516
622.1784866,-77.5599975585938
622.1941116,-87.1600036621094
622.2097366,-96.7600021362305
622.2253616,-104.709999084473
622.2409866,-109.819999694824
622.2566116,-112.220001220703
622.2722366,-112.860000610352
622.2878616,-112.389999389648
622.3034866,-110.819999694824
622.3191116,-108.0
622.3347366,-104.01000213623
622.3503616,-99.2399978637695
622.3659866,-94.1500015258789
622.3816116,-89.0500030517578
622.3972366,-84.0199966430664
622.4128616,-79.0400009155273
622.4284866,-74.1800003051758
622.4441116,-69.6800003051758
622.4597366,-65.7699966430664
622.4753616,-62.4799995422363
622.4909866,-59.4000015258789
622.5066116,-55.8199996948242
622.5222366,-51.1699981689453
622.5378616,-45.4900016784668
622.5534866,-39.2900009155273
622.5691116,-33.060001373291
622.5847366,-26.9799995422363
622.6003616,-21.0300006866455
622.6159866,-15.1300001144409
622.6316116,-9.26000022888184
622.6472366,-3.36999988555908
622.6628616,2.6800000667572
622.6784866,9.13000011444092
622.6941116,15.9700002670288
622.7097366,22.8899993896484
622.7253616,29.3400001525879
622.7409866,34.8300018310547
622.7566116,39.2099990844727
622.7722366,42.6800003051758
622.7878616,45.6500015258789
622.8034866,48.2400016784668
622.8191116,50.2000007629395
622.8347366,51.189998626709
622.8503616,51.2999992370605
622.8659866,51.060001373291
622.8816116,51.060001373291
622.8972366,51.6100006103516
622.9128616,52.6599998474121
622.9284866,53.9000015258789
622.9441116,54.9700012207031
622.9597366,55.5900001525879
622.9753616,55.689998626709
622.9909866,55.1800003051758
623.0066116,53.8400001525879
623.0222366,51.4300003051758
623.0378616,48.0400009155273
623.0534866,44.3600006103516
623.0691116,41.5299987792969
623.0847366,40.6199989318848
623.1003616,42.0699996948242
623.1159866,45.689998626709
623.1316116,51.0200004577637
623.1472366,57.5299987792969
623.1628616,64.6800003051758
623.1784866,71.9300003051758
623.1941116,78.9000015258789
623.2097366,85.5899963378906
623.2253616,92.4599990844727
623.2409866,100.040000915527
623.2566116,108.529998779297
623.2722366,117.769996643066
623.2878616,127.5
623.3034866,137.490005493164
623.3191116,147.419998168945
623.3347366,156.639999389648
623.3503616,164.210006713867
623.3659866,169.320007324219
623.3816116,171.800003051758
623.3972366,172.020004272461
623.4128616,170.529998779297
623.4284866,167.759994506836
623.4441116,164.070007324219
623.4597366,159.770004272461
623.4753616,155.149993896484
623.4909866,150.449996948242
623.5066116,145.839996337891
623.5222366,141.360000610352
623.5378616,137.020004272461
623.5534866,132.779998779297
623.5691116,128.619995117188
623.5847366,124.569999694824
623.6003616,120.620002746582
623.6159866,116.75
623.6316116,112.910003662109
623.6472366,109.169998168945
623.6628616,105.650001525879
623.6784866,102.959999084473
623.6941116,100.660003662109
623.7097366,98.7600021362305
623.7253616,97.3000030517578
623.7409866,96.3300018310547
623.7566116,95.7600021362305
623.7722366,95.2900009155273
623.7878616,94.5299987792969
623.8034866,93.3300018310547
623.8191116,91.9800033569336
623.8347366,90.9199981689453
623.8503616,90.2600021362305
623.8659866,89.6500015258789
623.8816116,88.6600036621094
623.8972366,87.0299987792969
623.9128616,84.7799987792969
623.9284866,82.1600036621094
623.9441116,79.5
623.9597366,77.0299987792969
623.9753616,74.8099975585938
623.9909866,72.75
624.0066116,70.6900024414063
624.0222366,68.5299987792969
624.0378616,66.1399993896484
624.0534866,63.25
624.0691116,59.3199996948242
624.0847366,53.8199996948242
624.1003616,46.5900001525879
624.1159866,37.9799995422363
624.1316116,28.6499996185303
624.1472366,19.2700004577637
624.1628616,10.3299999237061
624.1784866,1.98000001907349
624.1941116,-5.80999994277954
624.2097366,-13.3000001907349
624.2253616,-20.7099990844727
624.2409866,-28.2199993133545
624.2566116,-35.8699989318848
624.2722366,-43.6199989318848
624.2878616,-51.4900016784668
624.3034866,-59.5099983215332
624.3191116,-67.6100006103516
624.3347366,-75.5100021362305
624.3503616,-82.75
624.3659866,-89.0400009155273
624.3816116,-94.4300003051758
624.3972366,-99.2200012207031
624.4128616,-103.580001831055
624.4284866,-107.5
624.4441116,-110.889999389648
624.4597366,-113.73999786377
624.4753616,-116.139999389648
624.4909866,-118.23999786377
624.5066116,-120.139999389648
624.5222366,-121.919998168945
624.5378616,-123.580001831055
624.5534866,-125.059997558594
624.5691116,-126.309997558594
624.5847366,-127.25
624.6003616,-127.879997253418
624.6159866,-128.130004882813
624.6316116,-127.900001525879
624.6472366,-127.110000610352
624.6628616,-125.860000610352
624.6784866,-124.110000610352
624.6941116,-122.5
624.7097366,-121.169998168945
624.7253616,-120.110000610352
624.7409866,-119.199996948242
624.7566116,-118.279998779297
624.7722366,-117.330001831055
624.7878616,-116.459999084473
624.8034866,-115.830001831055
624.8191116,-115.48999786377
624.8347366,-115.440002441406
624.8503616,-115.599998474121
624.8659866,-115.919998168945
624.8816116,-116.300003051758
624.8972366,-116.529998779297
624.9128616,-116.279998779297
624.9284866,-115.430000305176
624.9441116,-114.220001220703
624.9597366,-113.040000915527
624.9753616,-112.150001525879
624.9909866,-111.470001220703
625.0066116,-110.769996643066
625.0222366,-109.830001831055
625.0378616,-108.599998474121
625.0534866,-107.199996948242
625.0691116,-105.919998168945
625.0847366,-105.019996643066
625.1003616,-104.589996337891
625.1159866,-104.610000610352
625.1316116,-105.089996337891
625.1472366,-106.050003051758
625.1628616,-107.349998474121
625.1784866,-108.529998779297
625.1941116,-108.830001831055
625.2097366,-107.519996643066
625.2253616,-104.269996643066
625.2409866,-99.2099990844727
625.2566116,-92.7399978637695
625.2722366,-85.3399963378906
625.2878616,-77.5199966430664
625.3034866,-69.7200012207031
625.3191116,-62.2000007629395
625.3347366,-54.9900016784668
625.3503616,-47.9000015258789
625.3659866,-40.6800003051758
625.3816116,-33.25
625.3972366,-25.7299995422363
625.4128616,-18.3999996185303
625.4284866,-11.5100002288818
625.4441116,-5.21000003814697
625.4597366,0.340000003576279
625.4753616,4.94000005722046
625.4909866,8.52999973297119
625.5066116,11.4099998474121
625.5222366,14.1800003051758
625.5378616,17.3099994659424
625.5534866,21.0
625.5691116,25.0799999237061
625.5847366,29.2099990844727
625.6003616,33.1199989318848
625.6159866,36.6100006103516
625.6316116,39.6599998474121
625.6472366,42.310001373291
625.6628616,44.6500015258789
625.6784866,46.310001373291
625.6941116,47.7099990844727
625.7097366,48.8300018310547
625.7253616,49.6399993896484
625.7409866,50.0800018310547
625.7566116,50.0099983215332
625.7722366,49.2999992370605
625.7878616,47.9599990844727
625.8034866,46.1699981689453
625.8191116,44.2799987792969
625.8347366,42.6199989318848
625.8503616,41.4000015258789
625.8659866,40.6500015258789
625.8816116,40.2599983215332
625.8972366,40.0499992370605
625.9128616,39.9199981689453
625.9284866,39.9000015258789
625.9441116,40.1800003051758
625.9597366,40.8899993896484
625.9753616,41.9799995422363
625.9909866,43.2400016784668
626.0066116,44.4099998474121
626.0222366,45.310001373291
626.0378616,45.9199981689453
626.0534866,46.2099990844727
626.0691116,46.0999984741211
626.0847366,45.5
626.1003616,44.4199981689453
626.1159866,42.9599990844727
626.1316116,41.2900009155273
626.1472366,39.5
626.1628616,37.6800003051758
626.1784866,35.8899993896484
626.1941116,34.1399993896484
626.2097366,32.3899993896484
626.2253616,30.5300006866455
626.2409866,28.5
626.2566116,26.3600006103516
626.2722366,24.2399997711182
626.2878616,22.2900009155273
626.3034866,20.5799999237061
626.3191116,19.0699996948242
626.3347366,17.6499996185303
626.3503616,16.1700000762939
626.3659866,14.5100002288818
626.3816116,12.6599998474121
626.3972366,10.6999998092651
626.4128616,8.76000022888184
626.4284866,6.94000005722046
626.4441116,5.28999996185303
626.4597366,3.91000008583069
626.4753616,2.95000004768372
626.4909866,2.46000003814697
626.5066116,2.25
626.5222366,2.01999998092651
626.5378616,1.5
626.5534866,0.660000026226044
626.5691116,-0.379999995231628
626.5847366,-1.42999994754791
626.6003616,-2.36999988555908
626.6159866,-3.14000010490417
626.6316116,-3.77999997138977
626.6472366,-4.38000011444092
626.6628616,-4.98999977111816
626.6784866,-5.6100001335144
626.6941116,-6.21999979019165
626.7097366,-6.80000019073486
626.7253616,-7.30999994277954
626.7409866,-7.61999988555908
626.7566116,-7.55000019073486
626.7722366,-6.94999980926514
626.7878616,-5.84999990463257
626.8034866,-4.46999979019165
626.8191116,-3.0699999332428
626.8347366,-1.79999995231628
626.8503616,-0.720000028610229
626.8659866,0.209999993443489
626.8816116,1.05999994277954
626.8972366,1.79999995231628
626.9128616,2.26999998092651
626.9284866,2.32999992370605
626.9441116,1.88999998569489
626.9597366,0.899999976158142
626.9753616,-0.800000011920929
626.9909866,-3.35999989509583
627.0066116,-6.69000005722046
627.0222366,-10.3599996566772
627.0378616,-13.7799997329712
627.0534866,-16.6599998474121
627.0691116,-19.25
627.0847366,-22.0
627.1003616,-24.9799995422363
627.1159866,-27.7800006866455
627.1316116,-29.9300003051758
627.1472366,-31.25
627.1628616,-31.8500003814697
627.1784866,-32.0999984741211
627.1941116,-32.3800010681152
627.2097366,-32.9599990844727
627.2253616,-33.9199981689453
627.2409866,-35.3300018310547
627.2566116,-37.439998626709
627.2722366,-40.5
627.2878616,-44.4300003051758
627.3034866,-48.560001373291
627.3191116,-51.7900009155273
627.3347366,-53.2400016784668
627.3503616,-52.7900009155273
627.3659866,-50.8899993896484
627.3816116,-48.0099983215332
627.3972366,-44.3199996948242
627.4128616,-39.9599990844727
627.4284866,-35.1199989318848
627.4441116,-30.1100006103516
627.4597366,-25.2600002288818
627.4753616,-20.8400001525879
627.4909866,-16.9799995422363
627.5066116,-13.6700000762939
627.5222366,-10.8599996566772
627.5378616,-8.5600004196167
627.5534866,-6.82999992370605
627.5691116,-5.59999990463257
627.5847366,-4.55000019073486
627.6003616,-3.19000005722046
627.6159866,-1.13999998569489
627.6316116,1.52999997138977
627.6472366,4.51000022888184
627.6628616,7.55000019073486
627.6784866,10.7299995422363
627.6941116,14.0500001907349
627.7097366,17.5400009155273
627.7253616,21.1000003814697
627.7409866,24.4899997711182
627.7566116,27.3400001525879
627.7722366,29.3299999237061
627.7878616,30.3899993896484
627.8034866,30.5900001525879
627.8191116,29.9599990844727
627.8347366,28.5200004577637
627.8503616,26.4200000762939
627.8659866,24.2000007629395
627.8816116,22.6599998474121
627.8972366,22.3899993896484
627.9128616,23.3600006103516
627.9284866,25.0799999237061
627.9441116,27.1499996185303
627.9597366,29.4699993133545
627.9753616,32.0900001525879
627.9909866,35.0
628.0066116,38.060001373291
628.0222366,41.1300010681152
628.0378616,44.0900001525879
628.0534866,46.9199981689453
628.0691116,49.6199989318848
628.0847366,52.2200012207031
628.1003616,54.7000007629395
628.1159866,57.060001373291
628.1316116,59.310001373291
628.1472366,61.5299987792969
628.1628616,63.9599990844727
628.1784866,66.8600006103516
628.1941116,70.4400024414063
628.2097366,74.620002746582
628.2253616,79.1900024414063
628.2409866,83.9899978637695
628.2566116,89.1600036621094
628.2722366,94.9599990844727
628.2878616,101.430000305176
628.3034866,108.180000305176
628.3191116,114.660003662109
628.3347366,120.650001525879
628.3503616,126.620002746582
628.3659866,133.130004882813
628.3816116,140.110000610352
628.3972366,146.809997558594
628.4128616,152.429992675781
628.4284866,156.539993286133
628.4441116,159.380004882813
628.4597366,161.759994506836
628.4753616,164.899993896484
628.4909866,169.800003051758
628.5066116,176.660003662109
628.5222366,185.190002441406
628.5378616,195.139999389648
628.5534866,206.380004882813
628.5691116,218.389999389648
628.5847366,229.660003662109
628.6003616,237.889999389648
628.6159866,241.410003662109
628.6316116,240.479995727539
628.6472366,236.740005493164
628.6628616,231.600006103516
628.6784866,227.389999389648
628.6941116,221.929992675781
628.7097366,215.190002441406
628.7253616,207.449996948242
628.7409866,199.460006713867
628.7566116,192.279998779297
628.7722366,186.740005493164
628.7878616,183.089996337891
628.8034866,181.270004272461
