Time(s),Value(℃)
1310.012673,113.0
1310.028298,113.019996643066
1310.043923,113.050003051758
1310.059548,113.069999694824
1310.075173,113.089996337891
1310.090798,113.120002746582
1310.106423,113.139999389648
1310.122048,113.160003662109
1310.137673,113.190002441406
1310.153298,113.209999084473
1310.168923,113.230003356934
1310.184548,113.25
1310.200173,113.269996643066
1310.215798,113.300003051758
1310.231423,113.319999694824
1310.247048,113.339996337891
1310.262673,113.360000610352
1310.278298,113.379997253418
1310.293923,113.400001525879
1310.309548,113.419998168945
1310.325173,113.440002441406
1310.340798,113.470001220703
1310.356423,113.48999786377
1310.372048,113.51000213623
1310.387673,113.529998779297
1310.403298,113.550003051758
1310.418923,113.569999694824
1310.434548,113.589996337891
1310.450173,113.610000610352
1310.465798,113.629997253418
1310.481423,113.650001525879
1310.497048,113.660003662109
1310.512673,113.680000305176
1310.528298,113.699996948242
1310.543923,113.720001220703
1310.559548,113.73999786377
1310.575173,113.76000213623
1310.590798,113.779998779297
1310.606423,113.800003051758
1310.622048,113.809997558594
1310.637673,113.830001831055
1310.653298,113.849998474121
1310.668923,113.870002746582
1310.684548,113.889999389648
1310.700173,113.910003662109
1310.715798,113.919998168945
1310.731423,113.940002441406
1310.747048,113.959999084473
1310.762673,113.980003356934
1310.778298,114.0
1310.793923,114.019996643066
1310.809548,114.029998779297
1310.825173,114.050003051758
1310.840798,114.069999694824
1310.856423,114.089996337891
1310.872048,114.110000610352
1310.887673,114.129997253418
1310.903298,114.139999389648
1310.918923,114.160003662109
1310.934548,114.180000305176
1310.950173,114.199996948242
1310.965798,114.220001220703
1310.981423,114.230003356934
1310.997048,114.25
1311.012673,114.269996643066
1311.028298,114.290000915527
1311.043923,114.300003051758
1311.059548,114.319999694824
1311.075173,114.339996337891
1311.090798,114.349998474121
1311.106423,114.370002746582
1311.122048,114.389999389648
1311.137673,114.400001525879
1311.153298,114.419998168945
1311.168923,114.440002441406
1311.184548,114.459999084473
1311.200173,114.480003356934
1311.215798,114.48999786377
1311.231423,114.51000213623
1311.247048,114.529998779297
1311.262673,114.550003051758
1311.278298,114.569999694824
1311.293923,114.589996337891
1311.309548,114.610000610352
1311.325173,114.629997253418
1311.340798,114.639999389648
1311.356423,114.660003662109
1311.372048,114.680000305176
1311.387673,114.699996948242
1311.403298,114.720001220703
1311.418923,114.73999786377
1311.434548,114.75
1311.450173,114.769996643066
1311.465798,114.790000915527
1311.481423,114.809997558594
1311.497048,114.830001831055
1311.512673,114.849998474121
1311.528298,114.870002746582
1311.543923,114.889999389648
1311.559548,114.910003662109
1311.575173,114.930000305176
1311.590798,114.949996948242
1311.606423,114.970001220703
1311.622048,114.98999786377
1311.637673,115.01000213623
1311.653298,115.029998779297
1311.668923,115.050003051758
1311.684548,115.069999694824
1311.700173,115.089996337891
1311.715798,115.110000610352
1311.731423,115.139999389648
1311.747048,115.160003662109
1311.762673,115.180000305176
1311.778298,115.199996948242
1311.793923,115.220001220703
1311.809548,115.23999786377
1311.825173,115.26000213623
1311.840798,115.290000915527
1311.856423,115.309997558594
1311.872048,115.330001831055
1311.887673,115.349998474121
1311.903298,115.370002746582
1311.918923,115.389999389648
1311.934548,115.419998168945
1311.950173,115.440002441406
1311.965798,115.459999084473
1311.981423,115.480003356934
1311.997048,115.51000213623
1312.012673,115.529998779297
1312.028298,115.550003051758
1312.043923,115.580001831055
1312.059548,115.599998474121
1312.075173,115.620002746582
1312.090798,115.639999389648
1312.106423,115.669998168945
1312.122048,115.690002441406
1312.137673,115.709999084473
1312.153298,115.730003356934
1312.168923,115.76000213623
1312.184548,115.779998779297
1312.200173,115.800003051758
1312.215798,115.819999694824
1312.231423,115.849998474121
1312.247048,115.870002746582
1312.262673,115.889999389648
1312.278298,115.910003662109
1312.293923,115.930000305176
1312.309548,115.949996948242
1312.325173,115.970001220703
1312.340798,116.0
1312.356423,116.019996643066
1312.372048,116.040000915527
1312.387673,116.059997558594
1312.403298,116.080001831055
1312.418923,116.099998474121
1312.434548,116.120002746582
1312.450173,116.139999389648
1312.465798,116.160003662109
1312.481423,116.180000305176
1312.497048,116.190002441406
1312.512673,116.209999084473
1312.528298,116.230003356934
1312.543923,116.25
1312.559548,116.269996643066
1312.575173,116.279998779297
1312.590798,116.300003051758
1312.606423,116.319999694824
1312.622048,116.339996337891
1312.637673,116.349998474121
1312.653298,116.370002746582
1312.668923,116.389999389648
1312.684548,116.400001525879
1312.700173,116.419998168945
1312.715798,116.430000305176
1312.731423,116.449996948242
1312.747048,116.459999084473
1312.762673,116.480003356934
1312.778298,116.48999786377
1312.793923,116.51000213623
1312.809548,116.519996643066
1312.825173,116.540000915527
1312.840798,116.550003051758
1312.856423,116.569999694824
1312.872048,116.580001831055
1312.887673,116.599998474121
1312.903298,116.610000610352
1312.918923,116.629997253418
1312.934548,116.639999389648
1312.950173,116.660003662109
1312.965798,116.669998168945
1312.981423,116.690002441406
1312.997048,116.699996948242
1313.012673,116.720001220703
1313.028298,116.730003356934
1313.043923,116.75
1313.059548,116.76000213623
1313.075173,116.779998779297
1313.090798,116.790000915527
1313.106423,116.809997558594
1313.122048,116.830001831055
1313.137673,116.839996337891
1313.153298,116.860000610352
1313.168923,116.870002746582
1313.184548,116.889999389648
1313.200173,116.900001525879
1313.215798,116.919998168945
1313.231423,116.940002441406
1313.247048,116.949996948242
1313.262673,116.970001220703
1313.278298,116.98999786377
1313.293923,117.0
1313.309548,117.019996643066
1313.325173,117.040000915527
1313.340798,117.050003051758
1313.356423,117.069999694824
1313.372048,117.089996337891
1313.387673,117.110000610352
1313.403298,117.120002746582
1313.418923,117.139999389648
1313.434548,117.160003662109
1313.450173,117.180000305176
1313.465798,117.190002441406
1313.481423,117.209999084473
1313.497048,117.230003356934
1313.512673,117.23999786377
1313.528298,117.26000213623
1313.543923,117.279998779297
1313.559548,117.290000915527
1313.575173,117.309997558594
1313.590798,117.330001831055
1313.606423,117.349998474121
1313.622048,117.370002746582
1313.637673,117.389999389648
1313.653298,117.400001525879
1313.668923,117.419998168945
1313.684548,117.440002441406
1313.700173,117.459999084473
1313.715798,117.480003356934
1313.731423,117.5
1313.747048,117.519996643066
1313.762673,117.540000915527
1313.778298,117.559997558594
1313.793923,117.580001831055
1313.809548,117.599998474121
1313.825173,117.620002746582
1313.840798,117.629997253418
1313.856423,117.650001525879
1313.872048,117.669998168945
1313.887673,117.690002441406
1313.903298,117.709999084473
1313.918923,117.730003356934
1313.934548,117.75
1313.950173,117.76000213623
1313.965798,117.779998779297
1313.981423,117.800003051758
1313.997048,117.819999694824
1314.012673,117.839996337891
1314.028298,117.860000610352
1314.043923,117.870002746582
1314.059548,117.889999389648
1314.075173,117.910003662109
1314.090798,117.930000305176
1314.106423,117.949996948242
1314.122048,117.970001220703
1314.137673,117.98999786377
1314.153298,118.0
1314.168923,118.019996643066
1314.184548,118.040000915527
1314.200173,118.059997558594
1314.215798,118.069999694824
1314.231423,118.089996337891
1314.247048,118.110000610352
1314.262673,118.129997253418
1314.278298,118.139999389648
1314.293923,118.160003662109
1314.309548,118.180000305176
1314.325173,118.199996948242
1314.340798,118.220001220703
1314.356423,118.23999786377
1314.372048,118.269996643066
1314.387673,118.290000915527
1314.403298,118.319999694824
1314.418923,118.339996337891
1314.434548,118.370002746582
1314.450173,118.389999389648
1314.465798,118.419998168945
1314.481423,118.449996948242
1314.497048,118.470001220703
1314.512673,118.5
1314.528298,118.529998779297
1314.543923,118.559997558594
1314.559548,118.589996337891
1314.575173,118.610000610352
1314.590798,118.639999389648
1314.606423,118.669998168945
1314.622048,118.699996948242
1314.637673,118.730003356934
1314.653298,118.75
1314.668923,118.779998779297
1314.684548,118.809997558594
1314.700173,118.830001831055
1314.715798,118.860000610352
1314.731423,118.889999389648
1314.747048,118.919998168945
1314.762673,118.940002441406
1314.778298,118.970001220703
1314.793923,119.0
1314.809548,119.029998779297
1314.825173,119.050003051758
1314.840798,119.080001831055
1314.856423,119.110000610352
1314.872048,119.129997253418
1314.887673,119.160003662109
1314.903298,119.190002441406
1314.918923,119.209999084473
1314.934548,119.23999786377
1314.950173,119.269996643066
1314.965798,119.290000915527
1314.981423,119.319999694824
1314.997048,119.339996337891
1315.012673,119.370002746582
1315.028298,119.389999389648
1315.043923,119.419998168945
1315.059548,119.440002441406
1315.075173,119.470001220703
1315.090798,119.48999786377
1315.106423,119.519996643066
1315.122048,119.550003051758
1315.137673,119.569999694824
1315.153298,119.599998474121
1315.168923,119.620002746582
1315.184548,119.650001525879
1315.200173,119.669998168945
1315.215798,119.699996948242
1315.231423,119.730003356934
1315.247048,119.75
1315.262673,119.779998779297
1315.278298,119.809997558594
1315.293923,119.830001831055
1315.309548,119.849998474121
1315.325173,119.879997253418
1315.340798,119.900001525879
1315.356423,119.919998168945
1315.372048,119.940002441406
1315.387673,119.959999084473
1315.403298,119.980003356934
1315.418923,120.0
1315.434548,120.019996643066
1315.450173,120.040000915527
1315.465798,120.059997558594
1315.481423,120.080001831055
1315.497048,120.099998474121
1315.512673,120.120002746582
1315.528298,120.139999389648
1315.543923,120.160003662109
1315.559548,120.180000305176
1315.575173,120.199996948242
1315.590798,120.220001220703
1315.606423,120.23999786377
1315.622048,120.26000213623
1315.637673,120.279998779297
1315.653298,120.300003051758
1315.668923,120.309997558594
1315.684548,120.330001831055
1315.700173,120.349998474121
1315.715798,120.370002746582
1315.731423,120.389999389648
1315.747048,120.410003662109
1315.762673,120.430000305176
1315.778298,120.449996948242
1315.793923,120.470001220703
1315.809548,120.48999786377
1315.825173,120.51000213623
1315.840798,120.529998779297
1315.856423,120.550003051758
1315.872048,120.559997558594
1315.887673,120.580001831055
1315.903298,120.599998474121
1315.918923,120.620002746582
1315.934548,120.639999389648
1315.950173,120.660003662109
1315.965798,120.680000305176
1315.981423,120.690002441406
1315.997048,120.709999084473
1316.012673,120.730003356934
1316.028298,120.75
1316.043923,120.769996643066
1316.059548,120.790000915527
1316.075173,120.809997558594
1316.090798,120.830001831055
1316.106423,120.849998474121
1316.122048,120.870002746582
1316.137673,120.889999389648
1316.153298,120.900001525879
1316.168923,120.919998168945
1316.184548,120.940002441406
1316.200173,120.949996948242
1316.215798,120.970001220703
1316.231423,120.980003356934
1316.247048,120.98999786377
1316.262673,121.01000213623
1316.278298,121.019996643066
1316.293923,121.040000915527
1316.309548,121.050003051758
1316.325173,121.059997558594
1316.340798,121.080001831055
1316.356423,121.089996337891
1316.372048,121.110000610352
1316.387673,121.120002746582
1316.403298,121.129997253418
1316.418923,121.150001525879
1316.434548,121.160003662109
1316.450173,121.169998168945
1316.465798,121.190002441406
1316.481423,121.199996948242
1316.497048,121.209999084473
1316.512673,121.220001220703
1316.528298,121.23999786377
1316.543923,121.25
1316.559548,121.26000213623
1316.575173,121.279998779297
1316.590798,121.290000915527
1316.606423,121.309997558594
1316.622048,121.319999694824
1316.637673,121.330001831055
1316.653298,121.349998474121
1316.668923,121.360000610352
1316.684548,121.379997253418
1316.700173,121.389999389648
1316.715798,121.400001525879
1316.731423,121.419998168945
1316.747048,121.430000305176
1316.762673,121.449996948242
1316.778298,121.459999084473
1316.793923,121.480003356934
1316.809548,121.48999786377
1316.825173,121.51000213623
1316.840798,121.519996643066
1316.856423,121.540000915527
1316.872048,121.550003051758
1316.887673,121.569999694824
1316.903298,121.580001831055
1316.918923,121.599998474121
1316.934548,121.610000610352
1316.950173,121.629997253418
1316.965798,121.639999389648
1316.981423,121.660003662109
1316.997048,121.669998168945
1317.012673,121.690002441406
1317.028298,121.699996948242
1317.043923,121.720001220703
1317.059548,121.730003356934
1317.075173,121.75
1317.090798,121.76000213623
1317.106423,121.779998779297
1317.122048,121.790000915527
1317.137673,121.800003051758
1317.153298,121.819999694824
1317.168923,121.830001831055
1317.184548,121.849998474121
1317.200173,121.860000610352
1317.215798,121.879997253418
1317.231423,121.889999389648
1317.247048,121.900001525879
1317.262673,121.919998168945
1317.278298,121.930000305176
1317.293923,121.940002441406
1317.309548,121.959999084473
1317.325173,121.970001220703
1317.340798,121.98999786377
1317.356423,122.0
1317.372048,122.01000213623
1317.387673,122.019996643066
1317.403298,122.040000915527
1317.418923,122.050003051758
1317.434548,122.059997558594
1317.450173,122.080001831055
1317.465798,122.089996337891
1317.481423,122.099998474121
1317.497048,122.110000610352
1317.512673,122.120002746582
1317.528298,122.139999389648
1317.543923,122.150001525879
1317.559548,122.160003662109
1317.575173,122.169998168945
1317.590798,122.180000305176
1317.606423,122.190002441406
1317.622048,122.199996948242
1317.637673,122.209999084473
1317.653298,122.220001220703
1317.668923,122.230003356934
1317.684548,122.25
1317.700173,122.26000213623
1317.715798,122.269996643066
1317.731423,122.279998779297
1317.747048,122.290000915527
1317.762673,122.300003051758
1317.778298,122.309997558594
1317.793923,122.319999694824
1317.809548,122.330001831055
1317.825173,122.339996337891
1317.840798,122.349998474121
1317.856423,122.360000610352
1317.872048,122.379997253418
1317.887673,122.389999389648
1317.903298,122.400001525879
1317.918923,122.410003662109
1317.934548,122.419998168945
1317.950173,122.430000305176
1317.965798,122.440002441406
1317.981423,122.449996948242
1317.997048,122.459999084473
1318.012673,122.470001220703
1318.028298,122.480003356934
1318.043923,122.48999786377
1318.059548,122.5
1318.075173,122.51000213623
1318.090798,122.519996643066
1318.106423,122.529998779297
1318.122048,122.540000915527
1318.137673,122.550003051758
1318.153298,122.569999694824
1318.168923,122.580001831055
1318.184548,122.589996337891
1318.200173,122.599998474121
1318.215798,122.610000610352
1318.231423,122.620002746582
1318.247048,122.639999389648
1318.262673,122.650001525879
1318.278298,122.660003662109
1318.293923,122.669998168945
1318.309548,122.690002441406
1318.325173,122.699996948242
1318.340798,122.709999084473
1318.356423,122.730003356934
1318.372048,122.73999786377
1318.387673,122.75
1318.403298,122.76000213623
1318.418923,122.779998779297
1318.434548,122.790000915527
1318.450173,122.800003051758
1318.465798,122.809997558594
1318.481423,122.830001831055
1318.497048,122.839996337891
1318.512673,122.849998474121
1318.528298,122.860000610352
1318.543923,122.879997253418
1318.559548,122.889999389648
1318.575173,122.900001525879
1318.590798,122.910003662109
1318.606423,122.930000305176
1318.622048,122.940002441406
1318.637673,122.949996948242
1318.653298,122.959999084473
1318.668923,122.980003356934
1318.684548,122.98999786377
1318.700173,123.0
1318.715798,123.01000213623
1318.731423,123.019996643066
1318.747048,123.029998779297
1318.762673,123.040000915527
1318.778298,123.050003051758
1318.793923,123.069999694824
1318.809548,123.080001831055
1318.825173,123.089996337891
1318.840798,123.099998474121
1318.856423,123.110000610352
1318.872048,123.120002746582
1318.887673,123.129997253418
1318.903298,123.150001525879
1318.918923,123.160003662109
1318.934548,123.169998168945
1318.950173,123.180000305176
1318.965798,123.199996948242
1318.981423,123.209999084473
1318.997048,123.220001220703
1319.012673,123.23999786377
1319.028298,123.25
1319.043923,123.26000213623
1319.059548,123.269996643066
1319.075173,123.279998779297
1319.090798,123.300003051758
1319.106423,123.309997558594
1319.122048,123.319999694824
1319.137673,123.330001831055
1319.153298,123.339996337891
1319.168923,123.349998474121
1319.184548,123.360000610352
1319.200173,123.370002746582
1319.215798,123.389999389648
1319.231423,123.400001525879
1319.247048,123.410003662109
1319.262673,123.419998168945
1319.278298,123.430000305176
1319.293923,123.440002441406
1319.309548,123.459999084473
1319.325173,123.470001220703
1319.340798,123.480003356934
1319.356423,123.48999786377
1319.372048,123.5
1319.387673,123.51000213623
1319.403298,123.529998779297
1319.418923,123.540000915527
1319.434548,123.550003051758
1319.450173,123.559997558594
1319.465798,123.569999694824
1319.481423,123.580001831055
1319.497048,123.589996337891
1319.512673,123.610000610352
1319.528298,123.620002746582
1319.543923,123.629997253418
1319.559548,123.639999389648
1319.575173,123.650001525879
1319.590798,123.660003662109
1319.606423,123.680000305176
1319.622048,123.690002441406
1319.637673,123.699996948242
1319.653298,123.709999084473
1319.668923,123.720001220703
1319.684548,123.73999786377
1319.700173,123.75
1319.715798,123.76000213623
1319.731423,123.769996643066
1319.747048,123.779998779297
1319.762673,123.800003051758
1319.778298,123.809997558594
1319.793923,123.819999694824
1319.809548,123.830001831055
1319.825173,123.839996337891
1319.840798,123.860000610352
1319.856423,123.870002746582
1319.872048,123.879997253418
1319.887673,123.889999389648
1319.903298,123.900001525879
1319.918923,123.910003662109
1319.934548,123.930000305176
1319.950173,123.940002441406
1319.965798,123.949996948242
1319.981423,123.959999084473
1319.997048,123.970001220703
1320.012673,123.980003356934
1320.028298,123.98999786377
1320.043923,124.0
1320.059548,124.01000213623
1320.075173,124.019996643066
1320.090798,124.029998779297
1320.106423,124.040000915527
1320.122048,124.050003051758
1320.137673,124.059997558594
1320.153298,124.069999694824
1320.168923,124.080001831055
1320.184548,124.080001831055
1320.200173,124.089996337891
1320.215798,124.099998474121
1320.231423,124.110000610352
1320.247048,124.120002746582
1320.262673,124.129997253418
1320.278298,124.139999389648
1320.293923,124.160003662109
1320.309548,124.169998168945
1320.325173,124.180000305176
1320.340798,124.190002441406
1320.356423,124.199996948242
1320.372048,124.209999084473
1320.387673,124.220001220703
1320.403298,124.230003356934
1320.418923,124.23999786377
1320.434548,124.26000213623
1320.450173,124.269996643066
1320.465798,124.279998779297
1320.481423,124.290000915527
1320.497048,124.300003051758
1320.512673,124.309997558594
1320.528298,124.319999694824
1320.543923,124.330001831055
1320.559548,124.339996337891
1320.575173,124.349998474121
1320.590798,124.370002746582
1320.606423,124.379997253418
1320.622048,124.389999389648
1320.637673,124.400001525879
1320.653298,124.410003662109
1320.668923,124.419998168945
1320.684548,124.419998168945
1320.700173,124.430000305176
1320.715798,124.440002441406
1320.731423,124.449996948242
1320.747048,124.459999084473
1320.762673,124.470001220703
1320.778298,124.480003356934
1320.793923,124.48999786377
1320.809548,124.5
1320.825173,124.51000213623
1320.840798,124.51000213623
1320.856423,124.519996643066
1320.872048,124.529998779297
1320.887673,124.540000915527
1320.903298,124.550003051758
1320.918923,124.559997558594
1320.934548,124.569999694824
1320.950173,124.580001831055
