Time(s),Value(%)
0.028298,18.6000003814697
0.043923,13.3100004196167
0.059548,7.32000017166138
0.075173,1.48000001907349
0.090798,-3.15000009536743
0.106423,-5.98999977111816
0.122048,-7.17999982833862
0.137673,-7.51999998092651
0.153298,-7.96000003814697
0.168923,-9.0600004196167
0.184548,-10.7799997329712
0.200173,-12.6700000762939
0.215798,-14.1899995803833
0.231423,-14.8999996185303
0.247048,-14.6899995803833
0.262673,-13.8699998855591
0.278298,-12.9899997711182
0.293923,-12.6300001144409
0.309548,-13.1899995803833
0.325173,-14.8500003814697
0.340798,-17.4099998474121
0.356423,-20.3700008392334
0.372048,-23.0499992370605
0.387673,-24.7900009155273
0.403298,-25.0400009155273
0.418923,-23.6000003814697
0.434548,-20.9400005340576
0.450173,-18.2600002288818
0.465798,-16.8299999237061
0.481423,-17.0400009155273
0.497048,-17.8099994659424
0.512673,-17.1900005340576
0.528298,-13.6099996566772
0.543923,-6.73000001907349
0.559548,2.51999998092651
0.575173,12.4499998092651
0.590798,21.3400001525879
0.606423,27.9400005340576
0.622048,31.6800003051758
0.637673,32.939998626709
0.653298,32.810001373291
0.668923,32.2599983215332
0.684548,31.4699993133545
0.700173,29.8999996185303
0.715798,26.8500003814697
0.731423,22.0499992370605
0.747048,16.0799999237061
0.762673,10.039999961853
0.778298,5.0
0.793923,1.41999995708466
0.809548,-0.769999980926514
0.825173,-2.00999999046326
0.840798,-2.76999998092651
0.856423,-3.42000007629395
0.872048,-4.21999979019165
0.887673,-5.40999984741211
0.903298,-7.21000003814697
0.918923,-9.64999961853027
0.934548,-12.4499998092651
0.950173,-15.0699996948242
0.965798,-16.9400005340576
0.981423,-17.7399997711182
0.997048,-17.75
1.012673,-17.6299991607666
1.028298,-17.9099998474121
1.043923,-18.4400005340576
1.059548,-18.5100002288818
1.075173,-17.4899997711182
1.090798,-15.2299995422363
1.106423,-12.1999998092651
1.122048,-9.35999965667725
1.137673,-7.8600001335144
1.153298,-8.28999996185303
1.168923,-10.1999998092651
1.184548,-12.3199996948242
1.200173,-13.4099998474121
1.215798,-12.7799997329712
1.231423,-10.1499996185303
1.247048,-5.30999994277954
1.262673,1.75
1.278298,10.4099998474121
1.293923,19.3899993896484
1.309548,27.2900009155273
1.325173,33.060001373291
1.340798,36.2599983215332
1.356423,37.1800003051758
1.372048,36.5800018310547
1.387673,35.3199996948242
1.403298,33.8699989318848
1.418923,32.1399993896484
1.434548,29.6800003051758
1.450173,26.1000003814697
1.465798,21.2800006866455
1.481423,15.539999961853
1.497048,9.59000015258789
1.512673,4.21999979019165
1.528298,-0.150000005960464
1.543923,-3.75999999046326
1.559548,-7.0
1.575173,-10.0200004577637
1.590798,-12.6499996185303
1.606423,-14.75
1.622048,-16.2999992370605
1.637673,-17.2900009155273
1.653298,-17.6100006103516
1.668923,-17.2000007629395
1.684548,-16.2399997711182
1.700173,-15.1400003433228
1.715798,-14.3299999237061
1.731423,-13.9799995422363
1.747048,-13.8599996566772
1.762673,-13.5299997329712
1.778298,-12.6800003051758
1.793923,-11.3999996185303
1.809548,-10.210000038147
1.825173,-9.60999965667725
1.840798,-9.89999961853027
1.856423,-10.9899997711182
1.872048,-12.4899997711182
1.887673,-13.8500003814697
1.903298,-14.4300003051758
1.918923,-13.5900001525879
1.934548,-10.8100004196167
1.950173,-5.73999977111816
1.965798,1.53999996185303
1.981423,10.1599998474121
1.997048,18.5100002288818
2.012673,25.0900001525879
2.028298,29.2299995422363
2.043923,31.1399993896484
2.059548,31.2800006866455
2.075173,29.9099998474121
2.090798,27.2700004577637
2.106423,23.6900005340576
2.122048,19.4599990844727
2.137673,14.7200002670288
2.153298,9.47000026702881
2.168923,3.8199999332428
2.184548,-1.62000000476837
2.200173,-5.98000001907349
2.215798,-8.52000045776367
2.231423,-9.27999973297119
2.247048,-9.06999969482422
2.262673,-8.97000026702881
2.278298,-9.80000019073486
2.293923,-11.7200002670288
2.309548,-14.25
2.325173,-16.5100002288818
2.340798,-17.8299999237061
2.356423,-18.0300006866455
2.372048,-17.3099994659424
2.387673,-16.1499996185303
2.403298,-15.1499996185303
2.418923,-14.8699998855591
2.434548,-15.460000038147
2.450173,-16.5900001525879
2.465798,-17.8099994659424
2.481423,-18.8299999237061
2.497048,-19.6599998474121
2.512673,-20.3299999237061
2.528298,-20.7199993133545
2.543923,-20.5400009155273
2.559548,-19.6700000762939
2.575173,-18.2700004577637
2.590798,-16.7299995422363
2.606423,-15.5100002288818
2.622048,-14.8500003814697
2.637673,-14.5699996948242
2.653298,-13.9399995803833
2.668923,-11.75
2.684548,-6.8600001335144
2.700173,1.08000004291534
2.715798,11.1199998855591
2.731423,21.2900009155273
2.747048,29.5200004577637
2.762673,34.5400009155273
2.778298,36.3300018310547
2.793923,35.9199981689453
2.809548,34.6699981689453
2.825173,33.6699981689453
2.840798,33.3699989318848
2.856423,33.5
2.872048,33.1599998474121
2.887673,31.2999992370605
2.903298,27.3099994659424
2.918923,21.3600006103516
2.934548,14.210000038147
2.950173,6.76000022888184
2.965798,0.0
2.981423,-5.1100001335144
2.997048,-7.96999979019165
3.012673,-8.6899995803833
3.028298,-8.26000022888184
3.043923,-8.01000022888184
3.059548,-8.96000003814697
3.075173,-11.4499998092651
3.090798,-15.1300001144409
3.106423,-19.2399997711182
3.122048,-22.8799991607666
3.137673,-25.3199996948242
3.153298,-26.2099990844727
3.168923,-25.5599994659424
3.184548,-23.5100002288818
3.200173,-20.2900009155273
3.215798,-16.2600002288818
3.231423,-11.9099998474121
3.247048,-7.67000007629395
3.262673,-3.89000010490417
3.278298,-0.779999971389771
3.293923,1.49000000953674
3.309548,2.90000009536743
3.325173,3.61999988555908
3.340798,4.36999988555908
3.356423,6.25
3.372048,10.0299997329712
3.387673,15.710000038147
3.403298,22.7099990844727
3.418923,30.0499992370605
3.434548,36.439998626709
3.450173,40.4500007629395
3.465798,41.1500015258789
3.481423,38.4500007629395
3.497048,33.1300010681152
3.512673,26.3199996948242
3.528298,18.8999996185303
3.543923,11.4700002670288
3.559548,4.59999990463257
3.575173,-1.02999997138977
3.590798,-4.98000001907349
3.606423,-7.42999982833862
3.622048,-9.14000034332275
3.637673,-10.8100004196167
3.653298,-12.4799995422363
3.668923,-13.6499996185303
3.684548,-13.7399997711182
3.700173,-12.2700004577637
3.715798,-8.86999988555908
3.731423,-3.6800000667572
3.747048,2.21000003814697
3.762673,6.92999982833862
3.778298,8.73999977111816
3.793923,6.8899998664856
3.809548,2.07999992370605
3.825173,-3.97000002861023
3.840798,-9.39999961853027
3.856423,-13.0
3.872048,-14.6499996185303
3.887673,-14.9799995422363
3.903298,-14.6000003814697
3.918923,-13.5100002288818
3.934548,-11.4300003051758
3.950173,-8.51000022888184
3.965798,-5.5
3.981423,-3.38000011444092
3.997048,-2.74000000953674
4.012673,-3.66000008583069
4.028298,-5.94999980926514
4.043923,-9.25
4.059548,-12.9700002670288
4.075173,-16.0
4.090798,-16.9899997711182
4.106423,-14.9700002670288
4.122048,-9.9399995803833
4.137673,-3.03999996185303
4.153298,3.78999996185303
4.168923,8.65999984741211
4.184548,10.4799995422363
4.200173,9.28999996185303
4.215798,6.05000019073486
4.231423,2.11999988555908
4.247048,-1.26999998092651
4.262673,-3.44000005722046
4.278298,-4.40000009536743
4.293923,-4.78000020980835
4.309548,-5.34000015258789
4.325173,-6.42000007629395
4.340798,-7.71000003814697
4.356423,-8.61999988555908
4.372048,-8.94999980926514
4.387673,-9.10999965667725
4.403298,-9.61999988555908
4.418923,-10.5100002288818
4.434548,-11.2299995422363
4.450173,-11.3100004196167
4.465798,-10.710000038147
4.481423,-9.55000019073486
4.497048,-8.01000022888184
4.512673,-6.34999990463257
4.528298,-5.03999996185303
4.543923,-4.42999982833862
4.559548,-4.57999992370605
4.575173,-5.30000019073486
4.590798,-6.48000001907349
4.606423,-7.98999977111816
4.622048,-9.47000026702881
4.637673,-10.3100004196167
4.653298,-10.0900001525879
4.668923,-8.92000007629395
4.684548,-7.5
4.700173,-6.59999990463257
4.715798,-6.53999996185303
4.731423,-6.8600001335144
4.747048,-6.48000001907349
4.762673,-4.01000022888184
4.778298,1.5
4.793923,9.90999984741211
4.809548,19.7600002288818
4.825173,28.9899997711182
4.840798,36.0800018310547
4.856423,40.6199989318848
4.872048,42.9599990844727
4.887673,43.5900001525879
4.903298,42.7599983215332
4.918923,40.5900001525879
4.934548,37.3499984741211
4.950173,33.2900009155273
4.965798,28.5400009155273
4.981423,23.1100006103516
4.997048,17.1499996185303
5.012673,10.9399995803833
5.028298,4.96999979019165
5.043923,-0.259999990463257
5.059548,-4.30999994277954
5.075173,-6.90999984741211
5.090798,-8.10999965667725
5.106423,-8.22000026702881
5.122048,-7.73000001907349
5.137673,-7.05000019073486
5.153298,-6.59000015258789
5.168923,-6.84999990463257
5.184548,-8.13000011444092
5.200173,-10.0799999237061
5.215798,-11.9200000762939
5.231423,-12.9700002670288
5.247048,-13.1099996566772
5.262673,-12.6099996566772
5.278298,-11.9399995803833
5.293923,-11.5600004196167
5.309548,-11.8199996948242
5.325173,-12.8299999237061
5.340798,-14.25
5.356423,-15.4300003051758
5.372048,-15.6099996566772
5.387673,-14.0
5.403298,-9.8100004196167
5.418923,-2.65000009536743
5.434548,6.92999982833862
5.450173,17.3999996185303
5.465798,26.6900005340576
5.481423,33.0900001525879
5.497048,35.8699989318848
5.512673,35.5099983215332
5.528298,33.3300018310547
5.543923,30.7299995422363
5.559548,28.3999996185303
5.575173,26.1000003814697
5.590798,23.2000007629395
5.606423,19.4400005340576
5.622048,15.1300001144409
5.637673,10.7399997711182
5.653298,6.46000003814697
5.668923,2.36999988555908
5.684548,-1.29999995231628
5.700173,-4.26000022888184
5.715798,-6.46999979019165
5.731423,-8.1899995803833
5.747048,-9.67000007629395
5.762673,-11.0299997329712
5.778298,-12.2299995422363
5.793923,-13.210000038147
5.809548,-14.0699996948242
5.825173,-15.039999961853
5.840798,-16.2299995422363
5.856423,-17.5
5.872048,-18.5599994659424
5.887673,-19.2399997711182
5.903298,-19.6299991607666
5.918923,-19.7999992370605
5.934548,-19.6800003051758
5.950173,-19.0699996948242
5.965798,-17.7399997711182
5.981423,-15.5299997329712
5.997048,-12.3500003814697
6.012673,-8.23999977111816
6.028298,-3.23000001907349
6.043923,2.67000007629395
6.059548,9.38000011444092
6.075173,16.3500003814697
6.090798,22.5599994659424
6.106423,26.9500007629395
6.122048,29.0799999237061
6.137673,29.2000007629395
6.153298,27.8700008392334
6.168923,25.6700000762939
6.184548,22.9899997711182
6.200173,20.0
6.215798,16.7099990844727
6.231423,13.039999961853
6.247048,9.05000019073486
6.262673,4.88000011444092
6.278298,0.629999995231628
6.293923,-3.60999989509583
6.309548,-7.69999980926514
6.325173,-11.460000038147
6.340798,-14.7600002288818
6.356423,-17.5
6.372048,-19.4400005340576
6.387673,-20.3299999237061
6.403298,-20.2099990844727
6.418923,-19.4300003051758
6.434548,-18.4500007629395
6.450173,-17.7299995422363
6.465798,-17.4799995422363
6.481423,-17.5799999237061
6.497048,-17.6800003051758
6.512673,-17.5400009155273
6.528298,-17.1900005340576
6.543923,-16.8299999237061
6.559548,-16.6700000762939
6.575173,-16.8799991607666
6.590798,-17.4099998474121
6.606423,-17.9599990844727
6.622048,-18.0599994659424
6.637673,-17.3600006103516
6.653298,-15.9700002670288
6.668923,-14.5500001907349
6.684548,-13.8699998855591
6.700173,-13.8000001907349
6.715798,-12.9499998092651
6.731423,-9.5
6.747048,-2.59999990463257
6.762673,6.96999979019165
6.778298,17.1900005340576
6.793923,25.7999992370605
6.809548,31.1800003051758
6.825173,32.9900016784668
6.840798,32.0200004577637
6.856423,29.6399993896484
6.872048,27.1299991607666
6.887673,25.2299995422363
6.903298,23.8799991607666
6.918923,22.3400001525879
6.934548,19.7600002288818
6.950173,15.8999996185303
6.965798,11.2200002670288
6.981423,6.48000001907349
6.997048,2.26999998092651
7.012673,-1.17999994754791
7.028298,-4.09000015258789
7.043923,-6.88000011444092
7.059548,-9.85000038146973
7.075173,-12.8100004196167
7.090798,-15.460000038147
7.106423,-17.6599998474121
7.122048,-19.4799995422363
7.137673,-20.9300003051758
7.153298,-21.9300003051758
7.168923,-22.4300003051758
7.184548,-22.5799999237061
7.200173,-22.6700000762939
7.215798,-22.8700008392334
7.231423,-23.0300006866455
7.247048,-22.8700008392334
7.262673,-22.25
7.278298,-21.1000003814697
7.293923,-19.5100002288818
7.309548,-17.7399997711182
7.325173,-16.0699996948242
7.340798,-14.5699996948242
7.356423,-13.0799999237061
7.372048,-11.4499998092651
7.387673,-9.88000011444092
7.403298,-8.85000038146973
7.418923,-8.6899995803833
7.434548,-8.98999977111816
7.450173,-8.56999969482422
7.465798,-5.82000017166138
7.481423,0.509999990463257
7.497048,10.8500003814697
7.512673,24.3700008392334
7.528298,39.2200012207031
7.543923,53.2999992370605
7.559548,65.5199966430664
7.575173,76.6600036621094
7.590798,88.6999969482422
7.606423,103.099998474121
7.622048,119.680000305176
7.637673,136.639999389648
7.653298,151.399993896484
7.668923,161.410003662109
7.684548,164.679992675781
7.700173,159.830001831055
7.715798,146.119995117188
7.731423,123.809997558594
7.747048,94.620002746582
7.762673,61.7099990844727
7.778298,29.0
7.793923,0.0
7.809548,-23.5
7.825173,-41.7900009155273
7.840798,-56.3899993896484
7.856423,-68.8099975585938
7.872048,-79.629997253418
7.887673,-88.3199996948242
7.903298,-93.9300003051758
7.918923,-95.9499969482422
7.934548,-94.8499984741211
7.950173,-91.8399963378906
7.965798,-88.1699981689453
7.981423,-84.4499969482422
7.997048,-80.7699966430664
8.012673,-77.1800003051758
8.028298,-74.0400009155273
8.043923,-71.8600006103516
8.059548,-70.9499969482422
8.075173,-70.9499969482422
8.090798,-70.8099975585938
8.106423,-69.4100036621094
8.122048,-66.370002746582
8.137673,-62.2799987792969
8.153298,-58.310001373291
8.168923,-55.4099998474121
8.184548,-54.0499992370605
8.200173,-54.1699981689453
8.215798,-55.1599998474121
8.231423,-55.8499984741211
8.247048,-54.6599998474121
8.262673,-49.7999992370605
8.278298,-40.1500015258789
8.293923,-26.2000007629395
8.309548,-10.4700002670288
8.325173,3.38000011444092
8.340798,12.3100004196167
8.356423,15.3000001907349
8.372048,13.75
8.387673,10.4700002670288
8.403298,8.30000019073486
8.418923,9.09000015258789
8.434548,13.4200000762939
8.450173,20.6900005340576
8.465798,29.3799991607666
8.481423,37.4099998474121
8.497048,42.689998626709
8.512673,43.9500007629395
8.528298,41.1800003051758
8.543923,35.5200004577637
8.559548,28.25
8.575173,19.9300003051758
8.590798,10.2200002670288
8.606423,-1.25999999046326
8.622048,-14.1300001144409
8.637673,-27.1200008392334
8.653298,-38.6100006103516
8.668923,-47.310001373291
8.684548,-52.7200012207031
8.700173,-55.0999984741211
8.715798,-55.1100006103516
8.731423,-53.5299987792969
8.747048,-51.1199989318848
8.762673,-48.7700004577637
8.778298,-47.4199981689453
8.793923,-47.8400001525879
8.809548,-50.0400009155273
8.825173,-53.0099983215332
8.840798,-55.3699989318848
8.856423,-56.0999984741211
8.872048,-54.7999992370605
8.887673,-51.4500007629395
8.903298,-46.2400016784668
8.918923,-39.5299987792969
8.934548,-31.7700004577637
8.950173,-23.3600006103516
8.965798,-14.5699996948242
8.981423,-5.71000003814697
8.997048,2.54999995231628
9.012673,9.3100004196167
9.028298,13.9799995422363
9.043923,16.7800006866455
9.059548,18.8799991607666
9.075173,21.9099998474121
9.090798,27.1399993896484
9.106423,34.810001373291
9.122048,43.9799995422363
9.137673,52.9099998474121
9.153298,59.6800003051758
9.168923,62.8400001525879
9.184548,61.4700012207031
9.200173,55.0699996948242
9.215798,43.6199989318848
9.231423,27.7099990844727
9.247048,8.31999969482422
9.262673,-13.4399995803833
9.278298,-36.2700004577637
9.293923,-58.5
9.309548,-78.120002746582
9.325173,-92.8499984741211
9.340798,-100.449996948242
9.356423,-99.0100021362305
9.372048,-87.7300033569336
9.387673,-67.6399993896484
9.403298,-41.7999992370605
9.418923,-14.3800001144409
9.434548,10.789999961853
9.450173,31.4099998474121
9.465798,47.0
9.481423,58.5099983215332
9.497048,67.0100021362305
9.512673,72.5500030517578
9.528298,74.2300033569336
9.543923,71.5800018310547
9.559548,65.6999969482422
9.575173,59.3499984741211
9.590798,55.4900016784668
9.606423,55.7400016784668
9.622048,60.0200004577637
9.637673,67.0699996948242
9.653298,75.0999984741211
9.668923,82.4400024414063
9.684548,88.0699996948242
9.700173,91.6600036621094
9.715798,93.2600021362305
9.731423,93.2099990844727
9.747048,92.0800018310547
9.762673,90.5400009155273
9.778298,89.1900024414063
9.793923,88.2300033569336
9.809548,87.3199996948242
9.825173,85.8499984741211
9.840798,83.5299987792969
9.856423,80.8000030517578
9.872048,78.6600036621094
9.887673,78.129997253418
9.903298,79.6600036621094
9.918923,82.6399993896484
9.934548,85.7699966430664
9.950173,87.6699981689453
9.965798,87.370002746582
9.981423,84.4300003051758
9.997048,79.0299987792969
10.012673,72.120002746582
10.028298,64.879997253418
10.043923,58.0999984741211
10.059548,51.8600006103516
10.075173,45.9199981689453
10.090798,40.0800018310547
10.106423,34.3899993896484
10.122048,29.0900001525879
10.137673,24.4400005340576
10.153298,20.5699996948242
10.168923,17.3199996948242
10.184548,14.3299999237061
10.200173,11.2299995422363
10.215798,7.84999990463257
10.231423,4.23000001907349
10.247048,0.449999988079071
10.262673,-3.4300000667572
10.278298,-7.32999992370605
10.293923,-11.1199998855591
10.309548,-14.75
10.325173,-18.2399997711182
10.340798,-21.6800003051758
10.356423,-25.1499996185303
10.372048,-28.4799995422363
10.387673,-31.2199993133545
10.403298,-32.9000015258789
10.418923,-33.3499984741211
10.434548,-32.8300018310547
10.450173,-31.8299999237061
10.465798,-30.7299995422363
10.481423,-29.5499992370605
10.497048,-28.1200008392334
10.512673,-26.4899997711182
10.528298,-25.0699996948242
10.543923,-24.6100006103516
10.559548,-25.7299995422363
10.575173,-28.4599990844727
10.590798,-32.0299987792969
10.606423,-35.4900016784668
10.622048,-38.1500015258789
10.637673,-39.6199989318848
10.653298,-39.2999992370605
10.668923,-36.3899993896484
10.684548,-30.6700000762939
10.700173,-23.2199993133545
10.715798,-16.0200004577637
10.731423,-11.0200004577637
10.747048,-9.22000026702881
10.762673,-10.1999998092651
10.778298,-12.3800001144409
10.793923,-14.0699996948242
10.809548,-14.5600004196167
10.825173,-14.289999961853
10.840798,-14.1000003814697
10.856423,-14.7399997711182
10.872048,-16.75
10.887673,-20.4599990844727
10.903298,-25.7399997711182
10.918923,-31.8700008392334
10.934548,-37.7900009155273
10.950173,-42.5400009155273
10.965798,-45.7900009155273
10.981423,-47.9799995422363
10.997048,-49.9799995422363
11.012673,-52.4099998474121
11.028298,-55.1599998474121
11.043923,-57.6199989318848
11.059548,-59.1699981689453
11.075173,-59.6500015258789
11.090798,-59.2900009155273
11.106423,-58.5
11.122048,-57.7400016784668
11.137673,-57.3199996948242
11.153298,-57.0999984741211
11.168923,-56.5
11.184548,-54.7599983215332
11.200173,-51.3800010681152
11.215798,-46.4199981689453
11.231423,-40.4700012207031
11.247048,-34.4000015258789
11.262673,-29.0599994659424
11.278298,-25.0400009155273
11.293923,-22.3899993896484
11.309548,-20.5300006866455
11.325173,-18.8299999237061
11.340798,-17.0200004577637
11.356423,-15.1400003433228
11.372048,-13.210000038147
11.387673,-11.1499996185303
11.403298,-9.06999969482422
11.418923,-7.36999988555908
11.434548,-6.32999992370605
11.450173,-5.40000009536743
11.465798,-3.05999994277954
11.481423,2.13000011444092
11.497048,10.2299995422363
11.512673,19.4400005340576
11.528298,27.2800006866455
11.543923,31.8700008392334
11.559548,32.6100006103516
11.575173,29.8799991607666
11.590798,24.3799991607666
11.606423,16.6800003051758
11.622048,7.1100001335144
11.637673,-3.97000002861023
11.653298,-15.9200000762939
11.668923,-27.7900009155273
11.684548,-38.7099990844727
11.700173,-48.2700004577637
11.715798,-56.4099998474121
11.731423,-63.060001373291
11.747048,-67.9100036621094
11.762673,-70.5599975585938
11.778298,-70.7399978637695
11.793923,-68.379997253418
11.809548,-63.5699996948242
11.825173,-56.6800003051758
11.840798,-48.4700012207031
11.856423,-39.9500007629395
11.872048,-32.0200004577637
11.887673,-25.2900009155273
11.903298,-19.9400005340576
11.918923,-15.6899995803833
