Time(s),Value(%)
430.0092948,126.23999786377
430.0249198,113.970001220703
430.0405448,97.4599990844727
430.0561698,79.620002746582
430.0717948,62.1800003051758
430.0874198,45.7299995422363
430.1030448,30.1599998474121
430.1186698,15.3100004196167
430.1342948,1.5
430.1499198,-10.3599996566772
430.1655448,-19.3700008392334
430.1811698,-25.3600006103516
430.1967948,-28.8799991607666
430.2124198,-30.7099990844727
430.2280448,-31.4799995422363
430.2436698,-31.7399997711182
430.2592948,-31.9400005340576
430.2749198,-32.4700012207031
430.2905448,-33.6199989318848
430.3061698,-35.5
430.3217948,-37.8800010681152
430.3374198,-40.2599983215332
430.3530448,-42.0299987792969
430.3686698,-42.7599983215332
430.3842948,-42.2700004577637
430.3999198,-40.7099990844727
430.4155448,-38.5200004577637
430.4311698,-36.2700004577637
430.4467948,-34.310001373291
430.4624198,-32.5200004577637
430.4780448,-30.5400009155273
430.4936698,-28.0
430.5092948,-24.6100006103516
430.5249198,-19.5200004577637
430.5405448,-10.6999998092651
430.5561698,4.34999990463257
430.5717948,26.8799991607666
430.5874198,55.3699989318848
430.6030448,85.5400009155273
430.6186698,111.819999694824
430.6342948,129.399993896484
430.6499198,135.789993286133
430.6655448,131.25
430.6811698,118.150001525879
430.6967948,99.9300003051758
430.7124198,80.0599975585938
430.7280448,61.0400009155273
430.7436698,43.8699989318848
430.7592948,28.0900001525879
430.7749198,12.4300003051758
430.7905448,-4.15999984741211
430.8061698,-21.6399993896484
430.8217948,-38.6100006103516
430.8374198,-53.2099990844727
430.8530448,-64.1399993896484
430.8686698,-71.0400009155273
430.8842948,-74.25
430.8999198,-74.4599990844727
430.9155448,-72.5599975585938
430.9311698,-69.5599975585938
430.9467948,-66.3399963378906
430.9624198,-63.4900016784668
430.9780448,-61.310001373291
430.9936698,-59.810001373291
431.0092948,-58.75
431.0249198,-57.8199996948242
431.0405448,-56.8199996948242
431.0561698,-55.5699996948242
431.0717948,-53.8499984741211
431.0874198,-51.5200004577637
431.1030448,-48.5800018310547
431.1186698,-45.1500015258789
431.1342948,-41.310001373291
431.1499198,-37.0
431.1655448,-31.6900005340576
431.1811698,-23.7800006866455
431.1967948,-10.8699998855591
431.2124198,9.19999980926514
431.2280448,36.6699981689453
431.2436698,68.7300033569336
431.2592948,99.9300003051758
431.2749198,124.26000213623
431.2905448,137.610000610352
431.3061698,139.089996337891
431.3217948,130.649993896484
431.3374198,115.75
431.3530448,97.9700012207031
431.3686698,79.8499984741211
431.3842948,62.5099983215332
431.3999198,45.9900016784668
431.4155448,29.9799995422363
431.4311698,14.4399995803833
431.4467948,-0.100000001490116
431.4624198,-12.710000038147
431.4780448,-22.4599990844727
431.4936698,-28.9599990844727
431.5092948,-32.5400009155273
431.5249198,-34.2799987792969
431.5405448,-35.7000007629395
431.5561698,-38.1199989318848
431.5717948,-42.3499984741211
431.5874198,-48.5900001525879
431.6030448,-56.4099998474121
431.6186698,-64.879997253418
431.6342948,-72.9800033569336
431.6499198,-79.75
431.6655448,-84.3000030517578
431.6811698,-86.120002746582
431.6967948,-85.2300033569336
431.7124198,-82.0599975585938
431.7280448,-77.2399978637695
431.7436698,-71.3099975585938
431.7592948,-64.4400024414063
431.7749198,-56.2000007629395
431.7905448,-45.5999984741211
431.8061698,-31.4300003051758
431.8217948,-12.6000003814697
431.8374198,11.4200000762939
431.8530448,39.6800003051758
431.8686698,69.0599975585938
431.8842948,94.879997253418
431.8999198,112.790000915527
431.9155448,120.720001220703
431.9311698,119.51000213623
431.9467948,112.040000915527
431.9624198,101.699996948242
431.9780448,91.1800003051758
431.9936698,81.9800033569336
432.0092948,74.5699996948242
432.0249198,68.8499984741211
432.0405448,64.5800018310547
432.0561698,61.4099998474121
432.0717948,58.7599983215332
432.0874198,56.0099983215332
432.1030448,52.689998626709
432.1186698,48.310001373291
432.1342948,41.6699981689453
432.1499198,30.9300003051758
432.1655448,14.9200000762939
432.1811698,-5.57000017166138
432.1967948,-27.6100006103516
432.2124198,-47.4500007629395
432.2280448,-62.6100006103516
432.2436698,-72.9100036621094
432.2592948,-79.8899993896484
432.2749198,-85.5599975585938
432.2905448,-91.2200012207031
432.3061698,-96.8399963378906
432.3217948,-101.319999694824
432.3374198,-103.919998168945
432.3530448,-105.110000610352
432.3686698,-105.980003356934
432.3842948,-106.930000305176
432.3999198,-106.870002746582
432.4155448,-102.980003356934
432.4311698,-91.3300018310547
432.4467948,-69.1699981689453
432.4624198,-37.2900009155273
432.4780448,-0.419999986886978
432.4936698,34.6100006103516
432.5092948,61.7400016784668
432.5249198,78.0199966430664
432.5405448,84.1999969482422
432.5561698,83.5
432.5717948,79.4300003051758
432.5874198,74.129997253418
432.6030448,67.8199996948242
432.6186698,59.5200004577637
432.6342948,48.25
432.6499198,34.0699996948242
432.6655448,18.4500007629395
432.6811698,3.83999991416931
432.6967948,-7.46000003814697
432.7124198,-14.4499998092651
432.7280448,-17.6900005340576
432.7436698,-18.9099998474121
432.7592948,-20.0699996948242
432.7749198,-22.5400009155273
432.7905448,-26.6399993896484
432.8061698,-31.7700004577637
432.8217948,-36.8400001525879
432.8374198,-40.7700004577637
432.8530448,-42.9799995422363
432.8686698,-43.6300010681152
432.8842948,-43.4000015258789
432.8999198,-43.0400009155273
432.9155448,-42.9700012207031
432.9311698,-42.939998626709
432.9467948,-42.3600006103516
432.9624198,-41.2299995422363
432.9780448,-40.1199989318848
432.9936698,-39.2200012207031
433.0092948,-37.9500007629395
433.0249198,-35.310001373291
433.0405448,-30.2600002288818
433.0561698,-21.4300003051758
433.0717948,-7.0
433.0874198,14.2600002288818
433.1030448,41.4199981689453
433.1186698,71.0800018310547
433.1342948,98.4599990844727
433.1499198,119.099998474121
433.1655448,130.380004882813
433.1811698,132.080001831055
433.1967948,125.839996337891
433.2124198,114.080001831055
433.2280448,99.129997253418
433.2436698,82.8300018310547
433.2592948,66.3300018310547
433.2749198,49.9300003051758
433.2905448,33.3600006103516
433.3061698,16.5699996948242
433.3217948,0.119999997317791
433.3374198,-14.7399997711182
433.3530448,-26.5400009155273
433.3686698,-34.4700012207031
433.3842948,-38.7900009155273
433.3999198,-40.5299987792969
433.4155448,-40.9000015258789
433.4311698,-40.8199996948242
433.4467948,-40.7900009155273
433.4624198,-40.8300018310547
433.4780448,-40.6199989318848
433.4936698,-39.6500015258789
433.5092948,-37.6300010681152
433.5249198,-34.7400016784668
433.5405448,-31.6599998474121
433.5561698,-29.1700000762939
433.5717948,-27.7800006866455
433.5874198,-27.4699993133545
433.6030448,-27.6900005340576
433.6186698,-27.6200008392334
433.6342948,-26.2600002288818
433.6499198,-22.3500003814697
433.6655448,-14.2700004577637
433.6811698,-0.529999971389771
433.6967948,19.4699993133545
433.7124198,44.5499992370605
433.7280448,71.1800003051758
433.7436698,93.9899978637695
433.7592948,108.150001525879
433.7749198,111.569999694824
433.7905448,105.400001525879
433.8061698,92.879997253418
433.8217948,77.5400009155273
433.8374198,61.7999992370605
433.8530448,46.4799995422363
433.8686698,31.2700004577637
433.8842948,15.7299995422363
433.8999198,0.0399999991059303
433.9155448,-14.8599996566772
433.9311698,-27.6599998474121
433.9467948,-37.2599983215332
433.9624198,-43.3699989318848
433.9780448,-46.4900016784668
433.9936698,-47.5200004577637
434.0092948,-47.3800010681152
434.0249198,-46.8199996948242
434.0405448,-46.3800010681152
434.0561698,-46.4799995422363
434.0717948,-47.4900016784668
434.0874198,-49.4500007629395
434.1030448,-51.8300018310547
434.1186698,-53.7599983215332
434.1342948,-54.4599990844727
434.1499198,-53.560001373291
434.1655448,-51.3199996948242
434.1811698,-48.4599990844727
434.1967948,-45.7099990844727
434.2124198,-43.2400016784668
434.2280448,-40.1199989318848
434.2436698,-34.1199989318848
434.2592948,-22.5499992370605
434.2749198,-3.8199999332428
434.2905448,21.2099990844727
434.3061698,49.1199989318848
434.3217948,75.0699996948242
434.3374198,94.5400009155273
434.3530448,104.720001220703
434.3686698,105.180000305176
434.3842948,97.629997253418
434.3999198,84.7799987792969
434.4155448,69.2600021362305
434.4311698,52.9099998474121
434.4467948,36.6300010681152
434.4624198,20.6100006103516
434.4780448,4.98999977111816
434.4936698,-9.64000034332275
434.5092948,-22.4599990844727
434.5249198,-32.7200012207031
434.5405448,-40.060001373291
434.5561698,-44.6399993896484
434.5717948,-47.0299987792969
434.5874198,-47.8199996948242
434.6030448,-47.4500007629395
434.6186698,-46.3400001525879
434.6342948,-45.0699996948242
434.6499198,-44.2400016784668
434.6655448,-44.1199989318848
434.6811698,-44.5699996948242
434.6967948,-45.2099990844727
434.7124198,-45.8199996948242
434.7280448,-46.3300018310547
434.7436698,-46.5699996948242
434.7592948,-46.310001373291
434.7749198,-45.4099998474121
434.7905448,-43.6399993896484
434.8061698,-40.0800018310547
434.8217948,-32.8699989318848
434.8374198,-19.9200000762939
434.8530448,-0.189999997615814
434.8686698,25.1700000762939
434.8842948,52.6800003051758
434.8999198,77.5400009155273
434.9155448,95.5
434.9311698,104.330001831055
434.9467948,104.360000610352
434.9624198,97.7699966430664
434.9780448,87.3300018310547
434.9936698,75.1100006103516
435.0092948,62.0200004577637
435.0249198,48.060001373291
435.0405448,33.0999984741211
435.0561698,17.4599990844727
435.0717948,1.96000003814697
435.0874198,-12.2299995422363
435.1030448,-23.8400001525879
435.1186698,-31.9300003051758
435.1342948,-36.2999992370605
435.1499198,-37.7000007629395
435.1655448,-37.4000015258789
435.1811698,-36.6300010681152
435.1967948,-36.1500015258789
435.2124198,-36.2400016784668
435.2280448,-36.7900009155273
435.2436698,-37.4500007629395
435.2592948,-37.939998626709
435.2749198,-38.189998626709
435.2905448,-38.2999992370605
435.3061698,-38.4900016784668
435.3217948,-38.9799995422363
435.3374198,-39.8199996948242
435.3530448,-40.6300010681152
435.3686698,-40.7400016784668
435.3842948,-39.0900001525879
435.3999198,-34.1800003051758
435.4155448,-24.2099990844727
435.4311698,-7.8600001335144
435.4467948,14.8000001907349
435.4624198,41.7000007629395
435.4780448,68.7900009155273
435.4936698,91.0100021362305
435.5092948,104.379997253418
435.5249198,107.470001220703
435.5405448,101.360000610352
435.5561698,88.5800018310547
435.5717948,71.7200012207031
435.5874198,52.5999984741211
435.6030448,32.4599990844727
435.6186698,12.4899997711182
435.6342948,-5.90000009536743
435.6499198,-21.1599998474121
435.6655448,-32.0699996948242
435.6811698,-38.1300010681152
435.6967948,-39.8699989318848
435.7124198,-38.6199989318848
435.7280448,-36.0699996948242
435.7436698,-33.6399993896484
435.7592948,-32.189998626709
435.7749198,-31.9500007629395
435.7905448,-32.8300018310547
435.8061698,-34.6199989318848
435.8217948,-37.1300010681152
435.8374198,-40.2099990844727
435.8530448,-43.6100006103516
435.8686698,-46.8699989318848
435.8842948,-49.439998626709
435.8999198,-50.9799995422363
435.9155448,-51.3800010681152
435.9311698,-50.6100006103516
435.9467948,-48.5299987792969
435.9624198,-44.8300018310547
435.9780448,-38.7999992370605
435.9936698,-29.2399997711182
436.0092948,-14.75
436.0249198,5.26999998092651
436.0405448,29.5100002288818
436.0561698,54.5699996948242
436.0717948,76.1600036621094
436.0874198,90.9100036621094
436.1030448,97.5100021362305
436.1186698,96.6999969482422
436.1342948,90.3499984741211
436.1499198,80.5
436.1655448,68.6699981689453
436.1811698,55.7400016784668
436.1967948,42.1500015258789
436.2124198,28.4500007629395
436.2280448,15.3299999237061
436.2436698,3.01999998092651
436.2592948,-8.67000007629395
436.2749198,-19.5499992370605
436.2905448,-28.8700008392334
436.3061698,-35.8300018310547
436.3217948,-40.0699996948242
436.3374198,-41.7700004577637
436.3530448,-41.5499992370605
436.3686698,-40.2700004577637
436.3842948,-38.6300010681152
436.3999198,-37.0400009155273
436.4155448,-35.6500015258789
436.4311698,-34.5699996948242
436.4467948,-33.9099998474121
436.4624198,-33.7400016784668
436.4780448,-33.9300003051758
436.4936698,-34.2700004577637
436.5092948,-34.4700012207031
436.5249198,-34.2099990844727
436.5405448,-33.0800018310547
436.5561698,-30.5300006866455
436.5717948,-25.4899997711182
436.5874198,-16.0599994659424
436.6030448,0.0500000007450581
436.6186698,23.5200004577637
436.6342948,51.6699981689453
436.6499198,79.1500015258789
436.6655448,100.480003356934
436.6811698,112.370002746582
436.6967948,114.529998779297
436.7124198,108.720001220703
436.7280448,97.129997253418
436.7436698,80.9400024414063
436.7592948,60.0299987792969
436.7749198,33.939998626709
436.7905448,3.46000003814697
436.8061698,-28.2800006866455
436.8217948,-56.8800010681152
436.8374198,-79.1999969482422
436.8530448,-95.0899963378906
436.8686698,-106.180000305176
436.8842948,-113.529998779297
436.8999198,-117.01000213623
436.9155448,-116.300003051758
436.9311698,-112.01000213623
436.9467948,-105.800003051758
436.9624198,-99.7600021362305
436.9780448,-95.6100006103516
436.9936698,-94.2099990844727
437.0092948,-95.2099990844727
437.0249198,-97.0
437.0405448,-97.5400009155273
437.0561698,-95.379997253418
437.0717948,-90.2900009155273
437.0874198,-83.2600021362305
437.1030448,-76.0599975585938
437.1186698,-70.0400009155273
437.1342948,-64.9899978637695
437.1499198,-59.1300010681152
437.1655448,-49.9000015258789
437.1811698,-35.2400016784668
437.1967948,-14.8000001907349
437.2124198,9.77000045776367
437.2280448,35.4599990844727
437.2436698,59.0200004577637
437.2592948,78.0400009155273
437.2749198,91.4400024414063
437.2905448,99.4499969482422
437.3061698,103.150001525879
437.3217948,103.73999786377
437.3374198,101.839996337891
437.3530448,97.25
437.3686698,89.5699996948242
437.3842948,79.1900024414063
437.3999198,67.4000015258789
437.4155448,56.0699996948242
437.4311698,47.0200004577637
437.4467948,41.4500007629395
437.4624198,39.7400016784668
437.4780448,41.4000015258789
437.4936698,45.2200012207031
437.5092948,49.5999984741211
437.5249198,53.189998626709
437.5405448,55.2599983215332
437.5561698,55.6599998474121
437.5717948,54.7099990844727
437.5874198,52.8400001525879
437.6030448,50.5200004577637
437.6186698,48.2000007629395
437.6342948,46.2799987792969
437.6499198,44.9199981689453
437.6655448,44.0
437.6811698,43.4099998474121
437.6967948,43.3199996948242
437.7124198,44.3899993896484
437.7280448,48.2999992370605
437.7436698,57.4199981689453
437.7592948,73.2799987792969
437.7749198,94.9100036621094
437.7905448,118.970001220703
437.8061698,141.089996337891
437.8217948,157.550003051758
437.8374198,166.380004882813
437.8530448,167.399993896484
437.8686698,161.630004882813
437.8842948,150.479995727539
437.8999198,135.259994506836
437.9155448,117.059997558594
437.9311698,96.7900009155273
437.9467948,75.4499969482422
437.9624198,54.1699981689453
437.9780448,34.0900001525879
437.9936698,16.1100006103516
438.0092948,0.779999971389771
438.0249198,-11.6400003433228
438.0405448,-21.2999992370605
438.0561698,-28.7399997711182
438.0717948,-34.8899993896484
438.0874198,-40.560001373291
438.1030448,-46.1599998474121
438.1186698,-51.6800003051758
438.1342948,-56.7799987792969
438.1499198,-61.189998626709
438.1655448,-64.9700012207031
438.1811698,-68.4300003051758
438.1967948,-71.879997253418
438.2124198,-75.4499969482422
438.2280448,-78.9700012207031
438.2436698,-82.0699996948242
438.2592948,-84.0199966430664
438.2749198,-83.5299987792969
438.2905448,-78.9599990844727
438.3061698,-69.0599975585938
438.3217948,-53.7700004577637
438.3374198,-34.3800010681152
438.3530448,-13.2700004577637
438.3686698,6.57000017166138
438.3842948,22.0100002288818
438.3999198,30.6900005340576
438.4155448,31.7999992370605
438.4311698,26.0900001525879
438.4467948,15.289999961853
438.4624198,1.39999997615814
438.4780448,-14.1300001144409
438.4936698,-30.7000007629395
438.5092948,-47.9500007629395
438.5249198,-65.2399978637695
438.5405448,-81.4800033569336
438.5561698,-95.620002746582
438.5717948,-107.019996643066
438.5874198,-115.610000610352
438.6030448,-121.699996948242
438.6186698,-125.470001220703
438.6342948,-126.790000915527
438.6499198,-125.589996337891
438.6655448,-122.410003662109
438.6811698,-118.419998168945
438.6967948,-114.779998779297
438.7124198,-112.069999694824
438.7280448,-110.319999694824
438.7436698,-109.419998168945
438.7592948,-109.269996643066
438.7749198,-109.339996337891
438.7905448,-108.669998168945
438.8061698,-106.5
438.8217948,-103.040000915527
438.8374198,-99.620002746582
438.8530448,-97.6999969482422
438.8686698,-97.0800018310547
438.8842948,-95.0199966430664
438.8999198,-88.0500030517578
438.9155448,-74.870002746582
438.9311698,-57.4900016784668
438.9467948,-39.9000015258789
438.9624198,-25.5300006866455
438.9780448,-15.3400001525879
438.9936698,-7.98999977111816
439.0092948,-1.25999999046326
439.0249198,6.3600001335144
439.0405448,15.0699996948242
439.0561698,23.8600006103516
439.0717948,31.3700008392334
439.0874198,36.6599998474121
439.1030448,39.7099990844727
439.1186698,41.1599998474121
439.1342948,41.8199996948242
439.1499198,42.5400009155273
439.1655448,44.0299987792969
439.1811698,46.7799987792969
439.1967948,50.9599990844727
439.2124198,56.2900009155273
439.2280448,62.2299995422363
439.2436698,68.0599975585938
439.2592948,73.0899963378906
439.2749198,76.7300033569336
439.2905448,78.7399978637695
439.3061698,79.4000015258789
439.3217948,79.3099975585938
439.3374198,78.9100036621094
439.3530448,78.129997253418
439.3686698,76.5999984741211
439.3842948,74.25
439.3999198,71.7699966430664
439.4155448,70.5100021362305
439.4311698,71.9599990844727
439.4467948,77.2200012207031
439.4624198,86.3399963378906
439.4780448,97.9700012207031
439.4936698,109.580001831055
439.5092948,118.680000305176
439.5249198,124.370002746582
439.5405448,127.209999084473
439.5561698,127.970001220703
439.5717948,126.930000305176
439.5874198,123.970001220703
439.6030448,118.830001831055
439.6186698,111.269996643066
439.6342948,101.160003662109
439.6499198,88.7399978637695
439.6655448,74.6800003051758
439.6811698,60.0699996948242
439.6967948,46.1199989318848
439.7124198,33.8300018310547
439.7280448,23.5200004577637
439.7436698,14.8199996948242
439.7592948,7.05000019073486
439.7749198,-0.310000002384186
439.7905448,-7.5
439.8061698,-14.4200000762939
439.8217948,-20.8799991607666
439.8374198,-26.75
439.8530448,-32.0499992370605
439.8686698,-36.9599990844727
439.8842948,-41.7099990844727
439.8999198,-46.3499984741211
439.9155448,-50.6800003051758
439.9311698,-54.4099998474121
439.9467948,-57.3499984741211
439.9624198,-59.439998626709
439.9780448,-60.4599990844727
439.9936698,-59.75
440.0092948,-56.2200012207031
440.0249198,-48.8400001525879
440.0405448,-37.7700004577637
440.0561698,-24.75
440.0717948,-12.3900003433228
440.0874198,-2.83999991416931
440.1030448,2.96000003814697
440.1186698,5.21999979019165
440.1342948,4.78000020980835
440.1499198,2.5699999332428
440.1655448,-0.879999995231628
440.1811698,-5.53999996185303
440.1967948,-11.4099998474121
440.2124198,-18.2399997711182
440.2280448,-25.5300006866455
440.2436698,-32.6399993896484
440.2592948,-38.9799995422363
440.2749198,-44.1699981689453
440.2905448,-48.1699981689453
440.3061698,-51.2099990844727
440.3217948,-53.5900001525879
440.3374198,-55.4599990844727
440.3530448,-56.8699989318848
440.3686698,-57.9000015258789
440.3842948,-58.7400016784668
440.3999198,-59.4900016784668
440.4155448,-60.2000007629395
440.4311698,-60.8600006103516
440.4467948,-61.4099998474121
440.4624198,-61.7200012207031
440.4780448,-61.6599998474121
440.4936698,-61.2299995422363
440.5092948,-60.4199981689453
440.5249198,-58.8899993896484
440.5405448,-55.6800003051758
440.5561698,-49.5299987792969
440.5717948,-39.5999984741211
440.5874198,-26.3199996948242
440.6030448,-11.3599996566772
440.6186698,3.15000009536743
440.6342948,15.6000003814697
440.6499198,25.0799999237061
440.6655448,31.2600002288818
440.6811698,34.4000015258789
440.6967948,35.1500015258789
440.7124198,34.1800003051758
