Time(s),Value(%)
337.0127443,-12.2600002288818
337.0283693,-17.5
337.0439943,-21.1000003814697
337.0596193,-22.8999996185303
337.0752443,-23.3299999237061
337.0908693,-22.9599990844727
337.1064943,-22.3600006103516
337.1221193,-22.0300006866455
337.1377443,-22.2800006866455
337.1533693,-22.8600006103516
337.1689943,-23.1700000762939
337.1846193,-22.8299999237061
337.2002443,-22.0300006866455
337.2158693,-21.3799991607666
337.2314943,-21.3700008392334
337.2471193,-22.1100006103516
337.2627443,-23.6399993896484
337.2783693,-26.1299991607666
337.2939943,-29.5100002288818
337.3096193,-33.1800003051758
337.3252443,-36.1199989318848
337.3408693,-37.2400016784668
337.3564943,-35.689998626709
337.3721193,-31.3099994659424
337.3877443,-24.7900009155273
337.4033693,-17.5400009155273
337.4189943,-10.9099998474121
337.4346193,-5.44999980926514
337.4502443,-0.850000023841858
337.4658693,3.19000005722046
337.4814943,6.40000009536743
337.4971193,8.21000003814697
337.5127443,8.5600004196167
337.5283693,8.59000015258789
337.5439943,10.3900003433228
337.5596193,15.6899995803833
337.5752443,24.5400009155273
337.5908693,35.2799987792969
337.6064943,45.5900001525879
337.6221193,53.6699981689453
337.6377443,58.5999984741211
337.6533693,60.2000007629395
337.6689943,58.7200012207031
337.6846193,54.7000007629395
337.7002443,48.8800010681152
337.7158693,42.1100006103516
337.7314943,35.2400016784668
337.7471193,28.8199996948242
337.7627443,22.9400005340576
337.7783693,17.2399997711182
337.7939943,11.3299999237061
337.8096193,5.03999996185303
337.8252443,-1.73000001907349
337.8408693,-8.77000045776367
337.8564943,-15.1899995803833
337.8721193,-19.7800006866455
337.8877443,-21.5799999237061
337.9033693,-20.6499996185303
337.9189943,-18.1599998474121
337.9346193,-15.7200002670288
337.9502443,-14.25
337.9658693,-13.6999998092651
337.9814943,-13.6499996185303
337.9971193,-14.0799999237061
338.0127443,-15.3100004196167
338.0283693,-17.5
338.0439943,-20.1800003051758
338.0596193,-22.5300006866455
338.0752443,-23.8700008392334
338.0908693,-23.9300003051758
338.1064943,-23.0200004577637
338.1221193,-22.1700000762939
338.1377443,-22.4599990844727
338.1533693,-24.0900001525879
338.1689943,-26.1800003051758
338.1846193,-27.4400005340576
338.2002443,-27.0499992370605
338.2158693,-25.2099990844727
338.2314943,-22.7800006866455
338.2471193,-20.6399993896484
338.2627443,-19.1100006103516
338.2783693,-17.7600002288818
338.2939943,-15.8400001525879
338.3096193,-13.0900001525879
338.3252443,-10.1199998855591
338.3408693,-8.05000019073486
338.3564943,-7.63000011444092
338.3721193,-8.51000022888184
338.3877443,-9.0600004196167
338.4033693,-6.80999994277954
338.4189943,0.540000021457672
338.4346193,13.7700004577637
338.4502443,31.2700004577637
338.4658693,49.310001373291
338.4814943,63.5
338.4971193,70.6999969482422
338.5127443,70.25
338.5283693,63.9700012207031
338.5439943,54.9900016784668
338.5596193,46.3899993896484
338.5752443,40.2099990844727
338.5908693,36.8699989318848
338.6064943,35.3300018310547
338.6221193,33.8499984741211
338.6377443,30.7299995422363
338.6533693,24.9400005340576
338.6689943,16.6000003814697
338.6846193,6.86999988555908
338.7002443,-2.82999992370605
338.7158693,-11.3199996948242
338.7314943,-17.7199993133545
338.7471193,-21.4500007629395
338.7627443,-22.5100002288818
338.7783693,-21.6399993896484
338.7939943,-20.2600002288818
338.8096193,-19.8700008392334
338.8252443,-21.2900009155273
338.8408693,-24.2800006866455
338.8564943,-27.7399997711182
338.8721193,-30.3099994659424
338.8877443,-31.1100006103516
338.9033693,-30.4599990844727
338.9189943,-29.5
338.9346193,-29.2199993133545
338.9502443,-29.6200008392334
338.9658693,-29.8799991607666
338.9814943,-29.0100002288818
338.9971193,-26.4799995422363
339.0127443,-22.6000003814697
339.0283693,-18.4799995422363
339.0439943,-15.6000003814697
339.0596193,-15.0
339.0752443,-16.6399993896484
339.0908693,-19.4799995422363
339.1064943,-22.2900009155273
339.1221193,-24.1399993896484
339.1377443,-24.5100002288818
339.1533693,-23.3400001525879
339.1689943,-21.0799999237061
339.1846193,-18.4599990844727
339.2002443,-16.1499996185303
339.2158693,-14.2700004577637
339.2314943,-11.710000038147
339.2471193,-6.21999979019165
339.2627443,4.07000017166138
339.2783693,18.9099998474121
339.2939943,35.5900001525879
339.3096193,50.3400001525879
339.3252443,60.0800018310547
339.3408693,63.3400001525879
339.3564943,60.5900001525879
339.3721193,54.0699996948242
339.3877443,46.939998626709
339.4033693,41.7700004577637
339.4189943,39.439998626709
339.4346193,39.0299987792969
339.4502443,38.6500015258789
339.4658693,36.6500015258789
339.4814943,32.2599983215332
339.4971193,25.4799995422363
339.5127443,16.7299995422363
339.5283693,6.8899998664856
339.5439943,-2.72000002861023
339.5596193,-10.7299995422363
339.5752443,-16.4400005340576
339.5908693,-20.3099994659424
339.6064943,-23.4300003051758
339.6221193,-26.6000003814697
339.6377443,-29.6900005340576
339.6533693,-31.9300003051758
339.6689943,-32.8300018310547
339.6846193,-32.75
339.7002443,-32.6300010681152
339.7158693,-33.1800003051758
339.7314943,-34.4599990844727
339.7471193,-35.939998626709
339.7627443,-36.8499984741211
339.7783693,-36.5499992370605
339.7939943,-34.8899993896484
339.8096193,-32.3300018310547
339.8252443,-29.6499996185303
339.8408693,-27.3299999237061
339.8564943,-25.25
339.8721193,-23.1399993896484
339.8877443,-21.2299995422363
339.9033693,-20.1599998474121
339.9189943,-20.2399997711182
339.9346193,-21.0400009155273
339.9502443,-21.5599994659424
339.9658693,-20.7399997711182
339.9814943,-17.9799995422363
339.9971193,-13.5699996948242
340.0127443,-8.64999961853027
340.0283693,-4.65999984741211
340.0439943,-2.69000005722046
340.0596193,-3.15000009536743
340.0752443,-5.63000011444092
340.0908693,-8.68000030517578
340.1064943,-9.77999973297119
340.1221193,-6.09000015258789
340.1377443,4.01000022888184
340.1533693,19.9799995422363
340.1689943,39.0800018310547
340.1846193,57.3699989318848
340.2002443,71.0800018310547
340.2158693,78.1699981689453
340.2314943,78.9400024414063
340.2471193,75.4499969482422
340.2627443,70.129997253418
340.2783693,64.629997253418
340.2939943,59.4300003051758
340.3096193,54.3199996948242
340.3252443,49.0800018310547
340.3408693,43.8400001525879
340.3564943,38.8400001525879
340.3721193,33.8899993896484
340.3877443,28.3700008392334
340.4033693,21.6599998474121
340.4189943,13.4899997711182
340.4346193,4.1100001335144
340.4502443,-5.40000009536743
340.4658693,-13.2299995422363
340.4814943,-17.7900009155273
340.4971193,-18.8600006103516
340.5127443,-17.8099994659424
340.5283693,-16.6800003051758
340.5439943,-17.0799999237061
340.5596193,-19.3999996185303
340.5752443,-22.8600006103516
340.5908693,-26.1800003051758
340.6064943,-28.25
340.6221193,-28.6299991607666
340.6377443,-27.8799991607666
340.6533693,-27.1599998474121
340.6689943,-27.4500007629395
340.6846193,-28.8500003814697
340.7002443,-30.6299991607666
340.7158693,-31.6900005340576
340.7314943,-31.3600006103516
340.7471193,-29.7600002288818
340.7627443,-27.4899997711182
340.7783693,-25.1000003814697
340.7939943,-22.8700008392334
340.8096193,-20.7399997711182
340.8252443,-18.4400005340576
340.8408693,-15.8699998855591
340.8564943,-13.1700000762939
340.8721193,-10.6000003814697
340.8877443,-8.38000011444092
340.9033693,-6.40999984741211
340.9189943,-4.38000011444092
340.9346193,-2.10999989509583
340.9502443,0.209999993443489
340.9658693,2.49000000953674
340.9814943,5.46999979019165
340.9971193,10.8599996566772
341.0127443,20.0599994659424
341.0283693,32.689998626709
341.0439943,46.3300018310547
341.0596193,57.6699981689453
341.0752443,64.129997253418
341.0908693,64.8000030517578
341.1064943,60.6599998474121
341.1221193,54.0699996948242
341.1377443,47.5900001525879
341.1533693,42.7000007629395
341.1689943,39.310001373291
341.1846193,36.310001373291
341.2002443,32.5499992370605
341.2158693,27.4099998474121
341.2314943,20.8500003814697
341.2471193,13.3000001907349
341.2627443,5.51000022888184
341.2783693,-1.69000005722046
341.2939943,-7.46000003814697
341.3096193,-11.1400003433228
341.3252443,-12.6899995803833
341.3408693,-12.7399997711182
341.3564943,-12.3400001525879
341.3721193,-12.5900001525879
341.3877443,-14.1300001144409
341.4033693,-16.6700000762939
341.4189943,-19.0699996948242
341.4346193,-20.1100006103516
341.4502443,-19.3600006103516
341.4658693,-17.5100002288818
341.4814943,-15.8199996948242
341.4971193,-15.4099998474121
341.5127443,-16.7000007629395
341.5283693,-19.4300003051758
341.5439943,-22.9599990844727
341.5596193,-26.3600006103516
341.5752443,-28.6200008392334
341.5908693,-29.1499996185303
341.6064943,-28.3400001525879
341.6221193,-27.1900005340576
341.6377443,-26.5300006866455
341.6533693,-26.6100006103516
341.6689943,-26.9699993133545
341.6846193,-26.5900001525879
341.7002443,-24.6299991607666
341.7158693,-21.2700004577637
341.7314943,-17.3500003814697
341.7471193,-13.460000038147
341.7627443,-9.82999992370605
341.7783693,-6.82999992370605
341.7939943,-4.92000007629395
341.8096193,-3.71000003814697
341.8252443,-1.38999998569489
341.8408693,4.30999994277954
341.8564943,14.3999996185303
341.8721193,27.6000003814697
341.8877443,40.7900009155273
341.9033693,50.6500015258789
341.9189943,55.3300018310547
341.9346193,55.0200004577637
341.9502443,51.4799995422363
341.9658693,46.939998626709
341.9814943,42.9799995422363
341.9971193,40.0999984741211
342.0127443,37.8600006103516
342.0283693,35.3600006103516
342.0439943,31.7600002288818
342.0596193,26.5499992370605
342.0752443,19.8500003814697
342.0908693,12.5600004196167
342.1064943,6.05000019073486
342.1221193,1.38999998569489
342.1377443,-1.44000005722046
342.1533693,-3.5699999332428
342.1689943,-6.36999988555908
342.1846193,-10.6300001144409
342.2002443,-16.25
342.2158693,-22.3899993896484
342.2314943,-27.8199996948242
342.2471193,-31.4599990844727
342.2627443,-32.9799995422363
342.2783693,-32.8699989318848
342.2939943,-32.0499992370605
342.3096193,-31.3099994659424
342.3252443,-30.8500003814697
342.3408693,-30.3299999237061
342.3564943,-29.3400001525879
342.3721193,-27.8899993896484
342.3877443,-26.4899997711182
342.4033693,-25.9599990844727
342.4189943,-26.8099994659424
342.4346193,-28.7700004577637
342.4502443,-30.6399993896484
342.4658693,-30.8799991607666
342.4814943,-28.7199993133545
342.4971193,-24.6700000762939
342.5127443,-20.1499996185303
342.5283693,-16.5499992370605
342.5439943,-14.5
342.5596193,-13.6000003814697
342.5752443,-13.0600004196167
342.5908693,-12.5
342.6064943,-12.0600004196167
342.6221193,-11.8699998855591
342.6377443,-11.5500001907349
342.6533693,-10.2700004577637
342.6689943,-6.82999992370605
342.6846193,-0.0799999982118607
342.7002443,10.3800001144409
342.7158693,23.6000003814697
342.7314943,37.25
342.7471193,48.560001373291
342.7627443,55.310001373291
342.7783693,56.75
342.7939943,53.7799987792969
342.8096193,48.3899993896484
342.8252443,42.6500015258789
342.8408693,37.7200012207031
342.8564943,33.7400016784668
342.8721193,30.5
342.8877443,27.9400005340576
342.9033693,25.9500007629395
342.9189943,23.9599990844727
342.9346193,21.0900001525879
342.9502443,16.6000003814697
342.9658693,10.3500003814697
342.9814943,2.92000007629395
342.9971193,-4.67999982833862
343.0127443,-11.6999998092651
343.0283693,-17.6399993896484
343.0439943,-22.0
343.0596193,-24.3899993896484
343.0752443,-25.1000003814697
343.0908693,-24.9099998474121
343.1064943,-24.5400009155273
343.1221193,-24.3700008392334
343.1377443,-24.6800003051758
343.1533693,-25.75
343.1689943,-27.6100006103516
343.1846193,-29.7199993133545
343.2002443,-31.2199993133545
343.2158693,-31.4899997711182
343.2314943,-30.3799991607666
343.2471193,-28.1200008392334
343.2627443,-25.2099990844727
343.2783693,-22.3799991607666
343.2939943,-20.3199996948242
343.3096193,-19.2999992370605
343.3252443,-19.1100006103516
343.3408693,-19.3299999237061
343.3564943,-19.4699993133545
343.3721193,-18.9799995422363
343.3877443,-17.6800003051758
343.4033693,-15.8199996948242
343.4189943,-13.8400001525879
343.4346193,-11.9799995422363
343.4502443,-10.460000038147
343.4658693,-9.44999980926514
343.4814943,-8.6899995803833
343.4971193,-7.1399998664856
343.5127443,-3.32999992370605
343.5283693,3.94000005722046
343.5439943,15.0299997329712
343.5596193,29.0900001525879
343.5752443,44.1300010681152
343.5908693,57.25
343.6064943,65.629997253418
343.6221193,67.7099990844727
343.6377443,63.8800010681152
343.6533693,56.2700004577637
343.6689943,47.7599983215332
343.6846193,40.7200012207031
343.7002443,36.0200004577637
343.7158693,32.9599990844727
343.7314943,29.9799995422363
343.7471193,25.6499996185303
343.7627443,19.1900005340576
343.7783693,10.5699996948242
343.7939943,0.620000004768372
343.8096193,-9.01000022888184
343.8252443,-16.5
343.8408693,-20.7800006866455
343.8564943,-22.0300006866455
343.8721193,-21.3099994659424
343.8877443,-19.9400005340576
343.9033693,-18.9899997711182
343.9189943,-18.9799995422363
343.9346193,-19.9300003051758
343.9502443,-21.6700000762939
343.9658693,-24.0100002288818
343.9814943,-26.3400001525879
343.9971193,-27.7399997711182
344.0127443,-27.5300006866455
344.0283693,-25.7800006866455
344.0439943,-22.9599990844727
344.0596193,-19.5300006866455
344.0752443,-16.0799999237061
344.0908693,-13.5600004196167
344.1064943,-12.9200000762939
344.1221193,-14.3900003433228
344.1377443,-17.4099998474121
344.1533693,-20.9200000762939
344.1689943,-23.5799999237061
344.1846193,-24.1200008392334
344.2002443,-22.1100006103516
344.2158693,-18.1700000762939
344.2314943,-13.6400003433228
344.2471193,-9.81999969482422
344.2627443,-7.44999980926514
344.2783693,-6.48000001907349
344.2939943,-6.44000005722046
344.3096193,-6.94999980926514
344.3252443,-7.88000011444092
344.3408693,-8.65999984741211
344.3564943,-7.73000001907349
344.3721193,-2.94000005722046
344.3877443,7.19999980926514
344.4033693,22.4400005340576
344.4189943,40.2700004577637
344.4346193,56.7299995422363
344.4502443,68.0500030517578
344.4658693,72.4300003051758
344.4814943,70.5599975585938
344.4971193,64.7799987792969
344.5127443,57.7999992370605
344.5283693,51.6399993896484
344.5439943,47.1599998474121
344.5596193,44.189998626709
344.5752443,41.9300003051758
344.5908693,39.1399993896484
344.6064943,34.3699989318848
344.6221193,26.6599998474121
344.6377443,16.2099990844727
344.6533693,4.53000020980835
344.6689943,-6.21000003814697
344.6846193,-14.0600004196167
344.7002443,-18.1000003814697
344.7158693,-18.8899993896484
344.7314943,-17.9599990844727
344.7471193,-16.8600006103516
344.7627443,-16.6399993896484
344.7783693,-17.8899993896484
344.7939943,-20.7900009155273
344.8096193,-24.7299995422363
344.8252443,-28.3199996948242
344.8408693,-30.0
344.8564943,-29.1700000762939
344.8721193,-26.7099990844727
344.8877443,-24.4500007629395
344.9033693,-23.9300003051758
344.9189943,-25.4500007629395
344.9346193,-27.9899997711182
344.9502443,-30.2700004577637
344.9658693,-31.6399993896484
344.9814943,-32.0200004577637
344.9971193,-31.2600002288818
345.0127443,-29.0
345.0283693,-25.1299991607666
345.0439943,-20.0499992370605
345.0596193,-14.7200002670288
345.0752443,-10.3599996566772
345.0908693,-8.01000022888184
345.1064943,-7.90999984741211
345.1221193,-9.35000038146973
345.1377443,-11.039999961853
345.1533693,-11.8599996566772
345.1689943,-11.4899997711182
345.1846193,-10.4200000762939
345.2002443,-9.38000011444092
345.2158693,-8.46000003814697
345.2314943,-6.3600001335144
345.2471193,-0.600000023841858
345.2627443,10.6899995803833
345.2783693,26.9099998474121
345.2939943,44.4599990844727
345.3096193,58.4300003051758
345.3252443,65.1800003051758
345.3408693,64.2399978637695
345.3564943,58.1300010681152
345.3721193,50.4900016784668
345.3877443,44.0499992370605
345.4033693,39.75
345.4189943,36.9199981689453
345.4346193,34.2700004577637
345.4502443,31.0799999237061
345.4658693,27.6200008392334
345.4814943,24.3500003814697
345.4971193,20.6800003051758
345.5127443,15.0500001907349
345.5283693,6.5
345.5439943,-4.03999996185303
345.5596193,-13.9399995803833
345.5752443,-20.4300003051758
345.5908693,-22.2399997711182
345.6064943,-20.2700004577637
345.6221193,-16.8099994659424
345.6377443,-14.1499996185303
345.6533693,-13.460000038147
345.6689943,-14.6499996185303
345.6846193,-16.6900005340576
345.7002443,-18.4699993133545
345.7158693,-19.4099998474121
345.7314943,-19.7999992370605
345.7471193,-20.1700000762939
345.7627443,-20.5
345.7783693,-20.2700004577637
345.7939943,-19.3500003814697
345.8096193,-18.5599994659424
345.8252443,-18.9200000762939
345.8408693,-20.6100006103516
345.8564943,-22.6700000762939
345.8721193,-23.7800006866455
345.8877443,-23.2199993133545
345.9033693,-21.1299991607666
345.9189943,-18.1599998474121
345.9346193,-15.1300001144409
345.9502443,-12.5699996948242
345.9658693,-10.5500001907349
345.9814943,-8.59000015258789
345.9971193,-6.15999984741211
346.0127443,-3.10999989509583
346.0283693,0.439999997615814
346.0439943,4.98999977111816
346.0596193,11.75
346.0752443,21.6499996185303
346.0908693,33.939998626709
346.1064943,46.0
346.1221193,54.7099990844727
346.1377443,58.1500015258789
346.1533693,56.6500015258789
346.1689943,52.2200012207031
346.1846193,47.1100006103516
346.2002443,42.5400009155273
346.2158693,38.5400009155273
346.2314943,34.5
346.2471193,29.7900009155273
346.2627443,24.25
346.2783693,18.25
346.2939943,12.1000003814697
346.3096193,5.67000007629395
346.3252443,-1.29999995231628
346.3408693,-8.68000030517578
346.3564943,-15.7700004577637
346.3721193,-21.6100006103516
346.3877443,-25.4200000762939
346.4033693,-27.1800003051758
346.4189943,-27.6599998474121
346.4346193,-27.9200000762939
346.4502443,-28.6200008392334
346.4658693,-29.8400001525879
346.4814943,-31.4500007629395
346.4971193,-33.3899993896484
346.5127443,-35.5099983215332
346.5283693,-37.2200012207031
346.5439943,-37.8199996948242
346.5596193,-37.0800018310547
346.5752443,-35.5
346.5908693,-33.939998626709
346.6064943,-33.1599998474121
346.6221193,-33.4199981689453
346.6377443,-34.1500015258789
346.6533693,-34.0299987792969
346.6689943,-31.7600002288818
346.6846193,-26.9300003051758
346.7002443,-20.3899993896484
346.7158693,-13.8999996185303
346.7314943,-9.06999969482422
346.7471193,-6.46000003814697
346.7627443,-5.55000019073486
346.7783693,-5.57000017166138
346.7939943,-6.03000020980835
346.8096193,-6.98999977111816
346.8252443,-8.82999992370605
346.8408693,-11.6800003051758
346.8564943,-14.8299999237061
346.8721193,-16.9699993133545
346.8877443,-16.7199993133545
346.9033693,-13.0799999237061
346.9189943,-5.44999980926514
346.9346193,6.15999984741211
346.9502443,20.7600002288818
346.9658693,36.0800018310547
346.9814943,49.2900009155273
346.9971193,58.0400009155273
347.0127443,61.3600006103516
347.0283693,60.0400009155273
347.0439943,56.2200012207031
347.0596193,52.2400016784668
347.0752443,49.2599983215332
347.0908693,47.1800003051758
347.1064943,45.3699989318848
347.1221193,43.2799987792969
347.1377443,40.3800010681152
347.1533693,36.1199989318848
347.1689943,30.3799991607666
347.1846193,23.6200008392334
347.2002443,16.4599990844727
347.2158693,9.48999977111816
347.2314943,3.5
347.2471193,-0.829999983310699
347.2627443,-3.55999994277954
347.2783693,-5.44999980926514
347.2939943,-7.19999980926514
347.3096193,-8.84000015258789
347.3252443,-10.0299997329712
347.3408693,-10.8199996948242
347.3564943,-11.7799997329712
347.3721193,-13.5799999237061
347.3877443,-16.5
347.4033693,-20.2900009155273
347.4189943,-24.2099990844727
347.4346193,-27.4300003051758
347.4502443,-29.4099998474121
347.4658693,-30.1599998474121
347.4814943,-30.3199996948242
347.4971193,-30.7000007629395
347.5127443,-31.5900001525879
347.5283693,-32.439998626709
347.5439943,-32.3899993896484
347.5596193,-31.0100002288818
347.5752443,-28.6900005340576
347.5908693,-26.2900009155273
347.6064943,-24.5300006866455
347.6221193,-23.5100002288818
347.6377443,-22.6200008392334
347.6533693,-21.1499996185303
347.6689943,-18.9300003051758
347.6846193,-16.4400005340576
347.7002443,-14.460000038147
347.7158693,-13.5299997329712
347.7314943,-13.5100002288818
