Time(s),Value(℃)
545.0024319,181.240005493164
545.0180569,181.080001831055
545.0336819,180.929992675781
545.0493069,180.800003051758
545.0649319,180.679992675781
545.0805569,180.580001831055
545.0961819,180.479995727539
545.1118069,180.399993896484
545.1274319,180.320007324219
545.1430569,180.25
545.1586819,180.179992675781
545.1743069,180.119995117188
545.1899319,180.070007324219
545.2055569,180.020004272461
545.2211819,179.970001220703
545.2368069,179.929992675781
545.2524319,179.889999389648
545.2680569,179.850006103516
545.2836819,179.809997558594
545.2993069,179.779998779297
545.3149319,179.75
545.3305569,179.710006713867
545.3461819,179.679992675781
545.3618069,179.649993896484
545.3774319,179.619995117188
545.3930569,179.600006103516
545.4086819,179.570007324219
545.4243069,179.539993286133
545.4399319,179.520004272461
545.4555569,179.490005493164
545.4711819,179.460006713867
545.4868069,179.440002441406
545.5024319,179.410003662109
545.5180569,179.380004882813
545.5336819,179.339996337891
545.5493069,179.309997558594
545.5649319,179.270004272461
545.5805569,179.229995727539
545.5961819,179.190002441406
545.6118069,179.139999389648
545.6274319,179.100006103516
545.6430569,179.050003051758
545.6586819,179.0
545.6743069,178.949996948242
545.6899319,178.899993896484
545.7055569,178.850006103516
545.7211819,178.800003051758
545.7368069,178.75
545.7524319,178.699996948242
545.7680569,178.649993896484
545.7836819,178.600006103516
545.7993069,178.550003051758
545.8149319,178.5
545.8305569,178.449996948242
545.8461819,178.399993896484
545.8618069,178.360000610352
545.8774319,178.309997558594
545.8930569,178.270004272461
545.9086819,178.220001220703
545.9243069,178.179992675781
545.9399319,178.130004882813
545.9555569,178.089996337891
545.9711819,178.050003051758
545.9868069,178.0
546.0024319,177.960006713867
546.0180569,177.919998168945
546.0336819,177.880004882813
546.0493069,177.839996337891
546.0649319,177.789993286133
546.0805569,177.75
546.0961819,177.710006713867
546.1118069,177.660003662109
546.1274319,177.619995117188
546.1430569,177.570007324219
546.1586819,177.529998779297
546.1743069,177.479995727539
546.1899319,177.429992675781
546.2055569,177.389999389648
546.2211819,177.339996337891
546.2368069,177.289993286133
546.2524319,177.25
546.2680569,177.199996948242
546.2836819,177.149993896484
546.2993069,177.110000610352
546.3149319,177.059997558594
546.3305569,177.009994506836
546.3461819,176.970001220703
546.3618069,176.919998168945
546.3774319,176.880004882813
546.3930569,176.839996337891
546.4086819,176.800003051758
546.4243069,176.759994506836
546.4399319,176.720001220703
546.4555569,176.690002441406
546.4711819,176.649993896484
546.4868069,176.619995117188
546.5024319,176.589996337891
546.5180569,176.570007324219
546.5336819,176.550003051758
546.5493069,176.529998779297
546.5649319,176.520004272461
546.5805569,176.5
546.5961819,176.490005493164
546.6118069,176.479995727539
546.6274319,176.479995727539
546.6430569,176.470001220703
546.6586819,176.460006713867
546.6743069,176.460006713867
546.6899319,176.460006713867
546.7055569,176.449996948242
546.7211819,176.449996948242
546.7368069,176.449996948242
546.7524319,176.449996948242
546.7680569,176.449996948242
546.7836819,176.440002441406
546.7993069,176.440002441406
546.8149319,176.440002441406
546.8305569,176.440002441406
546.8461819,176.429992675781
546.8618069,176.429992675781
546.8774319,176.429992675781
546.8930569,176.419998168945
546.9086819,176.419998168945
546.9243069,176.410003662109
546.9399319,176.410003662109
546.9555569,176.410003662109
546.9711819,176.399993896484
546.9868069,176.399993896484
547.0024319,176.389999389648
547.0180569,176.389999389648
547.0336819,176.389999389648
547.0493069,176.389999389648
547.0649319,176.389999389648
547.0805569,176.389999389648
547.0961819,176.389999389648
547.1118069,176.399993896484
547.1274319,176.399993896484
547.1430569,176.410003662109
547.1586819,176.410003662109
547.1743069,176.419998168945
547.1899319,176.419998168945
547.2055569,176.429992675781
547.2211819,176.429992675781
547.2368069,176.440002441406
547.2524319,176.440002441406
547.2680569,176.449996948242
547.2836819,176.449996948242
547.2993069,176.449996948242
547.3149319,176.460006713867
547.3305569,176.460006713867
547.3461819,176.470001220703
547.3618069,176.470001220703
547.3774319,176.479995727539
547.3930569,176.479995727539
547.4086819,176.490005493164
547.4243069,176.490005493164
547.4399319,176.5
547.4555569,176.5
547.4711819,176.5
547.4868069,176.509994506836
547.5024319,176.509994506836
547.5180569,176.520004272461
547.5336819,176.520004272461
547.5493069,176.529998779297
547.5649319,176.529998779297
547.5805569,176.539993286133
547.5961819,176.539993286133
547.6118069,176.539993286133
547.6274319,176.550003051758
547.6430569,176.550003051758
547.6586819,176.550003051758
547.6743069,176.559997558594
547.6899319,176.559997558594
547.7055569,176.559997558594
547.7211819,176.570007324219
547.7368069,176.570007324219
547.7524319,176.570007324219
547.7680569,176.570007324219
547.7836819,176.580001831055
547.7993069,176.580001831055
547.8149319,176.580001831055
547.8305569,176.589996337891
547.8461819,176.589996337891
547.8618069,176.589996337891
547.8774319,176.600006103516
547.8930569,176.600006103516
547.9086819,176.610000610352
547.9243069,176.610000610352
547.9399319,176.610000610352
547.9555569,176.619995117188
547.9711819,176.619995117188
547.9868069,176.630004882813
548.0024319,176.630004882813
548.0180569,176.639999389648
548.0336819,176.649993896484
548.0493069,176.649993896484
548.0649319,176.660003662109
548.0805569,176.669998168945
548.0961819,176.669998168945
548.1118069,176.679992675781
548.1274319,176.690002441406
548.1430569,176.699996948242
548.1586819,176.699996948242
548.1743069,176.710006713867
548.1899319,176.720001220703
548.2055569,176.729995727539
548.2211819,176.740005493164
548.2368069,176.75
548.2524319,176.759994506836
548.2680569,176.770004272461
548.2836819,176.779998779297
548.2993069,176.789993286133
548.3149319,176.800003051758
548.3305569,176.809997558594
548.3461819,176.820007324219
548.3618069,176.830001831055
548.3774319,176.839996337891
548.3930569,176.850006103516
548.4086819,176.860000610352
548.4243069,176.869995117188
548.4399319,176.880004882813
548.4555569,176.889999389648
548.4711819,176.899993896484
548.4868069,176.919998168945
548.5024319,176.929992675781
548.5180569,176.940002441406
548.5336819,176.960006713867
548.5493069,176.970001220703
548.5649319,176.990005493164
548.5805569,177.0
548.5961819,177.020004272461
548.6118069,177.029998779297
548.6274319,177.050003051758
548.6430569,177.059997558594
548.6586819,177.080001831055
548.6743069,177.100006103516
548.6899319,177.119995117188
548.7055569,177.130004882813
548.7211819,177.149993896484
548.7368069,177.169998168945
548.7524319,177.190002441406
548.7680569,177.199996948242
548.7836819,177.220001220703
548.7993069,177.240005493164
548.8149319,177.259994506836
548.8305569,177.279998779297
548.8461819,177.300003051758
548.8618069,177.320007324219
548.8774319,177.339996337891
548.8930569,177.350006103516
548.9086819,177.369995117188
548.9243069,177.389999389648
548.9399319,177.410003662109
548.9555569,177.429992675781
548.9711819,177.440002441406
548.9868069,177.460006713867
549.0024319,177.479995727539
549.0180569,177.5
549.0336819,177.509994506836
549.0493069,177.529998779297
549.0649319,177.539993286133
549.0805569,177.559997558594
549.0961819,177.570007324219
549.1118069,177.589996337891
549.1274319,177.600006103516
549.1430569,177.619995117188
549.1586819,177.630004882813
549.1743069,177.639999389648
549.1899319,177.660003662109
549.2055569,177.669998168945
549.2211819,177.679992675781
549.2368069,177.699996948242
549.2524319,177.710006713867
549.2680569,177.720001220703
549.2836819,177.740005493164
549.2993069,177.75
549.3149319,177.759994506836
549.3305569,177.770004272461
549.3461819,177.789993286133
549.3618069,177.800003051758
549.3774319,177.809997558594
549.3930569,177.820007324219
549.4086819,177.830001831055
549.4243069,177.839996337891
549.4399319,177.850006103516
549.4555569,177.860000610352
549.4711819,177.869995117188
549.4868069,177.869995117188
549.5024319,177.880004882813
549.5180569,177.889999389648
549.5336819,177.889999389648
549.5493069,177.899993896484
549.5649319,177.899993896484
549.5805569,177.910003662109
549.5961819,177.910003662109
549.6118069,177.910003662109
549.6274319,177.910003662109
549.6430569,177.910003662109
549.6586819,177.899993896484
549.6743069,177.899993896484
549.6899319,177.899993896484
549.7055569,177.889999389648
549.7211819,177.889999389648
549.7368069,177.880004882813
549.7524319,177.869995117188
549.7680569,177.860000610352
549.7836819,177.850006103516
549.7993069,177.839996337891
549.8149319,177.830001831055
549.8305569,177.820007324219
549.8461819,177.809997558594
549.8618069,177.800003051758
549.8774319,177.789993286133
549.8930569,177.779998779297
549.9086819,177.770004272461
549.9243069,177.759994506836
549.9399319,177.740005493164
549.9555569,177.729995727539
549.9711819,177.720001220703
549.9868069,177.710006713867
550.0024319,177.699996948242
550.0180569,177.690002441406
550.0336819,177.679992675781
550.0493069,177.669998168945
550.0649319,177.649993896484
550.0805569,177.639999389648
550.0961819,177.630004882813
550.1118069,177.619995117188
550.1274319,177.600006103516
550.1430569,177.589996337891
550.1586819,177.570007324219
550.1743069,177.550003051758
550.1899319,177.539993286133
550.2055569,177.520004272461
550.2211819,177.5
550.2368069,177.479995727539
550.2524319,177.470001220703
550.2680569,177.449996948242
550.2836819,177.429992675781
550.2993069,177.419998168945
550.3149319,177.399993896484
550.3305569,177.380004882813
550.3461819,177.369995117188
550.3618069,177.350006103516
550.3774319,177.339996337891
550.3930569,177.320007324219
550.4086819,177.309997558594
550.4243069,177.289993286133
550.4399319,177.279998779297
550.4555569,177.259994506836
550.4711819,177.25
550.4868069,177.240005493164
550.5024319,177.229995727539
550.5180569,177.220001220703
550.5336819,177.210006713867
550.5493069,177.210006713867
550.5649319,177.199996948242
550.5805569,177.199996948242
550.5961819,177.190002441406
550.6118069,177.190002441406
550.6274319,177.190002441406
550.6430569,177.190002441406
550.6586819,177.199996948242
550.6743069,177.199996948242
550.6899319,177.199996948242
550.7055569,177.210006713867
550.7211819,177.210006713867
550.7368069,177.210006713867
550.7524319,177.220001220703
550.7680569,177.220001220703
550.7836819,177.229995727539
550.7993069,177.240005493164
550.8149319,177.240005493164
550.8305569,177.25
550.8461819,177.25
550.8618069,177.259994506836
550.8774319,177.270004272461
550.8930569,177.270004272461
550.9086819,177.279998779297
550.9243069,177.289993286133
550.9399319,177.300003051758
550.9555569,177.300003051758
550.9711819,177.309997558594
550.9868069,177.320007324219
551.0024319,177.330001831055
551.0180569,177.339996337891
551.0336819,177.339996337891
551.0493069,177.350006103516
551.0649319,177.360000610352
551.0805569,177.369995117188
551.0961819,177.380004882813
551.1118069,177.399993896484
551.1274319,177.410003662109
551.1430569,177.419998168945
551.1586819,177.429992675781
551.1743069,177.449996948242
551.1899319,177.460006713867
551.2055569,177.470001220703
551.2211819,177.479995727539
551.2368069,177.5
551.2524319,177.509994506836
551.2680569,177.520004272461
551.2836819,177.529998779297
551.2993069,177.539993286133
551.3149319,177.559997558594
551.3305569,177.570007324219
551.3461819,177.580001831055
551.3618069,177.589996337891
551.3774319,177.600006103516
551.3930569,177.610000610352
551.4086819,177.619995117188
551.4243069,177.630004882813
551.4399319,177.639999389648
551.4555569,177.649993896484
551.4711819,177.660003662109
551.4868069,177.669998168945
551.5024319,177.679992675781
551.5180569,177.690002441406
551.5336819,177.699996948242
551.5493069,177.699996948242
551.5649319,177.710006713867
551.5805569,177.720001220703
551.5961819,177.729995727539
551.6118069,177.729995727539
551.6274319,177.740005493164
551.6430569,177.75
551.6586819,177.759994506836
551.6743069,177.759994506836
551.6899319,177.770004272461
551.7055569,177.779998779297
551.7211819,177.789993286133
551.7368069,177.789993286133
551.7524319,177.800003051758
551.7680569,177.809997558594
551.7836819,177.820007324219
551.7993069,177.830001831055
551.8149319,177.830001831055
551.8305569,177.839996337891
551.8461819,177.850006103516
551.8618069,177.860000610352
551.8774319,177.860000610352
551.8930569,177.869995117188
551.9086819,177.880004882813
551.9243069,177.880004882813
551.9399319,177.889999389648
551.9555569,177.899993896484
551.9711819,177.910003662109
551.9868069,177.910003662109
552.0024319,177.919998168945
552.0180569,177.929992675781
552.0336819,177.940002441406
552.0493069,177.949996948242
552.0649319,177.949996948242
552.0805569,177.960006713867
552.0961819,177.979995727539
552.1118069,177.990005493164
552.1274319,178.009994506836
552.1430569,178.020004272461
552.1586819,178.039993286133
552.1743069,178.070007324219
552.1899319,178.100006103516
552.2055569,178.130004882813
552.2211819,178.160003662109
552.2368069,178.190002441406
552.2524319,178.229995727539
552.2680569,178.270004272461
552.2836819,178.309997558594
552.2993069,178.360000610352
552.3149319,178.399993896484
552.3305569,178.440002441406
552.3461819,178.479995727539
552.3618069,178.529998779297
552.3774319,178.570007324219
552.3930569,178.619995117188
552.4086819,178.660003662109
552.4243069,178.710006713867
552.4399319,178.75
552.4555569,178.789993286133
552.4711819,178.830001831055
552.4868069,178.869995117188
552.5024319,178.899993896484
552.5180569,178.929992675781
552.5336819,178.960006713867
552.5493069,178.979995727539
552.5649319,179.009994506836
552.5805569,179.029998779297
552.5961819,179.050003051758
552.6118069,179.059997558594
552.6274319,179.080001831055
552.6430569,179.100006103516
552.6586819,179.110000610352
552.6743069,179.130004882813
552.6899319,179.139999389648
552.7055569,179.160003662109
552.7211819,179.169998168945
552.7368069,179.190002441406
552.7524319,179.199996948242
552.7680569,179.220001220703
552.7836819,179.229995727539
552.7993069,179.240005493164
552.8149319,179.25
552.8305569,179.259994506836
552.8461819,179.270004272461
552.8618069,179.279998779297
552.8774319,179.279998779297
552.8930569,179.289993286133
552.9086819,179.289993286133
552.9243069,179.300003051758
552.9399319,179.300003051758
552.9555569,179.309997558594
552.9711819,179.309997558594
552.9868069,179.309997558594
553.0024319,179.309997558594
553.0180569,179.309997558594
553.0336819,179.300003051758
553.0493069,179.300003051758
553.0649319,179.289993286133
553.0805569,179.279998779297
553.0961819,179.259994506836
553.1118069,179.25
553.1274319,179.220001220703
553.1430569,179.199996948242
553.1586819,179.169998168945
553.1743069,179.130004882813
553.1899319,179.089996337891
553.2055569,179.059997558594
553.2211819,179.020004272461
553.2368069,178.970001220703
553.2524319,178.929992675781
553.2680569,178.880004882813
553.2836819,178.839996337891
553.2993069,178.789993286133
553.3149319,178.740005493164
553.3305569,178.690002441406
553.3461819,178.639999389648
553.3618069,178.589996337891
553.3774319,178.539993286133
553.3930569,178.5
553.4086819,178.449996948242
553.4243069,178.410003662109
553.4399319,178.369995117188
553.4555569,178.330001831055
553.4711819,178.289993286133
553.4868069,178.25
553.5024319,178.220001220703
553.5180569,178.190002441406
553.5336819,178.160003662109
553.5493069,178.139999389648
553.5649319,178.110000610352
553.5805569,178.080001831055
553.5961819,178.059997558594
553.6118069,178.029998779297
553.6274319,178.009994506836
553.6430569,177.979995727539
553.6586819,177.949996948242
553.6743069,177.929992675781
553.6899319,177.899993896484
553.7055569,177.880004882813
553.7211819,177.860000610352
553.7368069,177.830001831055
553.7524319,177.809997558594
553.7680569,177.789993286133
553.7836819,177.770004272461
553.7993069,177.75
553.8149319,177.740005493164
553.8305569,177.720001220703
553.8461819,177.699996948242
553.8618069,177.690002441406
553.8774319,177.669998168945
553.8930569,177.660003662109
553.9086819,177.649993896484
553.9243069,177.630004882813
553.9399319,177.619995117188
553.9555569,177.600006103516
553.9711819,177.589996337891
553.9868069,177.570007324219
554.0024319,177.550003051758
554.0180569,177.520004272461
554.0336819,177.5
554.0493069,177.470001220703
554.0649319,177.429992675781
554.0805569,177.399993896484
554.0961819,177.350006103516
554.1118069,177.309997558594
554.1274319,177.270004272461
554.1430569,177.220001220703
554.1586819,177.169998168945
554.1743069,177.119995117188
554.1899319,177.059997558594
554.2055569,177.009994506836
554.2211819,176.949996948242
554.2368069,176.889999389648
554.2524319,176.839996337891
554.2680569,176.779998779297
554.2836819,176.720001220703
554.2993069,176.660003662109
554.3149319,176.600006103516
554.3305569,176.539993286133
554.3461819,176.479995727539
554.3618069,176.410003662109
554.3774319,176.350006103516
554.3930569,176.289993286133
554.4086819,176.220001220703
554.4243069,176.149993896484
554.4399319,176.089996337891
554.4555569,176.020004272461
554.4711819,175.940002441406
554.4868069,175.869995117188
554.5024319,175.800003051758
554.5180569,175.720001220703
554.5336819,175.639999389648
554.5493069,175.559997558594
554.5649319,175.479995727539
554.5805569,175.389999389648
554.5961819,175.300003051758
554.6118069,175.199996948242
554.6274319,175.110000610352
554.6430569,175.0
554.6586819,174.899993896484
554.6743069,174.789993286133
554.6899319,174.679992675781
554.7055569,174.570007324219
554.7211819,174.449996948242
554.7368069,174.339996337891
554.7524319,174.220001220703
554.7680569,174.100006103516
554.7836819,173.990005493164
554.7993069,173.869995117188
554.8149319,173.75
554.8305569,173.630004882813
554.8461819,173.509994506836
554.8618069,173.389999389648
554.8774319,173.270004272461
554.8930569,173.160003662109
554.9086819,173.039993286133
554.9243069,172.929992675781
554.9399319,172.820007324219
554.9555569,172.710006713867
554.9711819,172.610000610352
554.9868069,172.509994506836
555.0024319,172.410003662109
555.0180569,172.320007324219
555.0336819,172.229995727539
555.0493069,172.149993896484
555.0649319,172.070007324219
555.0805569,171.990005493164
555.0961819,171.919998168945
555.1118069,171.839996337891
555.1274319,171.770004272461
555.1430569,171.710006713867
555.1586819,171.639999389648
555.1743069,171.580001831055
555.1899319,171.520004272461
555.2055569,171.460006713867
555.2211819,171.410003662109
555.2368069,171.350006103516
555.2524319,171.300003051758
555.2680569,171.25
555.2836819,171.199996948242
555.2993069,171.149993896484
555.3149319,171.110000610352
555.3305569,171.059997558594
555.3461819,171.020004272461
555.3618069,170.970001220703
555.3774319,170.929992675781
555.3930569,170.889999389648
555.4086819,170.850006103516
555.4243069,170.820007324219
555.4399319,170.789993286133
555.4555569,170.75
555.4711819,170.729995727539
555.4868069,170.699996948242
555.5024319,170.679992675781
555.5180569,170.660003662109
555.5336819,170.639999389648
555.5493069,170.630004882813
555.5649319,170.630004882813
555.5805569,170.619995117188
555.5961819,170.619995117188
555.6118069,170.619995117188
555.6274319,170.630004882813
555.6430569,170.639999389648
555.6586819,170.649993896484
555.6743069,170.660003662109
555.6899319,170.669998168945
555.7055569,170.690002441406
555.7211819,170.699996948242
555.7368069,170.710006713867
555.7524319,170.729995727539
555.7680569,170.740005493164
555.7836819,170.759994506836
555.7993069,170.770004272461
555.8149319,170.789993286133
555.8305569,170.800003051758
555.8461819,170.820007324219
555.8618069,170.839996337891
555.8774319,170.860000610352
555.8930569,170.869995117188
555.9086819,170.889999389648
555.9243069,170.910003662109
