Time(s),Value(%)
0.0636142,-6.25
0.0792392,-6.30000019073486
0.0948642,-6.36999988555908
0.1104892,-6.98000001907349
0.1261142,-8.32999992370605
0.1417392,-10.0900001525879
0.1573642,-11.7200002670288
0.1729892,-12.8999996185303
0.1886142,-13.5299997329712
0.2042392,-13.5600004196167
0.2198642,-12.9499998092651
0.2354892,-11.8000001907349
0.2511142,-10.2200002670288
0.2667392,-8.28999996185303
0.2823642,-6.21999979019165
0.2979892,-4.46000003814697
0.3136142,-3.42000007629395
0.3292392,-3.21000003814697
0.3448642,-3.55999994277954
0.3604892,-3.95000004768372
0.3761142,-3.6800000667572
0.3917392,-1.83000004291534
0.4073642,2.52999997138977
0.4229892,9.90999984741211
0.4386142,19.8899993896484
0.4542392,31.0300006866455
0.4698642,41.1599998474121
0.4854892,48.1599998474121
0.5011142,50.8300018310547
0.5167392,49.310001373291
0.5323642,44.7999992370605
0.5479892,38.9500007629395
0.5636142,33.1100006103516
0.5792392,27.9599990844727
0.5948642,23.6399993896484
0.6104892,19.9699993133545
0.6261142,16.5699996948242
0.6417392,13.1300001144409
0.6573642,9.75
0.6729892,6.78000020980835
0.6886142,4.26000022888184
0.7042392,1.79999995231628
0.7198642,-0.959999978542328
0.7354892,-3.92000007629395
0.7511142,-6.67000007629395
0.7667392,-8.92000007629395
0.7823642,-10.8199996948242
0.7979892,-12.7399997711182
0.8136142,-15.039999961853
0.8292392,-17.7600002288818
0.8448642,-20.4699993133545
0.8604892,-22.6200008392334
0.8761142,-23.9400005340576
0.8917392,-24.5900001525879
0.9073642,-24.9099998474121
0.9229892,-25.0300006866455
0.9386142,-24.9099998474121
0.9542392,-24.5499992370605
0.9698642,-23.8799991607666
0.9854892,-22.7399997711182
1.0011142,-21.0
1.0167392,-18.8899993896484
1.0323642,-16.8899993896484
1.0479892,-15.3400001525879
1.0636142,-14.1000003814697
1.0792392,-12.7299995422363
1.0948642,-10.960000038147
1.1104892,-9.01000022888184
1.1261142,-7.25
1.1417392,-5.92999982833862
1.1573642,-5.09000015258789
1.1729892,-4.65999984741211
1.1886142,-4.3899998664856
1.2042392,-3.92000007629395
1.2198642,-2.77999997138977
1.2354892,-0.519999980926514
1.2511142,3.29999995231628
1.2667392,8.88000011444092
1.2823642,15.9200000762939
1.2979892,23.6299991607666
1.3136142,31.1200008392334
1.3292392,37.560001373291
1.3448642,42.1699981689453
1.3604892,44.3300018310547
1.3761142,44.0800018310547
1.3917392,42.2900009155273
1.4073642,40.0999984741211
1.4229892,38.2700004577637
1.4386142,36.810001373291
1.4542392,35.189998626709
1.4698642,32.7700004577637
1.4854892,29.3099994659424
1.5011142,24.9899997711182
1.5167392,20.1499996185303
1.5323642,15.1099996566772
1.5479892,10.1700000762939
1.5636142,5.65000009536743
1.5792392,1.73000001907349
1.5948642,-1.57000005245209
1.6104892,-4.3899998664856
1.6261142,-6.71999979019165
1.6417392,-8.44999980926514
1.6573642,-9.56999969482422
1.6729892,-10.3900003433228
1.6886142,-11.5699996948242
1.7042392,-13.6300001144409
1.7198642,-16.5900001525879
1.7354892,-19.9599990844727
1.7511142,-23.3299999237061
1.7667392,-26.6299991607666
1.7823642,-29.8199996948242
1.7979892,-32.3800010681152
1.8136142,-33.439998626709
1.8292392,-32.3400001525879
1.8448642,-29.2299995422363
1.8604892,-25.2299995422363
1.8761142,-21.8600006103516
1.8917392,-20.1499996185303
1.9073642,-20.1700000762939
1.9229892,-21.1100006103516
1.9386142,-21.9099998474121
1.9542392,-21.8099994659424
1.9698642,-20.75
1.9854892,-19.4099998474121
2.0011142,-18.75
2.0167392,-19.3700008392334
2.0323642,-21.2600002288818
2.0479892,-23.9799995422363
2.0636142,-26.8999996185303
2.0792392,-29.2600002288818
2.0948642,-30.5400009155273
2.1104892,-30.5699996948242
2.1261142,-29.2199993133545
2.1417392,-25.8500003814697
2.1573642,-19.6200008392334
2.1729892,-10.4499998092651
2.1886142,0.310000002384186
2.2042392,10.1800003051758
2.2198642,16.4099998474121
2.2354892,17.2099990844727
2.2511142,12.25
2.2667392,2.25999999046326
2.2823642,-11.6300001144409
2.2979892,-27.6800003051758
2.3136142,-43.0099983215332
2.3292392,-54.2700004577637
2.3448642,-59.2299995422363
2.3604892,-57.6699981689453
2.3761142,-50.7999992370605
2.3917392,-40.2999992370605
2.4073642,-27.9899997711182
2.4229892,-15.7700004577637
2.4386142,-4.98000001907349
2.4542392,4.34999990463257
2.4698642,13.3699998855591
2.4854892,23.2700004577637
2.5011142,34.5400009155273
2.5167392,46.689998626709
2.5323642,58.2700004577637
2.5479892,67.2099990844727
2.5636142,71.6600036621094
2.5792392,71.0400009155273
2.5948642,66.3199996948242
2.6104892,59.4300003051758
2.6261142,52.1800003051758
2.6417392,45.8199996948242
2.6573642,41.2299995422363
2.6729892,38.9500007629395
2.6886142,38.7999992370605
2.7042392,39.3899993896484
2.7198642,38.7400016784668
2.7354892,35.4900016784668
2.7511142,29.7000007629395
2.7667392,22.6200008392334
2.7823642,16.1299991607666
2.7979892,11.8999996185303
2.8136142,10.5699996948242
2.8292392,11.1800003051758
2.8448642,11.6199998855591
2.8604892,9.94999980926514
2.8761142,5.82999992370605
2.8917392,0.850000023841858
2.9073642,-2.51999998092651
2.9229892,-2.5
2.9386142,1.00999999046326
2.9542392,6.6399998664856
2.9698642,12.4300003051758
2.9854892,16.8799991607666
3.0011142,19.4099998474121
3.0167392,20.3799991607666
3.0323642,20.6200008392334
3.0479892,20.8500003814697
3.0636142,21.2199993133545
3.0792392,21.2600002288818
3.0948642,20.2299995422363
3.1104892,17.6200008392334
3.1261142,13.3500003814697
3.1417392,7.6100001335144
3.1573642,0.949999988079071
3.1729892,-5.48000001907349
3.1886142,-10.3599996566772
3.2042392,-12.9200000762939
3.2198642,-13.3199996948242
3.2354892,-12.3599996566772
3.2511142,-10.8299999237061
3.2667392,-9.31999969482422
3.2823642,-8.27000045776367
3.2979892,-8.21000003814697
3.3136142,-9.4399995803833
3.3292392,-11.789999961853
3.3448642,-14.8599996566772
3.3604892,-18.3999996185303
3.3761142,-22.3500003814697
3.3917392,-26.3899993896484
3.4073642,-29.8700008392334
3.4229892,-32.0200004577637
3.4386142,-32.5499992370605
3.4542392,-31.7900009155273
3.4698642,-30.5300006866455
3.4854892,-29.6700000762939
3.5011142,-29.6299991607666
3.5167392,-30.2399997711182
3.5323642,-31.0599994659424
3.5479892,-31.8099994659424
3.5636142,-32.1599998474121
3.5792392,-31.5699996948242
3.5948642,-29.5599994659424
3.6104892,-26.2099990844727
3.6261142,-22.2700004577637
3.6417392,-18.5699996948242
3.6573642,-15.710000038147
3.6729892,-13.8800001144409
3.6886142,-12.8299999237061
3.7042392,-11.8999996185303
3.7198642,-10.3299999237061
3.7354892,-7.6100001335144
3.7511142,-3.64000010490417
3.7667392,1.37999999523163
3.7823642,7.03999996185303
3.7979892,12.6499996185303
3.8136142,17.1800003051758
3.8292392,19.6100006103516
3.8448642,19.5100002288818
3.8604892,17.3899993896484
3.8761142,14.4399995803833
3.8917392,11.8000001907349
3.9073642,10.0
3.9229892,8.96000003814697
3.9386142,8.40999984741211
3.9542392,7.94000005722046
3.9698642,6.90999984741211
3.9854892,4.73000001907349
4.0011142,1.3400000333786
4.0167392,-2.78999996185303
4.0323642,-7.17000007629395
4.0479892,-11.5100002288818
4.0636142,-15.4899997711182
4.0792392,-18.4300003051758
4.0948642,-19.6900005340576
4.1104892,-19.3099994659424
4.1261142,-18.0400009155273
4.1417392,-16.7999992370605
4.1573642,-16.0900001525879
4.1729892,-15.8000001907349
4.1886142,-15.4799995422363
4.2042392,-14.8000001907349
4.2198642,-13.9099998474121
4.2354892,-13.3900003433228
4.2511142,-13.8400001525879
4.2667392,-15.289999961853
4.2823642,-17.1000003814697
4.2979892,-18.4300003051758
4.3136142,-18.6399993896484
4.3292392,-17.5799999237061
4.3448642,-15.5299997329712
4.3604892,-12.960000038147
4.3761142,-10.1599998474121
4.3917392,-7.32999992370605
4.4073642,-4.82999992370605
4.4229892,-3.14000010490417
4.4386142,-2.53999996185303
4.4542392,-2.89000010490417
4.4698642,-3.72000002861023
4.4854892,-4.30000019073486
4.5011142,-4.0
4.5167392,-2.54999995231628
4.5323642,-0.310000002384186
4.5479892,2.00999999046326
4.5636142,4.01999998092651
4.5792392,6.05000019073486
4.5948642,9.0600004196167
4.6104892,14.0200004577637
4.6261142,21.2999992370605
4.6417392,30.25
4.6573642,39.3400001525879
4.6729892,46.8400001525879
4.6886142,51.4000015258789
4.7042392,52.4300003051758
4.7198642,50.1300010681152
4.7354892,45.310001373291
4.7511142,39.1199989318848
4.7667392,32.810001373291
4.7823642,27.5100002288818
4.7979892,24.0499992370605
4.8136142,22.5300006866455
4.8292392,22.1700000762939
4.8448642,21.7800006866455
4.8604892,20.4799995422363
4.8761142,18.1000003814697
4.8917392,15.1099996566772
4.9073642,12.2299995422363
4.9229892,10.1400003433228
4.9386142,9.09000015258789
4.9542392,8.71000003814697
4.9698642,8.23999977111816
4.9854892,7.19999980926514
5.0011142,5.76999998092651
5.0167392,4.34999990463257
5.0323642,2.96000003814697
5.0479892,1.24000000953674
5.0636142,-1.08000004291534
5.0792392,-3.94000005722046
5.0948642,-6.88000011444092
5.1104892,-9.5
5.1261142,-11.6999998092651
5.1417392,-13.6000003814697
5.1573642,-15.1999998092651
5.1729892,-16.3199996948242
5.1886142,-16.7600002288818
5.2042392,-16.6700000762939
5.2198642,-16.3899993896484
5.2354892,-16.1700000762939
5.2511142,-15.9099998474121
5.2667392,-15.4799995422363
5.2823642,-15.0500001907349
5.2979892,-15.0699996948242
5.3136142,-15.75
5.3292392,-16.5799999237061
5.3448642,-16.6499996185303
5.3604892,-15.539999961853
5.3761142,-13.6800003051758
5.3917392,-11.8500003814697
5.4073642,-10.289999961853
5.4229892,-8.22999954223633
5.4386142,-4.38000011444092
5.4542392,1.97000002861023
5.4698642,10.3000001907349
5.4854892,18.8500003814697
5.5011142,25.5200004577637
5.5167392,28.8099994659424
5.5323642,28.5499992370605
5.5479892,25.7999992370605
5.5636142,21.9400005340576
5.5792392,17.8199996948242
5.5948642,13.6099996566772
5.6104892,9.23999977111816
5.6261142,4.84999990463257
5.6417392,0.959999978542328
5.6573642,-1.75999999046326
5.6729892,-3.21000003814697
5.6886142,-3.96000003814697
5.7042392,-4.82999992370605
5.7198642,-6.17000007629395
5.7354892,-7.61999988555908
5.7511142,-8.5
5.7667392,-8.23999977111816
5.7823642,-6.69000005722046
5.7979892,-4.32999992370605
5.8136142,-2.09999990463257
5.8292392,-1.03999996185303
5.8448642,-1.79999995231628
5.8604892,-4.42999982833862
5.8761142,-8.40999984741211
5.8917392,-12.8999996185303
5.9073642,-16.9200000762939
5.9229892,-19.7399997711182
5.9386142,-21.0400009155273
5.9542392,-20.7399997711182
5.9698642,-18.9099998474121
5.9854892,-15.960000038147
6.0011142,-12.7700004577637
6.0167392,-10.2299995422363
6.0323642,-8.6899995803833
6.0479892,-7.92000007629395
6.0636142,-7.51999998092651
6.0792392,-7.36999988555908
6.0948642,-7.46000003814697
6.1104892,-7.80999994277954
6.1261142,-8.39999961853027
6.1417392,-9.19999980926514
6.1573642,-9.85999965667725
6.1729892,-9.56999969482422
6.1886142,-7.32000017166138
6.2042392,-2.44000005722046
6.2198642,4.84000015258789
6.2354892,13.2399997711182
6.2511142,20.7099990844727
6.2667392,25.1499996185303
6.2823642,25.3999996185303
6.2979892,21.9799995422363
6.3136142,16.8600006103516
6.3292392,12.3599996566772
6.3448642,9.89000034332275
6.3604892,9.40999984741211
6.3761142,9.61999988555908
6.3917392,8.89000034332275
6.4073642,6.46000003814697
6.4229892,2.85999989509583
6.4386142,-0.449999988079071
6.4542392,-2.27999997138977
6.4698642,-2.28999996185303
6.4854892,-1.13999998569489
6.5011142,0.0
6.5167392,0.300000011920929
6.5323642,-0.449999988079071
6.5479892,-1.98000001907349
6.5636142,-3.92000007629395
6.5792392,-5.96999979019165
6.5948642,-7.76999998092651
6.6104892,-9.03999996185303
6.6261142,-9.65999984741211
6.6417392,-9.71000003814697
6.6573642,-9.22999954223633
6.6729892,-8.34000015258789
6.6886142,-7.23999977111816
6.7042392,-6.09000015258789
6.7198642,-4.82999992370605
6.7354892,-3.4300000667572
6.7511142,-2.15000009536743
6.7667392,-1.45000004768372
6.7823642,-1.55999994277954
6.7979892,-2.3199999332428
6.8136142,-3.55999994277954
6.8292392,-5.34000015258789
6.8448642,-7.76000022888184
6.8604892,-10.460000038147
6.8761142,-12.5900001525879
6.8917392,-13.2299995422363
6.9073642,-11.8100004196167
6.9229892,-8.03999996185303
6.9386142,-1.8400000333786
6.9542392,6.3600001335144
6.9698642,15.1999998092651
6.9854892,22.4899997711182
7.0011142,26.3500003814697
7.0167392,26.2600002288818
7.0323642,23.2999992370605
7.0479892,19.2299995422363
7.0636142,15.5799999237061
7.0792392,13.2399997711182
7.0948642,12.5100002288818
7.1104892,13.0799999237061
7.1261142,13.9300003051758
7.1417392,13.5500001907349
7.1573642,10.9499998092651
7.1729892,6.46999979019165
7.1886142,1.6599999666214
7.2042392,-1.6599999666214
7.2198642,-2.52999997138977
7.2354892,-1.27999997138977
7.2511142,0.699999988079071
7.2667392,2.02999997138977
7.2823642,1.91999995708466
7.2979892,0.400000005960464
7.3136142,-1.98000001907349
7.3292392,-4.40000009536743
7.3448642,-6.17000007629395
7.3604892,-7.05999994277954
7.3761142,-7.32999992370605
7.3917392,-7.51999998092651
7.4073642,-8.1899995803833
7.4229892,-9.52999973297119
7.4386142,-11.289999961853
7.4542392,-12.9200000762939
7.4698642,-13.8500003814697
7.4854892,-13.5900001525879
7.5011142,-11.8999996185303
7.5167392,-8.96000003814697
7.5323642,-5.6399998664856
7.5479892,-3.30999994277954
7.5636142,-2.9300000667572
7.5792392,-4.36999988555908
7.5948642,-6.57999992370605
7.6104892,-8.30000019073486
7.6261142,-8.72999954223633
7.6417392,-7.78999996185303
7.6573642,-5.92000007629395
7.6729892,-3.5
7.6886142,-0.310000002384186
7.7042392,4.28999996185303
7.7198642,10.5600004196167
7.7354892,17.6700000762939
7.7511142,23.9599990844727
7.7667392,27.8299999237061
7.7823642,28.6100006103516
7.7979892,26.8400001525879
7.8136142,23.7299995422363
7.8292392,20.4599990844727
7.8448642,17.8700008392334
7.8604892,16.3899993896484
7.8761142,16.0499992370605
7.8917392,16.3600006103516
7.9073642,16.4400005340576
7.9229892,15.3100004196167
7.9386142,12.3800001144409
7.9542392,7.76000022888184
7.9698642,2.44000005722046
7.9854892,-2.17000007629395
8.0011142,-5.19999980926514
8.0167392,-6.75
8.0323642,-7.51999998092651
8.0479892,-8.18000030517578
8.0636142,-8.90999984741211
8.0792392,-9.57999992370605
8.0948642,-10.1599998474121
8.1104892,-10.8900003433228
8.1261142,-11.9899997711182
8.1417392,-13.289999961853
8.1573642,-14.1800003051758
8.1729892,-14.0100002288818
8.1886142,-12.7600002288818
8.2042392,-11.3100004196167
8.2198642,-10.8500003814697
8.2354892,-11.8800001144409
8.2511142,-13.9899997711182
8.2667392,-16.2399997711182
8.2823642,-17.7700004577637
8.2979892,-18.2999992370605
8.3136142,-18.0300006866455
8.3292392,-17.3099994659424
8.3448642,-16.2900009155273
8.3604892,-15.1199998855591
8.3761142,-14.0900001525879
8.3917392,-13.3299999237061
8.4073642,-12.8299999237061
8.4229892,-12.5
8.4386142,-12.3699998855591
8.4542392,-12.6700000762939
8.4698642,-13.3699998855591
8.4854892,-13.6000003814697
8.5011142,-11.7200002670288
8.5167392,-6.3899998664856
8.5323642,2.25999999046326
8.5479892,12.539999961853
8.5636142,21.8799991607666
8.5792392,28.1100006103516
8.5948642,30.2099990844727
8.6104892,28.3500003814697
8.6261142,23.5699996948242
8.6417392,17.3400001525879
8.6573642,10.9300003051758
8.6729892,4.98000001907349
8.6886142,-0.419999986886978
8.7042392,-5.44000005722046
8.7198642,-10.1400003433228
8.7354892,-14.4300003051758
8.7511142,-17.9699993133545
8.7667392,-20.3099994659424
8.7823642,-21.0900001525879
8.7979892,-20.3099994659424
8.8136142,-18.3700008392334
8.8292392,-15.9700002670288
8.8448642,-13.9099998474121
8.8604892,-12.7799997329712
8.8761142,-12.5100002288818
8.8917392,-12.3900003433228
8.9073642,-11.5600004196167
8.9229892,-9.63000011444092
8.9386142,-6.76000022888184
8.9542392,-3.52999997138977
8.9698642,-0.560000002384186
8.9854892,1.69000005722046
9.0011142,3.07999992370605
9.0167392,3.85999989509583
9.0323642,4.55000019073486
9.0479892,5.65000009536743
9.0636142,7.38000011444092
9.0792392,9.64000034332275
9.0948642,12.0799999237061
9.1104892,14.210000038147
9.1261142,15.710000038147
9.1417392,16.75
9.1573642,17.8999996185303
9.1729892,19.6000003814697
9.1886142,21.5699996948242
9.2042392,22.8500003814697
9.2198642,22.4899997711182
9.2354892,20.3899993896484
9.2511142,17.5400009155273
9.2667392,15.5500001907349
9.2823642,15.8299999237061
9.2979892,18.8600006103516
9.3136142,23.9200000762939
9.3292392,29.4899997711182
9.3448642,33.9900016784668
9.3604892,36.3699989318848
9.3761142,36.3899993896484
9.3917392,34.4199981689453
9.4073642,31.0
9.4229892,26.5900001525879
9.4386142,21.6900005340576
9.4542392,17.0200004577637
9.4698642,13.2600002288818
9.4854892,10.7399997711182
9.5011142,9.17000007629395
9.5167392,7.92999982833862
9.5323642,6.46999979019165
9.5479892,4.40999984741211
9.5636142,1.63999998569489
9.5792392,-1.71000003814697
9.5948642,-5.26999998092651
9.6104892,-8.61999988555908
9.6261142,-11.4499998092651
9.6417392,-13.6599998474121
9.6573642,-15.210000038147
9.6729892,-16.2700004577637
9.6886142,-17.2099990844727
9.7042392,-18.5900001525879
9.7198642,-21.0699996948242
9.7354892,-25.0200004577637
9.7511142,-30.1200008392334
9.7667392,-35.1599998474121
9.7823642,-38.5499992370605
9.7979892,-39.2200012207031
9.8136142,-37.4300003051758
9.8292392,-34.5999984741211
9.8448642,-32.2999992370605
9.8604892,-31.3299999237061
9.8761142,-31.4899997711182
9.8917392,-31.9599990844727
9.9073642,-31.8899993896484
9.9229892,-30.8700008392334
9.9386142,-28.9699993133545
9.9542392,-26.3400001525879
9.9698642,-23.1299991607666
9.9854892,-19.5
10.0011142,-15.8599996566772
10.0167392,-12.539999961853
10.0323642,-9.39999961853027
10.0479892,-5.65000009536743
10.0636142,-0.400000005960464
10.0792392,6.73000001907349
10.0948642,15.1999998092651
10.1104892,23.7299995422363
10.1261142,31.0
10.1417392,36.3800010681152
10.1573642,40.0200004577637
10.1729892,42.4199981689453
10.1886142,44.2900009155273
10.2042392,46.4599990844727
10.2198642,49.4700012207031
10.2354892,53.060001373291
10.2511142,56.1699981689453
10.2667392,57.5999984741211
10.2823642,56.810001373291
10.2979892,54.0999984741211
10.3136142,50.0800018310547
10.3292392,45.3800010681152
10.3448642,40.5
10.3604892,35.6599998474121
10.3761142,30.9599990844727
10.3917392,26.3400001525879
10.4073642,21.6499996185303
10.4229892,16.6200008392334
10.4386142,10.8900003433228
10.4542392,4.05000019073486
10.4698642,-3.97000002861023
10.4854892,-12.5799999237061
10.5011142,-20.6000003814697
10.5167392,-26.9300003051758
10.5323642,-31.0900001525879
10.5479892,-33.6699981689453
10.5636142,-35.8400001525879
10.5792392,-38.3400001525879
10.5948642,-40.8800010681152
10.6104892,-42.3699989318848
10.6261142,-41.5999984741211
10.6417392,-37.6699981689453
10.6573642,-30.2800006866455
10.6729892,-20.2700004577637
10.6886142,-9.78999996185303
10.7042392,-1.58000004291534
10.7198642,2.35999989509583
10.7354892,1.44000005722046
10.7511142,-4.1399998664856
10.7667392,-13.8400001525879
10.7823642,-26.25
10.7979892,-38.689998626709
10.8136142,-47.9700012207031
10.8292392,-51.8899993896484
10.8448642,-50.060001373291
10.8604892,-43.5499992370605
10.8761142,-34.0999984741211
10.8917392,-23.3600006103516
10.9073642,-12.5500001907349
10.9229892,-2.16000008583069
10.9386142,8.10000038146973
10.9542392,19.0
10.9698642,30.7099990844727
10.9854892,42.2900009155273
11.0011142,51.9099998474121
11.0167392,57.4799995422363
11.0323642,57.2700004577637
11.0479892,50.5999984741211
11.0636142,38.560001373291
11.0792392,23.8999996185303
11.0948642,10.0100002288818
11.1104892,-0.779999971389771
11.1261142,-8.21000003814697
11.1417392,-13.6000003814697
11.1573642,-18.4099998474121
11.1729892,-23.2199993133545
11.1886142,-27.75
11.2042392,-31.4699993133545
11.2198642,-34.060001373291
11.2354892,-35.5499992370605
11.2511142,-36.3899993896484
11.2667392,-37.2799987792969
11.2823642,-38.939998626709
11.2979892,-41.5200004577637
11.3136142,-44.1599998474121
11.3292392,-45.4199981689453
11.3448642,-44.4000015258789
11.3604892,-41.3499984741211
11.3761142,-37.2900009155273
11.3917392,-33.3499984741211
11.4073642,-30.3700008392334
11.4229892,-28.8600006103516
11.4386142,-28.75
11.4542392,-29.2099990844727
11.4698642,-29.1599998474121
11.4854892,-27.9599990844727
11.5011142,-25.8600006103516
