Time(s),Value(%)
0.0636142,26.1900005340576
0.0792392,30.2099990844727
0.0948642,31.9799995422363
0.1104892,32.0999984741211
0.1261142,31.2399997711182
0.1417392,29.8899993896484
0.1573642,28.2900009155273
0.1729892,26.4400005340576
0.1886142,24.1800003051758
0.2042392,21.3799991607666
0.2198642,18.0599994659424
0.2354892,14.4700002670288
0.2511142,11.0100002288818
0.2667392,7.96999979019165
0.2823642,5.57000017166138
0.2979892,3.80999994277954
0.3136142,2.48000001907349
0.3292392,1.23000001907349
0.3448642,-0.219999998807907
0.3604892,-1.97000002861023
0.3761142,-3.9300000667572
0.3917392,-5.98000001907349
0.4073642,-8.02999973297119
0.4229892,-10.0
0.4386142,-11.789999961853
0.4542392,-13.2700004577637
0.4698642,-14.3599996566772
0.4854892,-15.1499996185303
0.5011142,-15.7799997329712
0.5167392,-16.2700004577637
0.5323642,-16.6200008392334
0.5479892,-16.8899993896484
0.5636142,-17.0499992370605
0.5792392,-17.0799999237061
0.5948642,-17.0300006866455
0.6104892,-16.9799995422363
0.6261142,-16.8500003814697
0.6417392,-16.4799995422363
0.6573642,-15.8500003814697
0.6729892,-14.9200000762939
0.6886142,-13.3500003814697
0.7042392,-10.4200000762939
0.7198642,-5.42999982833862
0.7354892,1.79999995231628
0.7511142,10.6300001144409
0.7667392,19.5900001525879
0.7823642,27.0699996948242
0.7979892,32.0699996948242
0.8136142,34.4799995422363
0.8292392,34.8499984741211
0.8448642,33.9300003051758
0.8604892,32.2999992370605
0.8761142,30.2800006866455
0.8917392,27.9300003051758
0.9073642,25.1299991607666
0.9229892,21.8099994659424
0.9386142,18.0499992370605
0.9542392,14.1400003433228
0.9698642,10.4799995422363
0.9854892,7.3600001335144
1.0011142,4.82999992370605
1.0167392,2.75
1.0323642,0.930000007152557
1.0479892,-0.689999997615814
1.0636142,-2.19000005722046
1.0792392,-3.57999992370605
1.0948642,-4.90000009536743
1.1104892,-6.30999994277954
1.1261142,-7.96999979019165
1.1417392,-9.93000030517578
1.1573642,-12.0299997329712
1.1729892,-13.9899997711182
1.1886142,-15.5500001907349
1.2042392,-16.7099990844727
1.2198642,-17.6700000762939
1.2354892,-18.6200008392334
1.2511142,-19.6299991607666
1.2667392,-20.6000003814697
1.2823642,-21.3199996948242
1.2979892,-21.6599998474121
1.3136142,-21.5900001525879
1.3292392,-21.1599998474121
1.3448642,-20.4799995422363
1.3604892,-19.7099990844727
1.3761142,-18.9200000762939
1.3917392,-18.1200008392334
1.4073642,-17.2700004577637
1.4229892,-16.3899993896484
1.4386142,-15.5
1.4542392,-14.5900001525879
1.4698642,-13.6899995803833
1.4854892,-12.6800003051758
1.5011142,-11.3999996185303
1.5167392,-9.86999988555908
1.5323642,-8.3100004196167
1.5479892,-6.8600001335144
1.5636142,-5.3899998664856
1.5792392,-3.44000005722046
1.5948642,-0.25
1.6104892,5.07000017166138
1.6261142,13.1300001144409
1.6417392,23.4799995422363
1.6573642,34.4799995422363
1.6729892,44.0800018310547
1.6886142,50.7000007629395
1.7042392,53.8300018310547
1.7198642,53.9099998474121
1.7354892,51.9300003051758
1.7511142,48.9599990844727
1.7667392,45.7200012207031
1.7823642,42.5400009155273
1.7979892,39.2900009155273
1.8136142,35.6599998474121
1.8292392,31.3999996185303
1.8448642,26.6299991607666
1.8604892,21.7999992370605
1.8761142,17.3400001525879
1.8917392,13.5500001907349
1.9073642,10.5299997329712
1.9229892,8.21000003814697
1.9386142,6.34000015258789
1.9542392,4.55999994277954
1.9698642,2.52999997138977
1.9854892,0.100000001490116
2.0011142,-2.65000009536743
2.0167392,-5.6100001335144
2.0323642,-8.63000011444092
2.0479892,-11.6300001144409
2.0636142,-14.5200004577637
2.0792392,-17.2099990844727
2.0948642,-19.5599994659424
2.1104892,-21.4599990844727
2.1261142,-22.9799995422363
2.1417392,-24.3199996948242
2.1573642,-25.4799995422363
2.1729892,-26.2999992370605
2.1886142,-26.6299991607666
2.2042392,-26.5400009155273
2.2198642,-26.2399997711182
2.2354892,-25.9500007629395
2.2511142,-25.7099990844727
2.2667392,-25.4699993133545
2.2823642,-25.1399993896484
2.2979892,-24.6700000762939
2.3136142,-24.1299991607666
2.3292392,-23.5300006866455
2.3448642,-22.8199996948242
2.3604892,-21.9400005340576
2.3761142,-20.9699993133545
2.3917392,-19.9799995422363
2.4073642,-18.9400005340576
2.4229892,-17.6700000762939
2.4386142,-15.710000038147
2.4542392,-12.3699998855591
2.4698642,-6.96000003814697
2.4854892,0.800000011920929
2.5011142,10.5200004577637
2.5167392,21.0900001525879
2.5323642,30.9599990844727
2.5479892,38.6300010681152
2.5636142,43.1599998474121
2.5792392,44.5200004577637
2.5948642,43.3699989318848
2.6104892,40.7200012207031
2.6261142,37.5200004577637
2.6417392,34.4099998474121
2.6573642,31.5200004577637
2.6729892,28.5599994659424
2.6886142,25.1800003051758
2.7042392,21.3299999237061
2.7198642,17.2800006866455
2.7354892,13.4200000762939
2.7511142,10.039999961853
2.7667392,7.26999998092651
2.7823642,5.1399998664856
2.7979892,3.48000001907349
2.8136142,1.99000000953674
2.8292392,0.370000004768372
2.8448642,-1.62000000476837
2.8604892,-4.07999992370605
2.8761142,-6.88000011444092
2.8917392,-9.78999996185303
2.9073642,-12.6099996566772
2.9229892,-15.2700004577637
2.9386142,-17.6599998474121
2.9542392,-19.6499996185303
2.9698642,-21.1599998474121
2.9854892,-22.1599998474121
3.0011142,-22.7299995422363
3.0167392,-23.1000003814697
3.0323642,-23.4799995422363
3.0479892,-23.9300003051758
3.0636142,-24.3700008392334
3.0792392,-24.6700000762939
3.0948642,-24.8400001525879
3.1104892,-24.9300003051758
3.1261142,-25.0300006866455
3.1417392,-25.1399993896484
3.1573642,-25.0900001525879
3.1729892,-24.6800003051758
3.1886142,-23.6499996185303
3.2042392,-21.5699996948242
3.2198642,-17.8400001525879
3.2354892,-12.0100002288818
3.2511142,-3.97000002861023
3.2667392,5.76000022888184
3.2823642,15.9399995803833
3.2979892,24.7999992370605
3.3136142,30.8600006103516
3.3292392,33.6699981689453
3.3448642,33.7299995422363
3.3604892,32.0900001525879
3.3761142,29.8600006103516
3.3917392,27.7800006866455
3.4073642,26.0
3.4229892,24.2000007629395
3.4386142,22.0100002288818
3.4542392,19.2700004577637
3.4698642,16.0599994659424
3.4854892,12.6899995803833
3.5011142,9.52000045776367
3.5167392,6.8600001335144
3.5323642,4.80999994277954
3.5479892,3.24000000953674
3.5636142,1.88999998569489
3.5792392,0.479999989271164
3.5948642,-1.20000004768372
3.6104892,-3.32999992370605
3.6261142,-5.96999979019165
3.6417392,-8.94999980926514
3.6573642,-11.9700002670288
3.6729892,-14.6599998474121
3.6886142,-16.8400001525879
3.7042392,-18.5799999237061
3.7198642,-20.0699996948242
3.7354892,-21.4500007629395
3.7511142,-22.7399997711182
3.7667392,-23.8999996185303
3.7823642,-24.8500003814697
3.7979892,-25.4899997711182
3.8136142,-25.7399997711182
3.8292392,-25.6000003814697
3.8448642,-25.1200008392334
3.8604892,-24.3600006103516
3.8761142,-23.4699993133545
3.8917392,-22.6000003814697
3.9073642,-21.8899993896484
3.9229892,-21.3199996948242
3.9386142,-20.7700004577637
3.9542392,-20.0699996948242
3.9698642,-19.1399993896484
3.9854892,-18.0499992370605
4.0011142,-16.7900009155273
4.0167392,-15.0699996948242
4.0323642,-12.2200002670288
4.0479892,-7.36999988555908
4.0636142,0.109999999403954
4.0792392,10.0600004196167
4.0948642,21.3400001525879
4.1104892,32.2700004577637
4.1261142,41.2400016784668
4.1417392,47.2700004577637
4.1573642,50.0999984741211
4.1729892,50.25
4.1886142,48.7099990844727
4.2042392,46.4599990844727
4.2198642,44.060001373291
4.2354892,41.6399993896484
4.2511142,39.0699996948242
4.2667392,36.1500015258789
4.2823642,32.7099990844727
4.2979892,28.7900009155273
4.3136142,24.6000003814697
4.3292392,20.5
4.3448642,16.7900009155273
4.3604892,13.710000038147
4.3761142,11.3100004196167
4.3917392,9.32999992370605
4.4073642,7.38000011444092
4.4229892,5.11999988555908
4.4386142,2.44000005722046
4.4542392,-0.620000004768372
4.4698642,-3.90000009536743
4.4854892,-7.19000005722046
4.5011142,-10.3500003814697
4.5167392,-13.2700004577637
4.5323642,-15.8199996948242
4.5479892,-17.9500007629395
4.5636142,-19.7700004577637
4.5792392,-21.3899993896484
4.5948642,-22.8700008392334
4.6104892,-24.25
4.6261142,-25.5300006866455
4.6417392,-26.6000003814697
4.6573642,-27.3199996948242
4.6729892,-27.6599998474121
4.6886142,-27.6800003051758
4.7042392,-27.5
4.7198642,-27.2199993133545
4.7354892,-26.8799991607666
4.7511142,-26.4200000762939
4.7667392,-25.7700004577637
4.7823642,-25.0400009155273
4.7979892,-24.4099998474121
4.8136142,-23.9099998474121
4.8292392,-23.4500007629395
4.8448642,-22.8500003814697
4.8604892,-22.0
4.8761142,-20.8400001525879
4.8917392,-19.0200004577637
4.9073642,-15.8400001525879
4.9229892,-10.4200000762939
4.9386142,-2.25
4.9542392,8.32999992370605
4.9698642,20.1499996185303
4.9854892,31.4400005340576
5.0011142,40.4099998474121
5.0167392,45.7900009155273
5.0323642,47.4099998474121
5.0479892,46.3499984741211
5.0636142,44.2400016784668
5.0792392,42.2799987792969
5.0948642,40.7900009155273
5.1104892,39.4199981689453
5.1261142,37.6399993896484
5.1417392,35.0299987792969
5.1573642,31.4300003051758
5.1729892,27.0
5.1886142,22.2000007629395
5.2042392,17.5799999237061
5.2198642,13.5699996948242
5.2354892,10.3900003433228
5.2511142,8.02000045776367
5.2667392,6.21000003814697
5.2823642,4.46999979019165
5.2979892,2.32999992370605
5.3136142,-0.419999986886978
5.3292392,-3.63000011444092
5.3448642,-6.8899998664856
5.3604892,-9.89999961853027
5.3761142,-12.6199998855591
5.3917392,-15.1999998092651
5.4073642,-17.7399997711182
5.4229892,-20.2099990844727
5.4386142,-22.5699996948242
5.4542392,-24.6900005340576
5.4698642,-26.3799991607666
5.4854892,-27.4799995422363
5.5011142,-28.0200004577637
5.5167392,-28.2000007629395
5.5323642,-28.2800006866455
5.5479892,-28.3400001525879
5.5636142,-28.3299999237061
5.5792392,-28.1100006103516
5.5948642,-27.5699996948242
5.6104892,-26.7600002288818
5.6261142,-25.7600002288818
5.6417392,-24.7299995422363
5.6573642,-23.75
5.6729892,-22.8099994659424
5.6886142,-21.8099994659424
5.7042392,-20.6499996185303
5.7198642,-19.1200008392334
5.7354892,-16.6599998474121
5.7511142,-12.3800001144409
5.7667392,-5.53000020980835
5.7823642,3.98000001907349
5.7979892,15.4200000762939
5.8136142,27.2099990844727
5.8292392,37.3699989318848
5.8448642,44.3300018310547
5.8604892,47.5099983215332
5.8761142,47.3600006103516
5.8917392,44.9799995422363
5.9073642,41.5999984741211
5.9229892,38.189998626709
5.9386142,35.1199989318848
5.9542392,32.2599983215332
5.9698642,29.2600002288818
5.9854892,25.8799991607666
6.0011142,22.1000003814697
6.0167392,18.1900005340576
6.0323642,14.5500001907349
6.0479892,11.5200004577637
6.0636142,9.19999980926514
6.0792392,7.42000007629395
6.0948642,5.90999984741211
6.1104892,4.3899998664856
6.1261142,2.67000007629395
6.1417392,0.639999985694885
6.1573642,-1.72000002861023
6.1729892,-4.42000007629395
6.1886142,-7.40000009536743
6.2042392,-10.5299997329712
6.2198642,-13.5100002288818
6.2354892,-15.960000038147
6.2511142,-17.7700004577637
6.2667392,-19.0499992370605
6.2823642,-20.0400009155273
6.2979892,-20.9400005340576
6.3136142,-21.8400001525879
6.3292392,-22.6800003051758
6.3448642,-23.3500003814697
6.3604892,-23.7199993133545
6.3761142,-23.7399997711182
6.3917392,-23.4300003051758
6.4073642,-22.9300003051758
6.4229892,-22.3400001525879
6.4386142,-21.6499996185303
6.4542392,-20.5699996948242
6.4698642,-18.5
6.4854892,-14.6499996185303
6.5011142,-8.38000011444092
6.5167392,0.330000013113022
6.5323642,10.75
6.5479892,21.5300006866455
6.5636142,31.1299991607666
6.5792392,38.0400009155273
6.5948642,41.4300003051758
6.6104892,41.5099983215332
6.6261142,39.2900009155273
6.6417392,35.9500007629395
6.6573642,32.3600006103516
6.6729892,28.8600006103516
6.6886142,25.4400005340576
6.7042392,21.9300003051758
6.7198642,18.2099990844727
6.7354892,14.2700004577637
6.7511142,10.3100004196167
6.7667392,6.67000007629395
6.7823642,3.59999990463257
6.7979892,1.13999998569489
6.8136142,-0.850000023841858
6.8292392,-2.70000004768372
6.8448642,-4.69000005722046
6.8604892,-6.98000001907349
6.8761142,-9.48999977111816
6.8917392,-12.0799999237061
6.9073642,-14.6199998855591
6.9229892,-17.1499996185303
6.9386142,-19.6900005340576
6.9542392,-22.1800003051758
6.9698642,-24.5100002288818
6.9854892,-26.5400009155273
7.0011142,-28.1299991607666
7.0167392,-29.1900005340576
7.0323642,-29.7299995422363
7.0479892,-29.9799995422363
7.0636142,-30.1599998474121
7.0792392,-30.3600006103516
7.0948642,-30.5200004577637
7.1104892,-30.5499992370605
7.1261142,-30.3899993896484
7.1417392,-30.1000003814697
7.1573642,-29.7800006866455
7.1729892,-29.3600006103516
7.1886142,-28.5
7.2042392,-26.4899997711182
7.2198642,-22.4099998474121
7.2354892,-15.4799995422363
7.2511142,-5.61999988555908
7.2667392,6.36999988555908
7.2823642,19.0300006866455
7.2979892,30.7099990844727
7.3136142,40.0099983215332
7.3292392,46.0200004577637
7.3448642,48.6300010681152
7.3604892,48.4199981689453
7.3761142,46.3400001525879
7.3917392,43.3300018310547
7.4073642,40.1500015258789
7.4229892,37.1199989318848
7.4386142,34.0
7.4542392,30.4099998474121
7.4698642,26.2000007629395
7.4854892,21.6100006103516
7.5011142,17.0400009155273
7.5167392,12.8599996566772
7.5323642,9.28999996185303
7.5479892,6.36999988555908
7.5636142,4.03000020980835
7.5792392,2.02999997138977
7.5948642,0.0
7.6104892,-2.35999989509583
7.6261142,-5.11999988555908
7.6417392,-8.22000026702881
7.6573642,-11.5799999237061
7.6729892,-15.0799999237061
7.6886142,-18.4799995422363
7.7042392,-21.4699993133545
7.7198642,-23.8999996185303
7.7354892,-25.8099994659424
7.7511142,-27.3299999237061
7.7667392,-28.6399993896484
7.7823642,-29.7700004577637
7.7979892,-30.6499996185303
7.8136142,-31.2099990844727
7.8292392,-31.4200000762939
7.8448642,-31.3500003814697
7.8604892,-31.0400009155273
7.8761142,-30.5
7.8917392,-29.7800006866455
7.9073642,-28.9799995422363
7.9229892,-28.2399997711182
7.9386142,-27.5699996948242
7.9542392,-26.7999992370605
7.9698642,-25.4099998474121
7.9854892,-22.5300006866455
8.0011142,-17.1100006103516
8.0167392,-8.40999984741211
8.0323642,3.36999988555908
8.0479892,16.7700004577637
8.0636142,29.5699996948242
8.0792392,40.0400009155273
8.0948642,47.5200004577637
8.1104892,52.2099990844727
8.1261142,54.6699981689453
8.1417392,55.4599990844727
8.1573642,54.9799995422363
8.1729892,53.5400009155273
8.1886142,51.3899993896484
8.2042392,48.5999984741211
8.2198642,45.0900001525879
8.2354892,40.7599983215332
8.2511142,35.75
8.2667392,30.3999996185303
8.2823642,25.0900001525879
8.2979892,20.1900005340576
8.3136142,15.8800001144409
8.3292392,12.1199998855591
8.3448642,8.72000026702881
8.3604892,5.46000003814697
8.3761142,2.19000005722046
8.3917392,-1.22000002861023
8.4073642,-4.90999984741211
8.4229892,-8.98999977111816
8.4386142,-13.4700002670288
8.4542392,-18.1000003814697
8.4698642,-22.5400009155273
8.4854892,-26.5
8.5011142,-29.8299999237061
8.5167392,-32.5999984741211
8.5323642,-34.9099998474121
8.5479892,-36.7099990844727
8.5636142,-37.9000015258789
8.5792392,-38.5800018310547
8.5948642,-39.0099983215332
8.6104892,-39.1699981689453
8.6261142,-38.7400016784668
8.6417392,-37.4500007629395
8.6573642,-35.4500007629395
8.6729892,-33.310001373291
8.6886142,-31.6700000762939
8.7042392,-30.8199996948242
8.7198642,-30.6399993896484
8.7354892,-30.7800006866455
8.7511142,-30.9599990844727
8.7667392,-30.9699993133545
8.7823642,-30.5900001525879
8.7979892,-29.3199996948242
8.8136142,-26.2399997711182
8.8292392,-20.1399993896484
8.8448642,-10.1800003051758
8.8604892,3.39000010490417
8.8761142,19.1700000762939
8.8917392,34.9700012207031
8.9073642,48.6500015258789
8.9229892,58.810001373291
8.9386142,65.0599975585938
8.9542392,67.7900009155273
8.9698642,67.7200012207031
8.9854892,65.6699981689453
9.0011142,62.4099998474121
9.0167392,58.4300003051758
9.0323642,53.9000015258789
9.0479892,48.810001373291
9.0636142,43.1500015258789
9.0792392,37.0
9.0948642,30.6499996185303
9.1104892,24.5300006866455
9.1261142,19.0300006866455
9.1417392,14.2600002288818
9.1573642,10.1300001144409
9.1729892,6.42999982833862
9.1886142,2.86999988555908
9.2042392,-0.75
9.2198642,-4.57999992370605
9.2354892,-8.61999988555908
9.2511142,-12.7600002288818
9.2667392,-16.8400001525879
9.2823642,-20.6599998474121
9.2979892,-24.0699996948242
9.3136142,-27.0200004577637
9.3292392,-29.5699996948242
9.3448642,-31.7700004577637
9.3604892,-33.560001373291
9.3761142,-34.9099998474121
9.3917392,-35.9000015258789
9.4073642,-36.7599983215332
9.4229892,-37.6399993896484
9.4386142,-38.6100006103516
9.4542392,-39.6399993896484
9.4698642,-40.5400009155273
9.4854892,-41.0200004577637
9.5011142,-40.8899993896484
9.5167392,-40.060001373291
9.5323642,-38.6500015258789
9.5479892,-36.7799987792969
9.5636142,-34.310001373291
9.5792392,-30.5699996948242
9.5948642,-24.5100002288818
9.6104892,-15.0600004196167
9.6261142,-1.89999997615814
9.6417392,14.039999961853
9.6573642,30.7999992370605
9.6729892,46.0499992370605
9.6886142,57.9900016784668
9.7042392,65.7200012207031
9.7198642,69.3000030517578
9.7354892,69.4100036621094
9.7511142,67.0599975585938
9.7667392,63.1500015258789
9.7823642,58.2900009155273
9.7979892,52.7400016784668
9.8136142,46.5499992370605
9.8292392,39.7999992370605
9.8448642,32.6800003051758
9.8604892,25.4300003051758
9.8761142,18.2900009155273
9.8917392,11.539999961853
9.9073642,5.53000020980835
9.9229892,0.469999998807907
9.9386142,-3.72000002861023
9.9542392,-7.38000011444092
9.9698642,-10.960000038147
9.9854892,-14.789999961853
10.0011142,-18.8899993896484
10.0167392,-23.0400009155273
10.0323642,-27.0300006866455
10.0479892,-30.7099990844727
10.0636142,-33.9599990844727
10.0792392,-36.6800003051758
10.0948642,-38.8400001525879
10.1104892,-40.5699996948242
10.1261142,-42.1199989318848
10.1417392,-43.6699981689453
10.1573642,-45.2099990844727
10.1729892,-46.5200004577637
10.1886142,-47.439998626709
10.2042392,-47.8800010681152
10.2198642,-47.8199996948242
10.2354892,-47.2200012207031
10.2511142,-46.1199989318848
10.2667392,-44.7200012207031
10.2823642,-43.189998626709
10.2979892,-41.6300010681152
10.3136142,-39.9000015258789
10.3292392,-37.7299995422363
10.3448642,-34.5499992370605
10.3604892,-29.3899993896484
10.3761142,-21.2099990844727
10.3917392,-9.44999980926514
10.4073642,5.51999998092651
10.4229892,22.3500003814697
10.4386142,38.9799995422363
10.4542392,53.310001373291
10.4698642,63.7400016784668
10.4854892,69.7399978637695
10.5011142,71.870002746582
10.5167392,71.2200012207031
10.5323642,68.9300003051758
10.5479892,65.7900009155273
10.5636142,62.0699996948242
10.5792392,57.6699981689453
10.5948642,52.439998626709
10.6104892,46.4199981689453
10.6261142,39.9099998474121
10.6417392,33.3699989318848
10.6573642,27.2800006866455
10.6729892,21.9300003051758
10.6886142,17.2600002288818
10.7042392,12.9899997711182
10.7198642,8.88000011444092
10.7354892,4.8899998664856
10.7511142,1.08000004291534
10.7667392,-2.4300000667572
10.7823642,-5.6100001335144
10.7979892,-8.53999996185303
10.8136142,-11.5100002288818
10.8292392,-14.8400001525879
10.8448642,-18.5400009155273
10.8604892,-22.1399993896484
10.8761142,-25.0499992370605
10.8917392,-26.8099994659424
10.9073642,-27.3500003814697
10.9229892,-27.0200004577637
10.9386142,-26.3600006103516
10.9542392,-25.7999992370605
10.9698642,-25.5300006866455
10.9854892,-25.5699996948242
11.0011142,-25.8199996948242
11.0167392,-26.0799999237061
11.0323642,-26.0599994659424
11.0479892,-25.5300006866455
11.0636142,-24.5100002288818
11.0792392,-23.3199996948242
11.0948642,-22.3299999237061
11.1104892,-21.7399997711182
11.1261142,-21.3899993896484
11.1417392,-20.9400005340576
11.1573642,-19.9500007629395
11.1729892,-17.8099994659424
11.1886142,-13.5699996948242
11.2042392,-6.28999996185303
11.2198642,4.3600001335144
11.2354892,17.6599998474121
11.2511142,31.9899997711182
11.2667392,45.3499984741211
11.2823642,55.9900016784668
11.2979892,62.939998626709
11.3136142,66.129997253418
11.3292392,66.129997253418
11.3448642,63.8699989318848
11.3604892,60.4199981689453
11.3761142,56.7200012207031
11.3917392,53.2599983215332
11.4073642,49.9099998474121
11.4229892,46.1300010681152
11.4386142,41.3699989318848
11.4542392,35.439998626709
11.4698642,28.6100006103516
11.4854892,21.5200004577637
