Time(s),Value(%)
449.0071752,-13.960000038147
449.0228002,-15.8400001525879
449.0384252,-18.1700000762939
449.0540502,-20.3899993896484
449.0696752,-22.2700004577637
449.0853002,-24.1800003051758
449.1009252,-27.0100002288818
449.1165502,-31.6599998474121
449.1321752,-38.3699989318848
449.1478002,-46.8600006103516
449.1634252,-56.7700004577637
449.1790502,-67.8199996948242
449.1946752,-79.4899978637695
449.2103002,-90.5100021362305
449.2259252,-99.0299987792969
449.2415502,-103.819999694824
449.2571752,-105.290000915527
449.2728002,-104.98999786377
449.2884252,-104.150001525879
449.3040502,-103.069999694824
449.3196752,-101.480003356934
449.3353002,-99.120002746582
449.3509252,-96.120002746582
449.3665502,-93.1999969482422
449.3821752,-91.5500030517578
449.3978002,-92.2099990844727
449.4134252,-95.4899978637695
449.4290502,-101.430000305176
449.4446752,-110.410003662109
449.4603002,-122.860000610352
449.4759252,-138.240005493164
449.4915502,-154.339996337891
449.5071752,-167.919998168945
449.5228002,-177.130004882813
449.5384252,-183.149993896484
449.5540502,-188.639999389648
449.5696752,-194.919998168945
449.5853002,-201.610000610352
449.6009252,-208.229995727539
449.6165502,-215.0
449.6321752,-222.119995117188
449.6478002,-228.460006713867
449.6634252,-231.389999389648
449.6790502,-228.440002441406
449.6946752,-219.199996948242
449.7103002,-205.089996337891
449.7259252,-187.779998779297
449.7415502,-168.380004882813
449.7571752,-147.600006103516
449.7728002,-126.199996948242
449.7884252,-104.959999084473
449.8040502,-84.4599990844727
449.8196752,-65.5599975585938
449.8353002,-48.5499992370605
449.8509252,-33.2999992370605
449.8665502,-19.4799995422363
449.8821752,-6.73999977111816
449.8978002,5.13000011444092
449.9134252,16.3600006103516
449.9290502,27.3899993896484
449.9446752,38.9900016784668
449.9603002,51.8400001525879
449.9759252,65.9100036621094
449.9915502,80.5899963378906
450.0071752,95.1100006103516
450.0228002,108.889999389648
450.0384252,121.720001220703
450.0540502,133.610000610352
450.0696752,144.639999389648
450.0853002,154.720001220703
450.1009252,163.550003051758
450.1165502,170.800003051758
450.1321752,176.389999389648
450.1478002,180.470001220703
450.1634252,183.210006713867
450.1790502,184.75
450.1946752,185.350006103516
450.2103002,185.550003051758
450.2259252,186.130004882813
450.2415502,187.649993896484
450.2571752,190.039993286133
450.2728002,192.830001831055
450.2884252,195.619995117188
450.3040502,198.320007324219
450.3196752,200.970001220703
450.3353002,203.559997558594
450.3509252,206.080001831055
450.3665502,208.710006713867
450.3821752,212.029998779297
450.3978002,216.619995117188
450.4134252,222.520004272461
450.4290502,229.080001831055
450.4446752,235.210006713867
450.4603002,239.960006713867
450.4759252,242.899993896484
450.4915502,244.009994506836
450.5071752,243.270004272461
450.5228002,240.270004272461
450.5384252,234.300003051758
450.5540502,225.009994506836
450.5696752,213.039993286133
450.5853002,199.830001831055
450.6009252,186.860000610352
450.6165502,175.039993286133
450.6321752,164.550003051758
450.6478002,155.320007324219
450.6634252,147.360000610352
450.6790502,140.800003051758
450.6946752,135.559997558594
450.7103002,131.160003662109
450.7259252,126.900001525879
450.7415502,122.150001525879
450.7571752,116.709999084473
450.7728002,110.949996948242
450.7884252,105.669998168945
450.8040502,100.870002746582
450.8196752,97.3000030517578
450.8353002,94.4000015258789
450.8509252,91.629997253418
450.8665502,88.75
450.8821752,85.75
450.8978002,82.7300033569336
450.9134252,79.7399978637695
450.9290502,76.6999969482422
450.9446752,73.4300003051758
450.9603002,69.7399978637695
450.9759252,65.6500015258789
450.9915502,61.5499992370605
451.0071752,58.1800003051758
451.0228002,56.2099990844727
451.0384252,55.810001373291
451.0540502,56.7099990844727
451.0696752,58.6199989318848
451.0853002,61.6500015258789
451.1009252,66.2699966430664
451.1165502,72.629997253418
451.1321752,79.9499969482422
451.1478002,86.8499984741211
451.1634252,92.1699981689453
451.1790502,95.5
451.1946752,97.2200012207031
451.2103002,98.2200012207031
451.2259252,99.5299987792969
451.2415502,101.860000610352
451.2571752,105.360000610352
451.2728002,109.870002746582
451.2884252,115.449996948242
451.3040502,122.209999084473
451.3196752,129.850006103516
451.3353002,137.139999389648
451.3509252,142.119995117188
451.3665502,143.320007324219
451.3821752,140.899993896484
451.3978002,136.139999389648
451.4134252,130.139999389648
451.4290502,123.269996643066
451.4446752,115.48999786377
451.4603002,106.839996337891
451.4759252,97.5599975585938
451.4915502,87.9300003051758
451.5071752,78.1100006103516
451.5228002,68.120002746582
451.5384252,57.9500007629395
451.5540502,47.7400016784668
451.5696752,37.7200012207031
451.5853002,28.1000003814697
451.6009252,18.9500007629395
451.6165502,9.98999977111816
451.6321752,0.639999985694885
451.6478002,-9.52999973297119
451.6634252,-20.5499992370605
451.6790502,-31.9400005340576
451.6946752,-43.1800003051758
451.7103002,-53.939998626709
451.7259252,-64.129997253418
451.7415502,-73.8099975585938
451.7571752,-82.9499969482422
451.7728002,-90.8199996948242
451.7884252,-95.9300003051758
451.8040502,-95.6100006103516
451.8196752,-90.9700012207031
451.8353002,-82.7900009155273
451.8509252,-71.870002746582
451.8665502,-58.810001373291
451.8821752,-44.5200004577637
451.8978002,-30.8199996948242
451.9134252,-20.2000007629395
451.9290502,-14.3900003433228
451.9446752,-13.1400003433228
451.9603002,-14.9499998092651
451.9759252,-18.6200008392334
451.9915502,-23.8099994659424
452.0071752,-30.4699993133545
452.0228002,-38.3300018310547
452.0384252,-46.7999992370605
452.0540502,-55.2900009155273
452.0696752,-63.4599990844727
452.0853002,-71.2399978637695
452.1009252,-78.6999969482422
452.1165502,-85.8399963378906
452.1321752,-92.5400009155273
452.1478002,-98.620002746582
452.1634252,-104.059997558594
452.1790502,-109.230003356934
452.1946752,-114.790000915527
452.2103002,-121.410003662109
452.2259252,-129.259994506836
452.2415502,-138.009994506836
452.2571752,-147.110000610352
452.2728002,-156.130004882813
452.2884252,-164.889999389648
452.3040502,-173.380004882813
452.3196752,-181.589996337891
452.3353002,-189.429992675781
452.3509252,-196.729995727539
452.3665502,-203.259994506836
452.3821752,-208.789993286133
452.3978002,-213.110000610352
452.4134252,-216.149993896484
452.4290502,-218.0
452.4446752,-218.919998168945
452.4603002,-219.25
452.4759252,-219.169998168945
452.4915502,-218.350006103516
452.5071752,-215.869995117188
452.5228002,-210.809997558594
452.5384252,-202.960006713867
452.5540502,-192.789993286133
452.5696752,-180.940002441406
452.5853002,-167.940002441406
452.6009252,-154.410003662109
452.6165502,-141.460006713867
452.6321752,-130.720001220703
452.6478002,-123.449996948242
452.6634252,-119.809997558594
452.6790502,-118.959999084473
452.6946752,-119.910003662109
452.7103002,-121.98999786377
452.7259252,-124.75
452.7415502,-127.800003051758
452.7571752,-130.800003051758
452.7728002,-133.639999389648
452.7884252,-136.440002441406
452.8040502,-137.639999389648
452.8196752,-139.199996948242
452.8353002,-141.110000610352
452.8509252,-143.380004882813
452.8665502,-146.020004272461
452.8821752,-148.889999389648
452.8978002,-151.679992675781
452.9134252,-154.0
452.9290502,-155.740005493164
452.9446752,-157.199996948242
452.9603002,-158.699996948242
452.9759252,-160.229995727539
452.9915502,-161.429992675781
453.0071752,-161.889999389648
453.0228002,-161.460006713867
453.0384252,-160.279998779297
453.0540502,-158.789993286133
453.0696752,-157.509994506836
453.0853002,-156.860000610352
453.1009252,-156.899993896484
453.1165502,-157.429992675781
453.1321752,-158.220001220703
453.1478002,-159.089996337891
453.1634252,-159.860000610352
453.1790502,-160.009994506836
453.1946752,-158.740005493164
453.2103002,-155.279998779297
453.2259252,-149.350006103516
453.2415502,-141.300003051758
453.2571752,-131.789993286133
453.2728002,-121.569999694824
453.2884252,-111.209999084473
453.3040502,-101.110000610352
453.3196752,-91.4100036621094
453.3353002,-82.0899963378906
453.3509252,-72.9800033569336
453.3665502,-63.9300003051758
453.3821752,-54.9000015258789
453.3978002,-46.0099983215332
453.4134252,-37.5
453.4290502,-29.5900001525879
453.4446752,-22.3600006103516
453.4603002,-15.8400001525879
453.4759252,-10.1000003814697
453.4915502,-5.30999994277954
453.5071752,-1.60000002384186
453.5228002,1.0900000333786
453.5384252,3.16000008583069
453.5540502,5.11999988555908
453.5696752,7.38000011444092
453.5853002,10.0799999237061
453.6009252,13.0900001525879
453.6165502,16.0699996948242
453.6321752,18.5400009155273
453.6478002,20.1299991607666
453.6634252,20.7900009155273
453.6790502,20.6299991607666
453.6946752,19.7099990844727
453.7103002,18.0699996948242
453.7259252,15.8900003433228
453.7415502,13.7299995422363
453.7571752,12.4499998092651
453.7728002,12.6199998855591
453.7884252,14.0799999237061
453.8040502,16.0799999237061
453.8196752,18.2800006866455
453.8353002,20.6700000762939
453.8509252,23.4200000762939
453.8665502,26.5900001525879
453.8821752,30.0699996948242
453.8978002,33.5699996948242
453.9134252,36.7299995422363
453.9290502,39.2700004577637
453.9446752,41.1800003051758
453.9603002,42.6199989318848
453.9759252,43.810001373291
453.9915502,44.9500007629395
454.0071752,46.1699981689453
454.0228002,47.7799987792969
454.0384252,50.310001373291
454.0540502,54.2799987792969
454.0696752,59.8199996948242
454.0853002,66.5899963378906
454.1009252,73.9700012207031
454.1165502,81.3399963378906
454.1321752,88.2799987792969
454.1478002,94.6100006103516
454.1634252,100.349998474121
454.1790502,105.559997558594
454.1946752,110.199996948242
454.2103002,114.220001220703
454.2259252,117.589996337891
454.2415502,120.319999694824
454.2571752,122.410003662109
454.2728002,123.830001831055
454.2884252,124.669998168945
454.3040502,125.110000610352
454.3196752,125.349998474121
454.3353002,125.470001220703
454.3509252,125.330001831055
454.3665502,124.76000213623
454.3821752,123.800003051758
454.3978002,122.569999694824
454.4134252,121.029998779297
454.4290502,118.98999786377
454.4446752,116.389999389648
454.4603002,113.449996948242
454.4759252,110.639999389648
454.4915502,108.25
454.5071752,106.160003662109
454.5228002,104.050003051758
454.5384252,101.849998474121
454.5540502,99.8199996948242
454.5696752,98.1999969482422
454.5853002,96.9100036621094
454.6009252,95.4800033569336
454.6165502,93.5100021362305
454.6321752,91.0599975585938
454.6478002,88.4300003051758
454.6634252,85.6999969482422
454.6790502,82.5599975585938
454.6946752,78.5999984741211
454.7103002,73.870002746582
454.7259252,68.9499969482422
454.7415502,64.6600036621094
454.7571752,61.5400009155273
454.7728002,59.7299995422363
454.7884252,59.1199989318848
454.8040502,59.5
454.8196752,60.7999992370605
454.8353002,62.8300018310547
454.8509252,65.3399963378906
454.8665502,68.0
454.8821752,70.5400009155273
454.8978002,72.8600006103516
454.9134252,75.0500030517578
454.9290502,77.2900009155273
454.9446752,79.6500015258789
454.9603002,82.0100021362305
454.9759252,84.0999984741211
454.9915502,85.6399993896484
455.0071752,86.5199966430664
455.0228002,86.8600006103516
455.0384252,86.8600006103516
455.0540502,86.6399993896484
455.0696752,86.129997253418
455.0853002,85.2399978637695
455.1009252,84.0100021362305
455.1165502,82.6600036621094
455.1321752,81.4000015258789
455.1478002,80.3199996948242
455.1634252,79.3600006103516
455.1790502,78.2900009155273
455.1946752,76.8099975585938
455.2103002,74.6500015258789
455.2259252,71.7699966430664
455.2415502,68.2099990844727
455.2571752,63.9700012207031
455.2728002,59.0099983215332
455.2884252,53.4700012207031
455.3040502,47.8199996948242
455.3196752,42.7700004577637
455.3353002,38.7900009155273
455.3509252,35.7299995422363
455.3665502,33.0900001525879
455.3821752,30.5499992370605
455.3978002,28.1800003051758
455.4134252,26.1900005340576
455.4290502,24.6599998474121
455.4446752,23.5
455.4603002,22.4400005340576
455.4759252,21.1599998474121
455.4915502,19.4300003051758
455.5071752,17.2299995422363
455.5228002,14.7200002670288
455.5384252,12.1400003433228
455.5540502,9.65999984741211
455.5696752,7.42999982833862
455.5853002,5.57999992370605
455.6009252,4.36999988555908
455.6165502,4.05000019073486
455.6321752,4.6100001335144
455.6478002,5.78999996185303
455.6634252,7.21999979019165
455.6790502,8.61999988555908
455.6946752,9.82999992370605
455.7103002,10.8999996185303
455.7259252,12.0299997329712
455.7415502,13.4200000762939
455.7571752,15.0900001525879
455.7728002,16.8700008392334
455.7884252,18.4699993133545
455.8040502,19.7099990844727
455.8196752,20.2299995422363
455.8353002,19.9300003051758
455.8509252,18.9099998474121
455.8665502,17.4599990844727
455.8821752,15.8699998855591
455.8978002,14.25
455.9134252,12.4700002670288
455.9290502,10.3400001525879
455.9446752,7.92000007629395
455.9603002,5.46999979019165
455.9759252,3.28999996185303
455.9915502,1.50999999046326
456.0071752,0.0099999997764825
456.0228002,-1.46000003814697
456.0384252,-3.3199999332428
456.0540502,-5.84000015258789
456.0696752,-9.09000015258789
456.0853002,-12.9300003051758
456.1009252,-17.2199993133545
456.1165502,-21.8899993896484
456.1321752,-26.7800006866455
456.1478002,-31.4400005340576
456.1634252,-35.2299995422363
456.1790502,-37.6100006103516
456.1946752,-38.5699996948242
456.2103002,-38.5499992370605
456.2259252,-37.9900016784668
456.2415502,-37.1599998474121
456.2571752,-36.1800003051758
456.2728002,-35.1100006103516
456.2884252,-33.9700012207031
456.3040502,-32.689998626709
456.3196752,-31.0599994659424
456.3353002,-28.8500003814697
456.3509252,-25.9699993133545
456.3665502,-22.3799991607666
456.3821752,-17.8999996185303
456.3978002,-12.3599996566772
456.4134252,-5.8600001335144
456.4290502,1.05999994277954
456.4446752,7.76999998092651
456.4603002,13.9700002670288
456.4759252,20.0400009155273
456.4915502,26.4599990844727
456.5071752,33.1199989318848
456.5228002,39.2799987792969
456.5384252,44.2200012207031
456.5540502,47.689998626709
456.5696752,49.939998626709
456.5853002,51.5099983215332
456.6009252,52.9799995422363
456.6165502,54.689998626709
456.6321752,56.7299995422363
456.6478002,59.1599998474121
456.6634252,62.2299995422363
456.6790502,66.2200012207031
456.6946752,71.0400009155273
456.7103002,75.870002746582
456.7259252,79.370002746582
456.7415502,80.5100021362305
456.7571752,79.3199996948242
456.7728002,76.5699996948242
456.7884252,72.9499969482422
456.8040502,69.2300033569336
456.8196752,64.7300033569336
456.8353002,59.5099983215332
456.8509252,53.7799987792969
456.8665502,47.810001373291
456.8821752,41.8199996948242
456.8978002,35.9000015258789
456.9134252,30.0599994659424
456.9290502,24.3600006103516
456.9446752,18.9300003051758
456.9603002,13.9200000762939
456.9759252,9.32999992370605
456.9915502,4.84999990463257
457.0071752,-0.0299999993294477
457.0228002,-5.67000007629395
457.0384252,-11.8500003814697
457.0540502,-17.9699993133545
457.0696752,-23.5400009155273
457.0853002,-28.2099990844727
457.1009252,-31.6299991607666
457.1165502,-33.5299987792969
457.1321752,-34.0099983215332
457.1478002,-33.7400016784668
457.1634252,-33.689998626709
457.1790502,-34.4500007629395
457.1946752,-35.8300018310547
457.2103002,-37.3199996948242
457.2259252,-38.7999992370605
457.2415502,-40.7099990844727
457.2571752,-43.5
457.2728002,-47.25
457.2884252,-51.7099990844727
457.3040502,-56.7000007629395
457.3196752,-62.4500007629395
457.3353002,-69.2900009155273
457.3509252,-77.3899993896484
457.3665502,-86.6500015258789
457.3821752,-97.0500030517578
457.3978002,-108.569999694824
457.4134252,-120.930000305176
457.4290502,-133.539993286133
457.4446752,-145.820007324219
457.4603002,-157.75
457.4759252,-170.050003051758
457.4915502,-183.410003662109
457.5071752,-197.509994506836
457.5228002,-211.160003662109
457.5384252,-223.100006103516
457.5540502,-232.789993286133
457.5696752,-240.520004272461
457.5853002,-247.350006103516
457.6009252,-254.75
457.6165502,-263.869995117188
457.6321752,-274.959991455078
457.6478002,-287.679992675781
457.6634252,-301.809997558594
457.6790502,-317.239990234375
457.6946752,-327.679992675781
457.7103002,-327.679992675781
457.7259252,-327.679992675781
457.7415502,-327.679992675781
457.7571752,-327.679992675781
457.7728002,-327.679992675781
457.7884252,-327.679992675781
457.8040502,-327.679992675781
457.8196752,-327.679992675781
457.8353002,-327.679992675781
457.8509252,-318.130004882813
457.8665502,-306.700012207031
457.8821752,-295.390014648438
457.8978002,-284.459991455078
457.9134252,-274.0
457.9290502,-264.010009765625
457.9446752,-254.559997558594
457.9603002,-245.770004272461
457.9759252,-237.5
457.9915502,-229.100006103516
458.0071752,-219.360000610352
458.0228002,-207.149993896484
458.0384252,-192.119995117188
458.0540502,-174.800003051758
458.0696752,-156.160003662109
458.0853002,-137.160003662109
458.1009252,-118.519996643066
458.1165502,-100.629997253418
458.1321752,-83.5800018310547
458.1478002,-67.129997253418
458.1634252,-50.8199996948242
458.1790502,-34.2400016784668
458.1946752,-17.2999992370605
458.2103002,-0.330000013113022
458.2259252,16.1299991607666
458.2415502,31.6700000762939
458.2571752,46.0299987792969
458.2728002,59.0
458.2884252,70.2699966430664
458.3040502,79.4100036621094
458.3196752,86.2099990844727
458.3353002,90.8499984741211
458.3509252,93.9800033569336
458.3665502,96.4000015258789
458.3821752,98.7900009155273
458.3978002,101.470001220703
458.4134252,104.410003662109
458.4290502,107.430000305176
458.4446752,110.309997558594
458.4603002,112.930000305176
458.4759252,115.300003051758
458.4915502,117.629997253418
458.5071752,120.25
458.5228002,123.470001220703
458.5384252,127.370002746582
458.5540502,131.850006103516
458.5696752,136.910003662109
458.5853002,142.669998168945
458.6009252,149.330001831055
458.6165502,156.789993286133
458.6321752,164.479995727539
458.6478002,171.610000610352
458.6634252,177.600006103516
458.6790502,182.339996337891
458.6946752,186.070007324219
458.7103002,189.220001220703
458.7259252,192.179992675781
458.7415502,195.149993896484
458.7571752,198.139999389648
458.7728002,201.009994506836
458.7884252,203.660003662109
458.8040502,209.740005493164
458.8196752,215.300003051758
458.8353002,220.110000610352
458.8509252,223.669998168945
458.8665502,225.550003051758
458.8821752,225.649993896484
458.8978002,224.300003051758
458.9134252,222.020004272461
458.9290502,219.270004272461
458.9446752,216.339996337891
458.9603002,213.330001831055
458.9759252,210.169998168945
458.9915502,206.720001220703
459.0071752,202.710006713867
459.0228002,197.929992675781
459.0384252,192.380004882813
459.0540502,186.199996948242
459.0696752,179.559997558594
459.0853002,172.589996337891
459.1009252,165.440002441406
459.1165502,158.350006103516
459.1321752,151.630004882813
459.1478002,145.580001831055
459.1634252,140.220001220703
459.1790502,135.399993896484
459.1946752,130.979995727539
459.2103002,126.839996337891
459.2259252,122.940002441406
459.2415502,119.180000305176
459.2571752,115.599998474121
459.2728002,112.660003662109
459.2884252,111.400001525879
459.3040502,112.809997558594
459.3196752,117.099998474121
459.3353002,123.790000915527
459.3509252,132.300003051758
459.3665502,142.179992675781
459.3821752,152.800003051758
459.3978002,162.919998168945
459.4134252,170.830001831055
459.4290502,175.190002441406
459.4446752,175.919998168945
459.4603002,173.820007324219
459.4759252,169.600006103516
459.4915502,163.330001831055
459.5071752,154.75
459.5228002,143.759994506836
459.5384252,130.850006103516
459.5540502,116.809997558594
459.5696752,102.269996643066
459.5853002,87.129997253418
459.6009252,70.7200012207031
459.6165502,52.5999984741211
459.6321752,33.3400001525879
459.6478002,14.3199996948242
459.6634252,-3.14000010490417
459.6790502,-18.4599990844727
459.6946752,-31.8899993896484
459.7103002,-44.2400016784668
459.7259252,-56.5200004577637
459.7415502,-69.4499969482422
459.7571752,-83.1699981689453
