Time(s),Value(%)
1984.010146,17.3600006103516
1984.025771,24.6000003814697
1984.041396,30.2000007629395
1984.057021,33.1199989318848
1984.072646,33.3199996948242
1984.088271,31.5799999237061
1984.103896,29.0100002288818
1984.119521,26.6100006103516
1984.135146,24.8999996185303
1984.150771,23.7299995422363
1984.166396,22.6000003814697
1984.182021,20.9500007629395
1984.197646,18.5200004577637
1984.213271,15.4499998092651
1984.228896,12.1800003051758
1984.244521,9.14999961853027
1984.260146,6.55000019073486
1984.275771,4.34999990463257
1984.291396,2.35999989509583
1984.307021,0.419999986886978
1984.322646,-1.5
1984.338271,-3.38000011444092
1984.353896,-5.19000005722046
1984.369521,-6.94999980926514
1984.385146,-8.64999961853027
1984.400771,-10.2299995422363
1984.416396,-11.6199998855591
1984.432021,-12.8199996948242
1984.447646,-13.8199996948242
1984.463271,-14.6700000762939
1984.478896,-15.3800001144409
1984.494521,-15.8999996185303
1984.510146,-16.2099990844727
1984.525771,-16.3500003814697
1984.541396,-16.4500007629395
1984.557021,-16.5799999237061
1984.572646,-16.7299995422363
1984.588271,-16.7999992370605
1984.603896,-16.7099990844727
1984.619521,-16.4599990844727
1984.635146,-16.0
1984.650771,-15.3699998855591
1984.666396,-14.7299995422363
1984.682021,-14.2399997711182
1984.697646,-13.9099998474121
1984.713271,-13.5699996948242
1984.728896,-13.0299997329712
1984.744521,-12.2799997329712
1984.760146,-11.3699998855591
1984.775771,-10.4399995803833
1984.791396,-9.64999961853027
1984.807021,-9.01000022888184
1984.822646,-8.32999992370605
1984.838271,-7.36999988555908
1984.853896,-5.90999984741211
1984.869521,-3.75999999046326
1984.885146,-0.569999992847443
1984.900771,4.09000015258789
1984.916396,10.210000038147
1984.932021,16.9400005340576
1984.947646,23.0799999237061
1984.963271,27.6800003051758
1984.978896,30.3400001525879
1984.994521,31.1599998474121
1985.010146,30.6399993896484
1985.025771,29.4300003051758
1985.041396,28.1000003814697
1985.057021,26.9899997711182
1985.072646,26.1399993896484
1985.088271,25.3099994659424
1985.103896,24.0900001525879
1985.119521,22.0799999237061
1985.135146,19.1700000762939
1985.150771,15.6300001144409
1985.166396,11.9300003051758
1985.182021,8.52000045776367
1985.197646,5.6399998664856
1985.213271,3.30999994277954
1985.228896,1.41999995708466
1985.244521,-0.209999993443489
1985.260146,-1.75999999046326
1985.275771,-3.30999994277954
1985.291396,-4.94999980926514
1985.307021,-6.76999998092651
1985.322646,-8.73999977111816
1985.338271,-10.6300001144409
1985.353896,-12.1999998092651
1985.369521,-13.3900003433228
1985.385146,-14.3599996566772
1985.400771,-15.1599998474121
1985.416396,-15.6800003051758
1985.432021,-15.9099998474121
1985.447646,-16.0599994659424
1985.463271,-16.3799991607666
1985.478896,-16.8600006103516
1985.494521,-17.3400001525879
1985.510146,-17.5799999237061
1985.525771,-17.4500007629395
1985.541396,-16.9400005340576
1985.557021,-16.2099990844727
1985.572646,-15.5600004196167
1985.588271,-15.1700000762939
1985.603896,-14.9300003051758
1985.619521,-14.6599998474121
1985.635146,-14.2700004577637
1985.650771,-13.789999961853
1985.666396,-13.2299995422363
1985.682021,-12.6099996566772
1985.697646,-11.9700002670288
1985.713271,-11.3199996948242
1985.728896,-10.6000003814697
1985.744521,-9.76000022888184
1985.760146,-8.77000045776367
1985.775771,-7.63000011444092
1985.791396,-6.30000019073486
1985.807021,-4.71000003814697
1985.822646,-2.5699999332428
1985.838271,0.759999990463257
1985.853896,5.8899998664856
1985.869521,12.7299995422363
1985.885146,20.2199993133545
1985.900771,26.8600006103516
1985.916396,31.3700008392334
1985.932021,33.2799987792969
1985.947646,33.0200004577637
1985.963271,31.5200004577637
1985.978896,29.7199993133545
1985.994521,28.1900005340576
1986.010146,27.0300006866455
1986.025771,25.9500007629395
1986.041396,24.4899997711182
1986.057021,22.3299999237061
1986.072646,19.3799991607666
1986.088271,15.8599996566772
1986.103896,12.25
1986.119521,9.06999969482422
1986.135146,6.55000019073486
1986.150771,4.59000015258789
1986.166396,2.92000007629395
1986.182021,1.3400000333786
1986.197646,-0.219999998807907
1986.213271,-1.79999995231628
1986.228896,-3.40000009536743
1986.244521,-5.09000015258789
1986.260146,-6.8600001335144
1986.275771,-8.61999988555908
1986.291396,-10.2700004577637
1986.307021,-11.710000038147
1986.322646,-12.8800001144409
1986.338271,-13.7799997329712
1986.353896,-14.4300003051758
1986.369521,-14.8500003814697
1986.385146,-15.0500001907349
1986.400771,-15.039999961853
1986.416396,-14.8599996566772
1986.432021,-14.6199998855591
1986.447646,-14.4099998474121
1986.463271,-14.2399997711182
1986.478896,-14.1199998855591
1986.494521,-14.0500001907349
1986.510146,-14.0299997329712
1986.525771,-13.9099998474121
1986.541396,-13.539999961853
1986.557021,-12.8999996185303
1986.572646,-12.1800003051758
1986.588271,-11.539999961853
1986.603896,-10.9700002670288
1986.619521,-10.3699998855591
1986.635146,-9.6899995803833
1986.650771,-8.96000003814697
1986.666396,-8.17000007629395
1986.682021,-7.26000022888184
1986.697646,-5.90000009536743
1986.713271,-3.48000001907349
1986.728896,0.610000014305115
1986.744521,6.51000022888184
1986.760146,13.6000003814697
1986.775771,20.6000003814697
1986.791396,26.1200008392334
1986.807021,29.2700004577637
1986.822646,30.0
1986.838271,28.9099998474121
1986.853896,26.8799991607666
1986.869521,24.7700004577637
1986.885146,23.0699996948242
1986.900771,21.7999992370605
1986.916396,20.6700000762939
1986.932021,19.3199996948242
1986.947646,17.4300003051758
1986.963271,14.8400001525879
1986.978896,11.6499996185303
1986.994521,8.23999977111816
1987.010146,5.05000019073486
1987.025771,2.45000004768372
1987.041396,0.519999980926514
1987.057021,-0.879999995231628
1987.072646,-2.03999996185303
1987.088271,-3.22000002861023
1987.103896,-4.63000011444092
1987.119521,-6.26999998092651
1987.135146,-7.96999979019165
1987.150771,-9.47999954223633
1987.166396,-10.6999998092651
1987.182021,-11.6199998855591
1987.197646,-12.3299999237061
1987.213271,-12.9499998092651
1987.228896,-13.5799999237061
1987.244521,-14.1599998474121
1987.260146,-14.6499996185303
1987.275771,-15.039999961853
1987.291396,-15.3000001907349
1987.307021,-15.4300003051758
1987.322646,-15.3699998855591
1987.338271,-15.1199998855591
1987.353896,-14.7399997711182
1987.369521,-14.3699998855591
1987.385146,-14.1000003814697
1987.400771,-13.8400001525879
1987.416396,-13.4099998474121
1987.432021,-12.75
1987.447646,-11.9799995422363
1987.463271,-11.1999998092651
1987.478896,-10.4200000762939
1987.494521,-9.60000038146973
1987.510146,-8.78999996185303
1987.525771,-7.96999979019165
1987.541396,-7.09999990463257
1987.557021,-6.15999984741211
1987.572646,-5.26000022888184
1987.588271,-4.42000007629395
1987.603896,-3.52999997138977
1987.619521,-2.16000008583069
1987.635146,0.340000003576279
1987.650771,4.71000003814697
1987.666396,11.0299997329712
1987.682021,18.4899997711182
1987.697646,25.5799999237061
1987.713271,30.8299999237061
1987.728896,33.4300003051758
1987.744521,33.4099998474121
1987.760146,31.5699996948242
1987.775771,29.0300006866455
1987.791396,26.7600002288818
1987.807021,25.1900005340576
1987.822646,24.1299991607666
1987.838271,22.9899997711182
1987.853896,21.2199993133545
1987.869521,18.6700000762939
1987.885146,15.5500001907349
1987.900771,12.2600002288818
1987.916396,9.18000030517578
1987.932021,6.53000020980835
1987.947646,4.26999998092651
1987.963271,2.26999998092651
1987.978896,0.430000007152557
1987.994521,-1.25
1988.010146,-2.86999988555908
1988.025771,-4.51000022888184
1988.041396,-6.17000007629395
1988.057021,-7.78000020980835
1988.072646,-9.21000003814697
1988.088271,-10.4399995803833
1988.103896,-11.5299997329712
1988.119521,-12.5
1988.135146,-13.3199996948242
1988.150771,-13.9200000762939
1988.166396,-14.2799997329712
1988.182021,-14.3999996185303
1988.197646,-14.3100004196167
1988.213271,-14.0600004196167
1988.228896,-13.789999961853
1988.244521,-13.6400003433228
1988.260146,-13.6400003433228
1988.275771,-13.6899995803833
1988.291396,-13.6199998855591
1988.307021,-13.3299999237061
1988.322646,-12.8699998855591
1988.338271,-12.3100004196167
1988.353896,-11.7700004577637
1988.369521,-11.3599996566772
1988.385146,-11.0900001525879
1988.400771,-10.8299999237061
1988.416396,-10.3599996566772
1988.432021,-9.57999992370605
1988.447646,-8.60999965667725
1988.463271,-7.6399998664856
1988.478896,-6.76999998092651
1988.494521,-6.01999998092651
1988.510146,-5.3899998664856
1988.525771,-4.80000019073486
1988.541396,-4.11999988555908
1988.557021,-3.07999992370605
1988.572646,-1.23000001907349
1988.588271,2.03999996185303
1988.603896,7.13000011444092
1988.619521,13.7799997329712
1988.635146,21.1200008392334
1988.650771,27.9099998474121
1988.666396,32.9799995422363
1988.682021,35.6699981689453
1988.697646,35.9000015258789
1988.713271,34.2000007629395
1988.728896,31.6000003814697
1988.744521,29.1100006103516
1988.760146,27.2399997711182
1988.775771,25.9899997711182
1988.791396,25.1200008392334
1988.807021,24.2900009155273
1988.822646,23.0300006866455
1988.838271,20.9799995422363
1988.853896,18.0
1988.869521,14.3000001907349
1988.885146,10.2700004577637
1988.900771,6.34000015258789
1988.916396,2.84999990463257
1988.932021,-0.0700000002980232
1988.947646,-2.51999998092651
1988.963271,-4.71000003814697
1988.978896,-6.88000011444092
1988.994521,-9.07999992370605
1989.010146,-11.210000038147
1989.025771,-13.1599998474121
1989.041396,-14.9300003051758
1989.057021,-16.6000003814697
1989.072646,-18.2000007629395
1989.088271,-19.7299995422363
1989.103896,-21.1499996185303
1989.119521,-22.4699993133545
1989.135146,-23.6200008392334
1989.150771,-24.5699996948242
1989.166396,-25.3299999237061
1989.182021,-25.9099998474121
1989.197646,-26.1800003051758
1989.213271,-26.1100006103516
1989.228896,-25.7700004577637
1989.244521,-25.2199993133545
1989.260146,-24.5200004577637
1989.275771,-23.7299995422363
1989.291396,-22.8999996185303
1989.307021,-22.0200004577637
1989.322646,-21.1000003814697
1989.338271,-20.2099990844727
1989.353896,-19.3500003814697
1989.369521,-18.4500007629395
1989.385146,-17.4799995422363
1989.400771,-16.4400005340576
1989.416396,-15.3000001907349
1989.432021,-14.0200004577637
1989.447646,-12.5799999237061
1989.463271,-10.8100004196167
1989.478896,-8.22000026702881
1989.494521,-4.07999992370605
1989.510146,1.97000002861023
1989.525771,9.65999984741211
1989.541396,18.0200004577637
1989.557021,25.6800003051758
1989.572646,31.3999996185303
1989.588271,34.4900016784668
1989.603896,35.0900001525879
1989.619521,33.9500007629395
1989.635146,32.0800018310547
1989.650771,30.2900009155273
1989.666396,28.9500007629395
1989.682021,28.0499992370605
1989.697646,27.3299999237061
1989.713271,26.3199996948242
1989.728896,24.5599994659424
1989.744521,21.8600006103516
1989.760146,18.4500007629395
1989.775771,14.8100004196167
1989.791396,11.3500003814697
1989.807021,8.34000015258789
1989.822646,5.82999992370605
1989.838271,3.73000001907349
1989.853896,1.92999994754791
1989.869521,0.270000010728836
1989.885146,-1.4099999666214
1989.900771,-3.27999997138977
1989.916396,-5.32000017166138
1989.932021,-7.32999992370605
1989.947646,-9.0600004196167
1989.963271,-10.3800001144409
1989.978896,-11.3199996948242
1989.994521,-11.9899997711182
1990.010146,-12.3900003433228
1990.025771,-12.5100002288818
1990.041396,-12.3900003433228
1990.057021,-12.1800003051758
1990.072646,-12.0299997329712
1990.088271,-12.0500001907349
1990.103896,-12.2700004577637
1990.119521,-12.5699996948242
1990.135146,-12.8999996185303
1990.150771,-13.3000001907349
1990.166396,-13.8199996948242
1990.182021,-14.3999996185303
1990.197646,-14.8699998855591
1990.213271,-15.1000003814697
1990.228896,-15.0799999237061
1990.244521,-14.9200000762939
1990.260146,-14.6899995803833
1990.275771,-14.3000001907349
1990.291396,-13.5100002288818
1990.307021,-12.1300001144409
1990.322646,-10.0799999237061
1990.338271,-7.34000015258789
1990.353896,-4.01999998092651
1990.369521,-0.409999996423721
1990.385146,2.9300000667572
1990.400771,5.5
1990.416396,7.13000011444092
1990.432021,8.0600004196167
1990.447646,8.71000003814697
1990.463271,9.35999965667725
1990.478896,10.0500001907349
1990.494521,10.6199998855591
1990.510146,10.9399995803833
1990.525771,11.0299997329712
1990.541396,10.9700002670288
1990.557021,10.6999998092651
1990.572646,10.0900001525879
1990.588271,9.14000034332275
1990.603896,8.07999992370605
1990.619521,7.13000011444092
1990.635146,6.30999994277954
1990.650771,5.51999998092651
1990.666396,4.69999980926514
1990.682021,3.88000011444092
1990.697646,3.08999991416931
1990.713271,2.30999994277954
1990.728896,1.47000002861023
1990.744521,0.529999971389771
1990.760146,-0.439999997615814
1990.775771,-1.27999997138977
1990.791396,-1.75999999046326
1990.807021,-1.91999995708466
1990.822646,-2.01999998092651
1990.838271,-2.30999994277954
1990.853896,-2.76999998092651
1990.869521,-3.23000001907349
1990.885146,-3.48000001907349
1990.900771,-3.4300000667572
1990.916396,-3.11999988555908
1990.932021,-2.71000003814697
1990.947646,-2.40000009536743
1990.963271,-2.26999998092651
1990.978896,-2.23000001907349
1990.994521,-2.08999991416931
1991.010146,-1.66999995708466
1991.025771,-0.839999973773956
1991.041396,0.509999990463257
1991.057021,2.46000003814697
1991.072646,4.94999980926514
1991.088271,7.75
1991.103896,10.5500001907349
1991.119521,12.960000038147
1991.135146,14.7299995422363
1991.150771,15.8500003814697
1991.166396,16.4300003051758
1991.182021,16.6200008392334
1991.197646,16.5799999237061
1991.213271,16.4400005340576
1991.228896,16.25
1991.244521,15.960000038147
1991.260146,15.4200000762939
1991.275771,14.5100002288818
1991.291396,13.3299999237061
1991.307021,12.1300001144409
1991.322646,11.0699996948242
1991.338271,10.1199998855591
1991.353896,9.13000011444092
1991.369521,7.92999982833862
1991.385146,6.48999977111816
1991.400771,4.94999980926514
1991.416396,3.5
1991.432021,2.17000007629395
1991.447646,0.860000014305115
1991.463271,-0.519999980926514
1991.478896,-2.01999998092651
1991.494521,-3.59999990463257
1991.510146,-5.1100001335144
1991.525771,-6.3899998664856
1991.541396,-7.34999990463257
1991.557021,-8.02000045776367
1991.572646,-8.48999977111816
1991.588271,-8.85999965667725
1991.603896,-9.11999988555908
1991.619521,-9.23999977111816
1991.635146,-9.27000045776367
1991.650771,-9.36999988555908
1991.666396,-9.59000015258789
1991.682021,-9.63000011444092
1991.697646,-9.01000022888184
1991.713271,-7.11999988555908
1991.728896,-3.44000005722046
1991.744521,2.08999991416931
1991.760146,8.64999961853027
1991.775771,14.7700004577637
1991.791396,19.0499992370605
1991.807021,20.8600006103516
1991.822646,20.5699996948242
1991.838271,19.1200008392334
1991.853896,17.4200000762939
1991.869521,15.8999996185303
1991.885146,14.5900001525879
1991.900771,13.1499996185303
1991.916396,11.1800003051758
1991.932021,8.48999977111816
1991.947646,5.17000007629395
1991.963271,1.55999994277954
1991.978896,-1.95000004768372
1991.994521,-5.07000017166138
1992.010146,-7.67999982833862
1992.025771,-9.8100004196167
1992.041396,-11.4799995422363
1992.057021,-12.7200002670288
1992.072646,-13.6199998855591
1992.088271,-14.3599996566772
1992.103896,-15.1700000762939
1992.119521,-16.2199993133545
1992.135146,-17.5100002288818
1992.150771,-18.9400005340576
1992.166396,-20.4099998474121
1992.182021,-21.8799991607666
1992.197646,-23.2700004577637
1992.213271,-24.3700008392334
1992.228896,-24.8899993896484
1992.244521,-24.7099990844727
1992.260146,-24.0900001525879
1992.275771,-23.4099998474121
1992.291396,-22.9200000762939
1992.307021,-22.6200008392334
1992.322646,-22.3299999237061
1992.338271,-21.8199996948242
1992.353896,-20.9500007629395
1992.369521,-19.8199996948242
1992.385146,-18.6000003814697
1992.400771,-17.3099994659424
1992.416396,-15.6000003814697
1992.432021,-12.6999998092651
1992.447646,-7.76999998092651
1992.463271,-0.529999971389771
1992.478896,8.15999984741211
1992.494521,16.6000003814697
1992.510146,23.1100006103516
1992.525771,26.7900009155273
1992.541396,27.7099990844727
1992.557021,26.6399993896484
1992.572646,24.6399993896484
1992.588271,22.6399993896484
1992.603896,21.0900001525879
1992.619521,19.9500007629395
1992.635146,18.7999992370605
1992.650771,17.1000003814697
1992.666396,14.6000003814697
1992.682021,11.3800001144409
1992.697646,7.8600001335144
1992.713271,4.53000020980835
1992.728896,1.75
1992.744521,-0.370000004768372
1992.760146,-1.91999995708466
1992.775771,-3.0
1992.791396,-3.73000001907349
1992.807021,-4.28000020980835
1992.822646,-4.98999977111816
1992.838271,-6.09999990463257
1992.853896,-7.55999994277954
1992.869521,-9.18000030517578
1992.885146,-10.7700004577637
1992.900771,-12.25
1992.916396,-13.5100002288818
1992.932021,-14.4899997711182
1992.947646,-15.1199998855591
1992.963271,-15.4499998092651
1992.978896,-15.5900001525879
1992.994521,-15.710000038147
1993.010146,-15.8100004196167
1993.025771,-15.7799997329712
1993.041396,-15.4799995422363
1993.057021,-14.9399995803833
1993.072646,-14.3000001907349
1993.088271,-13.6899995803833
1993.103896,-13.1400003433228
1993.119521,-12.6199998855591
1993.135146,-12.0299997329712
1993.150771,-11.1499996185303
1993.166396,-9.40999984741211
1993.182021,-5.92999982833862
1993.197646,0.0
1993.213271,8.27999973297119
1993.228896,17.7199993133545
1993.244521,26.5200004577637
1993.260146,33.0200004577637
1993.275771,36.3899993896484
1993.291396,36.7700004577637
1993.307021,35.060001373291
1993.322646,32.4099998474121
1993.338271,29.75
1993.353896,27.5400009155273
1993.369521,25.7600002288818
1993.385146,24.1000003814697
1993.400771,22.2099990844727
1993.416396,19.8500003814697
1993.432021,17.0
1993.447646,13.8199996948242
1993.463271,10.5900001525879
1993.478896,7.61999988555908
1993.494521,5.17999982833862
1993.510146,3.25
1993.525771,1.62999999523163
1993.541396,0.0900000035762787
1993.557021,-1.48000001907349
1993.572646,-3.17000007629395
1993.588271,-4.92000007629395
1993.603896,-6.6399998664856
1993.619521,-8.27000045776367
1993.635146,-9.77999973297119
1993.650771,-11.1400003433228
1993.666396,-12.3400001525879
1993.682021,-13.4099998474121
1993.697646,-14.4200000762939
1993.713271,-15.3199996948242
1993.728896,-16.0
1993.744521,-16.3299999237061
1993.760146,-16.3299999237061
1993.775771,-16.1399993896484
1993.791396,-15.8999996185303
1993.807021,-15.6800003051758
1993.822646,-15.4499998092651
1993.838271,-15.1899995803833
1993.853896,-14.8800001144409
1993.869521,-14.4899997711182
1993.885146,-13.9700002670288
1993.900771,-13.3100004196167
1993.916396,-12.6000003814697
1993.932021,-11.960000038147
1993.947646,-11.3999996185303
1993.963271,-10.7700004577637
1993.978896,-9.89000034332275
1993.994521,-8.72999954223633
1994.010146,-7.42999982833862
1994.025771,-6.17999982833862
1994.041396,-4.92999982833862
1994.057021,-3.22000002861023
1994.072646,-0.280000001192093
1994.088271,4.55000019073486
1994.103896,11.2200002670288
1994.119521,18.7000007629395
1994.135146,25.4099998474121
1994.150771,29.8899993896484
1994.166396,31.4200000762939
1994.182021,30.3600006103516
1994.197646,27.8799991607666
1994.213271,25.2399997711182
1994.228896,23.1599998474121
1994.244521,21.7099990844727
1994.260146,20.5799999237061
1994.275771,19.4599990844727
1994.291396,18.0599994659424
1994.307021,16.1900005340576
1994.322646,13.8299999237061
1994.338271,11.1999998092651
1994.353896,8.61999988555908
1994.369521,6.40000009536743
1994.385146,4.69999980926514
1994.400771,3.51999998092651
1994.416396,2.67000007629395
1994.432021,1.8400000333786
1994.447646,0.740000009536743
1994.463271,-0.660000026226044
1994.478896,-2.1800000667572
1994.494521,-3.5699999332428
1994.510146,-4.78999996185303
1994.525771,-5.88000011444092
1994.541396,-6.8600001335144
1994.557021,-7.71000003814697
1994.572646,-8.35000038146973
1994.588271,-8.72999954223633
1994.603896,-8.90999984741211
1994.619521,-9.06999969482422
1994.635146,-9.32999992370605
1994.650771,-9.63000011444092
1994.666396,-9.80000019073486
