Time(s),Value(%)
1984.010146,-9.32999992370605
1984.025771,-11.4099998474121
1984.041396,-13.3000001907349
1984.057021,-14.8299999237061
1984.072646,-16.1100006103516
1984.088271,-17.5900001525879
1984.103896,-19.6399993896484
1984.119521,-22.0200004577637
1984.135146,-23.8600006103516
1984.150771,-24.3600006103516
1984.166396,-23.3899993896484
1984.182021,-21.5599994659424
1984.197646,-19.6100006103516
1984.213271,-18.0799999237061
1984.228896,-17.2199993133545
1984.244521,-17.1900005340576
1984.260146,-18.0400009155273
1984.275771,-19.3700008392334
1984.291396,-20.2800006866455
1984.307021,-19.9899997711182
1984.322646,-18.2700004577637
1984.338271,-15.4499998092651
1984.353896,-12.2799997329712
1984.369521,-9.80000019073486
1984.385146,-8.77000045776367
1984.400771,-9.22000026702881
1984.416396,-10.3900003433228
1984.432021,-11.3500003814697
1984.447646,-11.6800003051758
1984.463271,-11.4799995422363
1984.478896,-10.8599996566772
1984.494521,-9.60000038146973
1984.510146,-7.07000017166138
1984.525771,-2.36999988555908
1984.541396,5.05999994277954
1984.557021,14.8599996566772
1984.572646,25.4400005340576
1984.588271,34.5900001525879
1984.603896,40.5400009155273
1984.619521,42.8199996948242
1984.635146,42.1199989318848
1984.650771,39.6500015258789
1984.666396,36.5400009155273
1984.682021,33.6399993896484
1984.697646,31.4899997711182
1984.713271,30.2600002288818
1984.728896,29.5
1984.744521,28.3999996185303
1984.760146,26.5
1984.775771,23.8899993896484
1984.791396,20.8500003814697
1984.807021,17.5
1984.822646,13.8299999237061
1984.838271,9.9399995803833
1984.853896,6.05999994277954
1984.869521,2.26999998092651
1984.885146,-1.46000003814697
1984.900771,-5.07999992370605
1984.916396,-8.22999954223633
1984.932021,-10.5900001525879
1984.947646,-12.3699998855591
1984.963271,-14.210000038147
1984.978896,-16.6100006103516
1984.994521,-19.5499992370605
1985.010146,-22.6100006103516
1985.025771,-25.3199996948242
1985.041396,-27.3099994659424
1985.057021,-28.3999996185303
1985.072646,-28.7800006866455
1985.088271,-28.8199996948242
1985.103896,-28.7000007629395
1985.119521,-28.2299995422363
1985.135146,-27.0100002288818
1985.150771,-24.8600006103516
1985.166396,-22.1499996185303
1985.182021,-19.5100002288818
1985.197646,-17.3400001525879
1985.213271,-15.5900001525879
1985.228896,-14.1300001144409
1985.244521,-13.0600004196167
1985.260146,-12.6000003814697
1985.275771,-12.710000038147
1985.291396,-13.0699996948242
1985.307021,-13.3299999237061
1985.322646,-13.2200002670288
1985.338271,-12.5200004577637
1985.353896,-11.1800003051758
1985.369521,-9.53999996185303
1985.385146,-8.27999973297119
1985.400771,-7.98000001907349
1985.416396,-8.64999961853027
1985.432021,-9.5600004196167
1985.447646,-9.27999973297119
1985.463271,-5.94000005722046
1985.478896,1.88999998569489
1985.494521,13.9499998092651
1985.510146,27.75
1985.525771,39.7200012207031
1985.541396,47.060001373291
1985.557021,48.9599990844727
1985.572646,46.5800018310547
1985.588271,42.1599998474121
1985.603896,37.7700004577637
1985.619521,34.6300010681152
1985.635146,32.8300018310547
1985.650771,31.4599990844727
1985.666396,29.3400001525879
1985.682021,25.8899993896484
1985.697646,21.4400005340576
1985.713271,16.6499996185303
1985.728896,11.9799995422363
1985.744521,7.73999977111816
1985.760146,4.19000005722046
1985.775771,1.55999994277954
1985.791396,-0.0299999993294477
1985.807021,-0.75
1985.822646,-1.01999998092651
1985.838271,-1.46000003814697
1985.853896,-2.58999991416931
1985.869521,-4.76000022888184
1985.885146,-8.14999961853027
1985.900771,-12.3999996185303
1985.916396,-16.5300006866455
1985.932021,-19.3799991607666
1985.947646,-20.3899993896484
1985.963271,-19.8899993896484
1985.978896,-18.7999992370605
1985.994521,-18.0400009155273
1986.010146,-18.1200008392334
1986.025771,-18.9899997711182
1986.041396,-20.1200008392334
1986.057021,-20.8099994659424
1986.072646,-20.75
1986.088271,-20.25
1986.103896,-19.8700008392334
1986.119521,-19.7000007629395
1986.135146,-19.2399997711182
1986.150771,-18.1200008392334
1986.166396,-16.4300003051758
1986.182021,-14.5900001525879
1986.197646,-12.9200000762939
1986.213271,-11.75
1986.228896,-11.4200000762939
1986.244521,-12.0299997329712
1986.260146,-13.1899995803833
1986.275771,-14.1199998855591
1986.291396,-14.0600004196167
1986.307021,-12.5
1986.322646,-9.32999992370605
1986.338271,-4.59999990463257
1986.353896,1.69000005722046
1986.369521,9.57999992370605
1986.385146,18.8600006103516
1986.400771,28.7999992370605
1986.416396,38.1300010681152
1986.432021,45.3899993896484
1986.447646,49.4000015258789
1986.463271,49.7000007629395
1986.478896,46.810001373291
1986.494521,41.9500007629395
1986.510146,36.5
1986.525771,31.7299995422363
1986.541396,28.6100006103516
1986.557021,27.3400001525879
1986.572646,27.0599994659424
1986.588271,26.0900001525879
1986.603896,22.8999996185303
1986.619521,17.1800003051758
1986.635146,10.0299997329712
1986.650771,3.20000004768372
1986.666396,-2.03999996185303
1986.682021,-5.28000020980835
1986.697646,-6.55000019073486
1986.713271,-6.32000017166138
1986.728896,-5.71999979019165
1986.744521,-5.96000003814697
1986.760146,-7.55000019073486
1986.775771,-9.97999954223633
1986.791396,-12.2600002288818
1986.807021,-13.789999961853
1986.822646,-14.5799999237061
1986.838271,-15.0600004196167
1986.853896,-15.6199998855591
1986.869521,-16.5799999237061
1986.885146,-18.2199993133545
1986.900771,-20.4799995422363
1986.916396,-22.7900009155273
1986.932021,-24.3400001525879
1986.947646,-24.6299991607666
1986.963271,-23.7800006866455
1986.978896,-22.3299999237061
1986.994521,-20.9099998474121
1987.010146,-20.0300006866455
1987.025771,-19.9799995422363
1987.041396,-20.5599994659424
1987.057021,-21.1299991607666
1987.072646,-20.9799995422363
1987.088271,-19.8400001525879
1987.103896,-17.8400001525879
1987.119521,-15.1899995803833
1987.135146,-12.1099996566772
1987.150771,-9.09000015258789
1987.166396,-6.98999977111816
1987.182021,-6.44000005722046
1987.197646,-7.19000005722046
1987.213271,-8.17000007629395
1987.228896,-8.40999984741211
1987.244521,-7.59999990463257
1987.260146,-5.71999979019165
1987.275771,-2.04999995231628
1987.291396,4.65999984741211
1987.307021,14.8800001144409
1987.322646,27.4099998474121
1987.338271,39.7400016784668
1987.353896,49.1500015258789
1987.369521,53.75
1987.385146,53.3499984741211
1987.400771,49.5
1987.416396,44.689998626709
1987.432021,40.8800010681152
1987.447646,38.7700004577637
1987.463271,37.9199981689453
1987.478896,37.4000015258789
1987.494521,36.0499992370605
1987.510146,32.7799987792969
1987.525771,27.1000003814697
1987.541396,19.7600002288818
1987.557021,12.6499996185303
1987.572646,7.53999996185303
1987.588271,4.86999988555908
1987.603896,3.76999998092651
1987.619521,3.0
1987.635146,1.54999995231628
1987.650771,-1.20000004768372
1987.666396,-5.32000017166138
1987.682021,-10.1199998855591
1987.697646,-14.3599996566772
1987.713271,-17.0300006866455
1987.728896,-17.8500003814697
1987.744521,-17.3199996948242
1987.760146,-16.1800003051758
1987.775771,-15.1000003814697
1987.791396,-14.6000003814697
1987.807021,-15.1700000762939
1987.822646,-16.8799991607666
1987.838271,-19.2000007629395
1987.853896,-21.1499996185303
1987.869521,-22.0499992370605
1987.885146,-22.0100002288818
1987.900771,-21.6100006103516
1987.916396,-21.3600006103516
1987.932021,-21.3899993896484
1987.947646,-21.5
1987.963271,-21.2399997711182
1987.978896,-20.0699996948242
1987.994521,-17.7099990844727
1988.010146,-14.3900003433228
1988.025771,-10.8999996185303
1988.041396,-8.26000022888184
1988.057021,-7.26000022888184
1988.072646,-8.07999992370605
1988.088271,-10.1599998474121
1988.103896,-12.3400001525879
1988.119521,-13.2799997329712
1988.135146,-12.1700000762939
1988.150771,-9.13000011444092
1988.166396,-5.13000011444092
1988.182021,-1.35000002384186
1988.197646,1.48000001907349
1988.213271,3.46000003814697
1988.228896,5.42999982833862
1988.244521,8.73999977111816
1988.260146,14.8299999237061
1988.275771,24.3199996948242
1988.291396,35.939998626709
1988.307021,46.810001373291
1988.322646,54.0200004577637
1988.338271,56.2999992370605
1988.353896,54.3899993896484
1988.369521,49.9900016784668
1988.385146,44.5699996948242
1988.400771,38.9199981689453
1988.416396,33.5200004577637
1988.432021,28.8600006103516
1988.447646,25.2000007629395
1988.463271,22.2099990844727
1988.478896,19.0799999237061
1988.494521,15.0799999237061
1988.510146,9.96000003814697
1988.525771,4.0
1988.541396,-2.13000011444092
1988.557021,-7.63000011444092
1988.572646,-12.0200004577637
1988.588271,-15.4200000762939
1988.603896,-18.3899993896484
1988.619521,-21.5699996948242
1988.635146,-25.3700008392334
1988.650771,-29.6399993896484
1988.666396,-33.6399993896484
1988.682021,-36.25
1988.697646,-36.6399993896484
1988.713271,-35.060001373291
1988.728896,-32.8699989318848
1988.744521,-31.75
1988.760146,-32.439998626709
1988.775771,-34.310001373291
1988.791396,-36.0
1988.807021,-36.4199981689453
1988.822646,-35.1599998474121
1988.838271,-32.1399993896484
1988.853896,-27.75
1988.869521,-23.2099990844727
1988.885146,-20.2299995422363
1988.900771,-19.8199996948242
1988.916396,-21.7299995422363
1988.932021,-24.8199996948242
1988.947646,-27.7700004577637
1988.963271,-29.5799999237061
1988.978896,-29.8999996185303
1988.994521,-29.0599994659424
1989.010146,-27.8299999237061
1989.025771,-26.7800006866455
1989.041396,-25.8899993896484
1989.057021,-24.5900001525879
1989.072646,-22.4400005340576
1989.088271,-19.5
1989.103896,-16.0799999237061
1989.119521,-11.7700004577637
1989.135146,-5.03999996185303
1989.150771,5.48999977111816
1989.166396,19.5599994659424
1989.182021,34.7400016784668
1989.197646,47.5499992370605
1989.213271,55.0699996948242
1989.228896,56.2999992370605
1989.244521,52.5200004577637
1989.260146,46.4099998474121
1989.275771,40.5499992370605
1989.291396,36.2999992370605
1989.307021,33.6399993896484
1989.322646,31.9899997711182
1989.338271,30.8500003814697
1989.353896,29.8600006103516
1989.369521,28.6800003051758
1989.385146,27.2999992370605
1989.400771,26.2600002288818
1989.416396,26.2600002288818
1989.432021,27.2700004577637
1989.447646,28.1299991607666
1989.463271,27.2900009155273
1989.478896,23.9400005340576
1989.494521,18.5900001525879
1989.510146,12.3100004196167
1989.525771,5.90000009536743
1989.541396,-0.379999995231628
1989.557021,-6.57999992370605
1989.572646,-12.7399997711182
1989.588271,-18.7700004577637
1989.603896,-24.4500007629395
1989.619521,-29.3999996185303
1989.635146,-33.1699981689453
1989.650771,-35.4700012207031
1989.666396,-36.2099990844727
1989.682021,-35.5
1989.697646,-33.4500007629395
1989.713271,-30.2000007629395
1989.728896,-26.0799999237061
1989.744521,-21.5799999237061
1989.760146,-16.9799995422363
1989.775771,-12.2700004577637
1989.791396,-7.55000019073486
1989.807021,-3.21000003814697
1989.822646,0.430000007152557
1989.838271,3.47000002861023
1989.853896,6.13000011444092
1989.869521,8.27999973297119
1989.885146,9.35999965667725
1989.900771,9.0
1989.916396,7.76000022888184
1989.932021,7.23999977111816
1989.947646,9.11999988555908
1989.963271,14.1199998855591
1989.978896,21.5
1989.994521,29.4699993133545
1990.010146,36.0499992370605
1990.025771,39.9799995422363
1990.041396,41.0200004577637
1990.057021,39.6800003051758
1990.072646,36.7400016784668
1990.088271,32.9300003051758
1990.103896,28.8700008392334
1990.119521,25.0699996948242
1990.135146,21.7800006866455
1990.150771,18.7199993133545
1990.166396,15.210000038147
1990.182021,10.6800003051758
1990.197646,5.23999977111816
1990.213271,-0.28999999165535
1990.228896,-4.96000003814697
1990.244521,-8.22000026702881
1990.260146,-10.1400003433228
1990.275771,-11.3100004196167
1990.291396,-12.4700002670288
1990.307021,-14.1099996566772
1990.322646,-16.3199996948242
1990.338271,-18.8799991607666
1990.353896,-21.4500007629395
1990.369521,-23.9300003051758
1990.385146,-26.5799999237061
1990.400771,-29.7099990844727
1990.416396,-33.3300018310547
1990.432021,-37.2700004577637
1990.447646,-41.3800010681152
1990.463271,-45.3600006103516
1990.478896,-48.5699996948242
1990.494521,-50.1399993896484
1990.510146,-49.6199989318848
1990.525771,-47.25
1990.541396,-43.4500007629395
1990.557021,-38.439998626709
1990.572646,-32.3199996948242
1990.588271,-25.5100002288818
1990.603896,-18.5900001525879
1990.619521,-12.1599998474121
1990.635146,-6.67000007629395
1990.650771,-2.30999994277954
1990.666396,1.48000001907349
1990.682021,6.07999992370605
1990.697646,12.8599996566772
1990.713271,21.8199996948242
1990.728896,31.1800003051758
1990.744521,38.4900016784668
1990.760146,42.2099990844727
1990.775771,42.4500007629395
1990.791396,40.4099998474121
1990.807021,37.560001373291
1990.822646,35.1599998474121
1990.838271,34.0499992370605
1990.853896,34.3499984741211
1990.869521,35.1100006103516
1990.885146,34.7799987792969
1990.900771,32.0099983215332
1990.916396,26.5599994659424
1990.932021,19.3400001525879
1990.947646,11.9399995803833
1990.963271,5.78999996185303
1990.978896,1.62000000476837
1990.994521,-0.670000016689301
1991.010146,-1.9099999666214
1991.025771,-2.95000004768372
1991.041396,-4.17000007629395
1991.057021,-5.19999980926514
1991.072646,-5.59000015258789
1991.088271,-5.53000020980835
1991.103896,-5.73999977111816
1991.119521,-6.75
1991.135146,-8.28999996185303
1991.150771,-9.64999961853027
1991.166396,-10.5
1991.182021,-11.1000003814697
1991.197646,-11.8500003814697
1991.213271,-12.9300003051758
1991.228896,-14.25
1991.244521,-15.5900001525879
1991.260146,-16.5200004577637
1991.275771,-16.6000003814697
1991.291396,-15.75
1991.307021,-14.4799995422363
1991.322646,-13.3800001144409
1991.338271,-12.3699998855591
1991.353896,-10.4300003051758
1991.369521,-6.19999980926514
1991.385146,1.13999998569489
1991.400771,11.2600002288818
1991.416396,22.3099994659424
1991.432021,31.4500007629395
1991.447646,36.189998626709
1991.463271,35.8800010681152
1991.478896,31.9799995422363
1991.494521,26.9699993133545
1991.510146,22.6299991607666
1991.525771,19.4200000762939
1991.541396,16.9599990844727
1991.557021,14.8800001144409
1991.572646,12.9300003051758
1991.588271,10.7200002670288
1991.603896,7.76000022888184
1991.619521,3.88000011444092
1991.635146,-0.469999998807907
1991.650771,-4.57999992370605
1991.666396,-7.80999994277954
1991.682021,-9.80000019073486
1991.697646,-10.3900003433228
1991.713271,-9.65999984741211
1991.728896,-8.0600004196167
1991.744521,-6.53000020980835
1991.760146,-6.0
1991.775771,-7.0
1991.791396,-9.52000045776367
1991.807021,-13.210000038147
1991.822646,-17.3700008392334
1991.838271,-20.8899993896484
1991.853896,-22.6399993896484
1991.869521,-22.25
1991.885146,-20.4899997711182
1991.900771,-18.5300006866455
1991.916396,-17.0200004577637
1991.932021,-15.8400001525879
1991.947646,-14.7700004577637
1991.963271,-13.9799995422363
1991.978896,-13.8299999237061
1991.994521,-14.210000038147
1992.010146,-14.5100002288818
1992.025771,-14.0299997329712
1992.041396,-12.1099996566772
1992.057021,-8.02000045776367
1992.072646,-1.27999997138977
1992.088271,7.59999990463257
1992.103896,17.2600002288818
1992.119521,26.1800003051758
1992.135146,33.2400016784668
1992.150771,37.6399993896484
1992.166396,39.0999984741211
1992.182021,38.1500015258789
1992.197646,36.0499992370605
1992.213271,34.0299987792969
1992.228896,32.5800018310547
1992.244521,31.6200008392334
1992.260146,30.7900009155273
1992.275771,29.4599990844727
1992.291396,26.5599994659424
1992.307021,21.0699996948242
1992.322646,12.8699998855591
1992.338271,2.99000000953674
1992.353896,-6.86999988555908
1992.369521,-15.210000038147
1992.385146,-21.1499996185303
1992.400771,-24.5599994659424
1992.416396,-25.8700008392334
1992.432021,-25.8299999237061
1992.447646,-25.2299995422363
1992.463271,-24.5400009155273
1992.478896,-23.7999992370605
1992.494521,-22.9400005340576
1992.510146,-22.1299991607666
1992.525771,-21.7399997711182
1992.541396,-21.9300003051758
1992.557021,-22.4099998474121
1992.572646,-22.6700000762939
1992.588271,-22.4099998474121
1992.603896,-21.7000007629395
1992.619521,-20.7299995422363
1992.635146,-19.5900001525879
1992.650771,-18.2999992370605
1992.666396,-16.9899997711182
1992.682021,-15.789999961853
1992.697646,-14.6599998474121
1992.713271,-13.6300001144409
1992.728896,-12.9300003051758
1992.744521,-12.8100004196167
1992.760146,-13.1400003433228
1992.775771,-13.460000038147
1992.791396,-13.2399997711182
1992.807021,-11.8999996185303
1992.822646,-8.35000038146973
1992.838271,-1.22000002861023
1992.853896,9.81999969482422
1992.869521,23.0599994659424
1992.885146,35.2099990844727
1992.900771,43.2299995422363
1992.916396,45.8300018310547
1992.932021,43.75
1992.947646,38.7799987792969
1992.963271,32.8499984741211
1992.978896,27.4799995422363
1992.994521,23.5
1993.010146,20.7999992370605
1993.025771,18.4300003051758
1993.041396,15.3699998855591
1993.057021,11.1800003051758
1993.072646,6.15000009536743
1993.088271,0.839999973773956
1993.103896,-4.21999979019165
1993.119521,-8.59000015258789
1993.135146,-11.8999996185303
1993.150771,-13.9700002670288
1993.166396,-14.8900003433228
1993.182021,-15.0100002288818
1993.197646,-14.7299995422363
1993.213271,-14.4200000762939
1993.228896,-14.5100002288818
1993.244521,-15.3599996566772
1993.260146,-16.9400005340576
1993.275771,-18.7199993133545
1993.291396,-20.0400009155273
1993.307021,-20.6399993896484
1993.322646,-20.6299991607666
1993.338271,-20.0
1993.353896,-18.5599994659424
1993.369521,-16.5
1993.385146,-14.4300003051758
1993.400771,-12.789999961853
1993.416396,-11.3400001525879
1993.432021,-9.44999980926514
1993.447646,-6.67999982833862
1993.463271,-3.15000009536743
1993.478896,0.75
1993.494521,4.6100001335144
1993.510146,7.69000005722046
1993.525771,9.10999965667725
1993.541396,8.39000034332275
1993.557021,6.0
1993.572646,3.07999992370605
1993.588271,0.660000026226044
1993.603896,-0.870000004768372
1993.619521,-1.76999998092651
1993.635146,-2.57999992370605
1993.650771,-3.72000002861023
1993.666396,-5.36999988555908
1993.682021,-7.28999996185303
1993.697646,-8.63000011444092
1993.713271,-8.0
1993.728896,-4.05000019073486
1993.744521,3.65000009536743
1993.760146,14.1099996566772
1993.775771,25.0699996948242
1993.791396,33.6599998474121
1993.807021,37.689998626709
1993.822646,36.6800003051758
1993.838271,32.1199989318848
1993.853896,26.2999992370605
1993.869521,21.0799999237061
1993.885146,17.3799991607666
1993.900771,15.5200004577637
1993.916396,15.5500001907349
1993.932021,17.1599998474121
1993.947646,19.4400005340576
1993.963271,21.0400009155273
1993.978896,21.0100002288818
1993.994521,19.3799991607666
1994.010146,16.8899993896484
1994.025771,14.1499996185303
1994.041396,11.2799997329712
1994.057021,8.17000007629395
1994.072646,4.84000015258789
1994.088271,1.5
1994.103896,-1.5900000333786
1994.119521,-4.30000019073486
1994.135146,-6.76999998092651
1994.150771,-9.39999961853027
1994.166396,-12.539999961853
1994.182021,-16.0400009155273
1994.197646,-19.3400001525879
1994.213271,-22.1000003814697
1994.228896,-24.3999996185303
1994.244521,-26.3199996948242
1994.260146,-27.5400009155273
1994.275771,-27.5400009155273
1994.291396,-26.3299999237061
1994.307021,-24.8099994659424
1994.322646,-24.1200008392334
1994.338271,-24.8099994659424
1994.353896,-26.75
1994.369521,-29.5499992370605
1994.385146,-32.6800003051758
1994.400771,-35.1500015258789
1994.416396,-35.7400016784668
1994.432021,-33.8400001525879
1994.447646,-29.8400001525879
1994.463271,-24.6100006103516
1994.478896,-18.7299995422363
1994.494521,-12.4399995803833
1994.510146,-6.01000022888184
1994.525771,0.239999994635582
1994.541396,6.05999994277954
1994.557021,11.1800003051758
1994.572646,15.25
1994.588271,17.7600002288818
1994.603896,18.4899997711182
1994.619521,18.0100002288818
1994.635146,17.9599990844727
1994.650771,20.3099994659424
1994.666396,26.4400005340576
1994.682021,36.2900009155273
1994.697646,48.1699981689453
1994.713271,59.310001373291
1994.728896,66.9100036621094
1994.744521,69.4400024414063
1994.760146,67.2200012207031
1994.775771,62.0400009155273
1994.791396,55.9700012207031
1994.807021,50.2200012207031
