Time(s),Value(%)
1371.0062101,40.5800018310547
1371.0218351,31.0
1371.0374601,22.7399997711182
1371.0530851,15.8599996566772
1371.0687101,9.59000015258789
1371.0843351,3.19000005722046
1371.0999601,-3.35999989509583
1371.1155851,-9.52000045776367
1371.1312101,-14.6099996566772
1371.1468351,-18.2600002288818
1371.1624601,-20.4500007629395
1371.1780851,-21.5400009155273
1371.1937101,-22.1599998474121
1371.2093351,-22.8600006103516
1371.2249601,-23.9300003051758
1371.2405851,-25.4200000762939
1371.2562101,-27.1000003814697
1371.2718351,-28.5
1371.2874601,-29.1800003051758
1371.3030851,-29.0200004577637
1371.3187101,-28.2700004577637
1371.3343351,-27.4400005340576
1371.3499601,-26.9200000762939
1371.3655851,-26.8199996948242
1371.3812101,-26.8999996185303
1371.3968351,-26.6700000762939
1371.4124601,-25.6599998474121
1371.4280851,-23.7199993133545
1371.4437101,-20.9799995422363
1371.4593351,-17.5100002288818
1371.4749601,-12.9300003051758
1371.4905851,-6.40000009536743
1371.5062101,2.91000008583069
1371.5218351,15.5600004196167
1371.5374601,31.4099998474121
1371.5530851,49.2099990844727
1371.5687101,66.1800003051758
1371.5843351,78.6600036621094
1371.5999601,83.75
1371.6155851,80.9599990844727
1371.6312101,72.5100021362305
1371.6468351,62.3300018310547
1371.6624601,53.7700004577637
1371.6780851,47.7799987792969
1371.6937101,42.9900016784668
1371.7093351,37.5499992370605
1371.7249601,30.5400009155273
1371.7405851,22.1200008392334
1371.7562101,12.8100004196167
1371.7718351,3.07999992370605
1371.7874601,-6.51000022888184
1371.8030851,-15.0100002288818
1371.8187101,-21.2800006866455
1371.8343351,-24.8199996948242
1371.8499601,-26.1200008392334
1371.8655851,-26.2600002288818
1371.8812101,-26.2399997711182
1371.8968351,-26.6299991607666
1371.9124601,-27.6499996185303
1371.9280851,-29.2099990844727
1371.9437101,-30.8799991607666
1371.9593351,-32.1500015258789
1371.9749601,-32.7900009155273
1371.9905851,-32.7700004577637
1372.0062101,-31.8500003814697
1372.0218351,-29.7399997711182
1372.0374601,-26.6700000762939
1372.0530851,-23.6399993896484
1372.0687101,-21.7700004577637
1372.0843351,-21.6000003814697
1372.0999601,-22.7199993133545
1372.1155851,-23.8999996185303
1372.1312101,-23.3400001525879
1372.1468351,-19.3400001525879
1372.1624601,-11.0900001525879
1372.1780851,0.769999980926514
1372.1937101,14.210000038147
1372.2093351,26.5599994659424
1372.2249601,35.9700012207031
1372.2405851,42.3300018310547
1372.2562101,46.9599990844727
1372.2718351,51.3699989318848
1372.2874601,55.9000015258789
1372.3030851,59.2400016784668
1372.3187101,59.2700004577637
1372.3343351,54.8600006103516
1372.3499601,46.9300003051758
1372.3655851,37.8199996948242
1372.3812101,29.4599990844727
1372.3968351,22.2600002288818
1372.4124601,15.4899997711182
1372.4280851,8.47000026702881
1372.4437101,1.22000002861023
1372.4593351,-5.73000001907349
1372.4749601,-12.1000003814697
1372.4905851,-17.9599990844727
1372.5062101,-23.3500003814697
1372.5218351,-27.6900005340576
1372.5374601,-30.2600002288818
1372.5530851,-31.0699996948242
1372.5687101,-31.2000007629395
1372.5843351,-32.0400009155273
1372.5999601,-34.1699981689453
1372.6155851,-36.9799995422363
1372.6312101,-39.1500015258789
1372.6468351,-39.6800003051758
1372.6624601,-38.689998626709
1372.6780851,-37.2400016784668
1372.6937101,-36.2900009155273
1372.7093351,-35.7000007629395
1372.7249601,-34.0499992370605
1372.7405851,-29.9099998474121
1372.7562101,-23.6200008392334
1372.7718351,-17.5499992370605
1372.7874601,-14.1700000762939
1372.8030851,-13.75
1372.8187101,-13.8400001525879
1372.8343351,-10.8500003814697
1372.8499601,-2.38000011444092
1372.8655851,11.0699996948242
1372.8812101,26.3099994659424
1372.8968351,39.3199996948242
1372.9124601,47.4599990844727
1372.9280851,50.4599990844727
1372.9437101,49.9000015258789
1372.9593351,47.8499984741211
1372.9749601,45.6300010681152
1372.9905851,43.4199981689453
1373.0062101,40.4000015258789
1373.0218351,35.3800010681152
1373.0374601,27.6700000762939
1373.0530851,17.8600006103516
1373.0687101,7.59000015258789
1373.0843351,-1.50999999046326
1373.0999601,-8.92000007629395
1373.1155851,-15.0699996948242
1373.1312101,-20.5799999237061
1373.1468351,-25.6100006103516
1373.1624601,-29.8999996185303
1373.1780851,-33.1399993896484
1373.1937101,-35.3199996948242
1373.2093351,-36.689998626709
1373.2249601,-37.5499992370605
1373.2405851,-38.4199981689453
1373.2562101,-39.939998626709
1373.2718351,-42.4500007629395
1373.2874601,-45.560001373291
1373.3030851,-48.1599998474121
1373.3187101,-49.0900001525879
1373.3343351,-48.0400009155273
1373.3499601,-45.7700004577637
1373.3655851,-43.0699996948242
1373.3812101,-40.0299987792969
1373.3968351,-36.3800010681152
1373.4124601,-32.3800010681152
1373.4280851,-29.0300006866455
1373.4437101,-27.1399993896484
1373.4593351,-26.3799991607666
1373.4749601,-25.0599994659424
1373.4905851,-21.0499992370605
1373.5062101,-12.7299995422363
1373.5218351,0.349999994039536
1373.5374601,17.3099994659424
1373.5530851,35.75
1373.5687101,52.2999992370605
1373.5843351,64.0199966430664
1373.5999601,69.7799987792969
1373.6155851,70.5599975585938
1373.6312101,68.5500030517578
1373.6468351,65.870002746582
1373.6624601,63.5400009155273
1373.6780851,61.2999992370605
1373.6937101,58.0999984741211
1373.7093351,52.9500007629395
1373.7249601,45.6300010681152
1373.7405851,37.0200004577637
1373.7562101,29.1200008392334
1373.7718351,24.6900005340576
1373.7874601,25.8400001525879
1373.8030851,31.8899993896484
1373.8187101,39.0299987792969
1373.8343351,42.5299987792969
1373.8499601,39.5200004577637
1373.8655851,30.3600006103516
1373.8812101,18.0599994659424
1373.8968351,6.17999982833862
1373.9124601,-3.11999988555908
1373.9280851,-9.5600004196167
1373.9437101,-13.6300001144409
1373.9593351,-15.6400003433228
1373.9749601,-15.8400001525879
1373.9905851,-15.4099998474121
1374.0062101,-16.4799995422363
1374.0218351,-20.7099990844727
1374.0374601,-27.9699993133545
1374.0530851,-36.0999984741211
1374.0687101,-42.1100006103516
1374.0843351,-43.5999984741211
1374.0999601,-39.7999992370605
1374.1155851,-31.6800003051758
1374.1312101,-21.4899997711182
1374.1468351,-11.5100002288818
1374.1624601,-2.67000007629395
1374.1780851,5.78000020980835
1374.1937101,15.1499996185303
1374.2093351,25.6599998474121
1374.2249601,36.0299987792969
1374.2405851,44.3400001525879
1374.2562101,49.2599983215332
1374.2718351,50.5400009155273
1374.2874601,48.8300018310547
1374.3030851,45.3499984741211
1374.3187101,41.310001373291
1374.3343351,37.310001373291
1374.3499601,33.0900001525879
1374.3655851,28.0200004577637
1374.3812101,21.7000007629395
1374.3968351,14.2700004577637
1374.4124601,6.17999982833862
1374.4280851,-2.13000011444092
1374.4437101,-10.539999961853
1374.4593351,-18.9899997711182
1374.4749601,-26.9699993133545
1374.4905851,-33.5200004577637
1374.5062101,-37.6399993896484
1374.5218351,-39.0299987792969
1374.5374601,-38.2700004577637
1374.5530851,-36.7000007629395
1374.5687101,-35.8699989318848
1374.5843351,-36.7799987792969
1374.5999601,-39.4000015258789
1374.6155851,-42.7999992370605
1374.6312101,-45.6199989318848
1374.6468351,-46.7200012207031
1374.6624601,-45.810001373291
1374.6780851,-43.4700012207031
1374.6937101,-40.6800003051758
1374.7093351,-38.3600006103516
1374.7249601,-36.9599990844727
1374.7405851,-36.2700004577637
1374.7562101,-35.560001373291
1374.7718351,-34.25
1374.7874601,-32.2599983215332
1374.8030851,-30.0300006866455
1374.8187101,-27.8600006103516
1374.8343351,-25.4500007629395
1374.8499601,-21.6399993896484
1374.8655851,-15.0
1374.8812101,-4.94000005722046
1374.8968351,7.69000005722046
1374.9124601,21.1599998474121
1374.9280851,33.6199989318848
1374.9437101,43.6699981689453
1374.9593351,50.6800003051758
1374.9749601,54.7000007629395
1374.9905851,56.3400001525879
1375.0062101,56.2200012207031
1375.0218351,54.6800003051758
1375.0374601,51.7299995422363
1375.0530851,47.3300018310547
1375.0687101,41.6599998474121
1375.0843351,35.2299995422363
1375.0999601,28.5599994659424
1375.1155851,21.9200000762939
1375.1312101,15.2700004577637
1375.1468351,8.68000030517578
1375.1624601,2.52999997138977
1375.1780851,-2.8199999332428
1375.1937101,-7.30000019073486
1375.2093351,-10.9700002670288
1375.2249601,-13.8900003433228
1375.2405851,-15.9700002670288
1375.2562101,-17.1200008392334
1375.2718351,-17.5300006866455
1375.2874601,-17.5900001525879
1375.3030851,-17.5499992370605
1375.3187101,-17.4300003051758
1375.3343351,-17.2900009155273
1375.3499601,-17.2999992370605
1375.3655851,-17.4899997711182
1375.3812101,-17.6299991607666
1375.3968351,-17.3700008392334
1375.4124601,-16.5300006866455
1375.4280851,-15.1800003051758
1375.4437101,-13.5500001907349
1375.4593351,-12.039999961853
1375.4749601,-11.039999961853
1375.4905851,-10.8100004196167
1375.5062101,-11.25
1375.5218351,-11.75
1375.5374601,-11.210000038147
1375.5530851,-8.27999973297119
1375.5687101,-2.16000008583069
1375.5843351,6.84999990463257
1375.5999601,17.3700008392334
1375.6155851,27.4500007629395
1375.6312101,35.5
1375.6468351,40.7299995422363
1375.6624601,43.0999984741211
1375.6780851,43.0099983215332
1375.6937101,41.1100006103516
1375.7093351,38.060001373291
1375.7249601,34.3899993896484
1375.7405851,30.3500003814697
1375.7562101,25.8899993896484
1375.7718351,20.7600002288818
1375.7874601,14.8999996185303
1375.8030851,8.75
1375.8187101,3.07999992370605
1375.8343351,-1.48000001907349
1375.8499601,-4.84999990463257
1375.8655851,-7.40999984741211
1375.8812101,-9.77999973297119
1375.8968351,-12.3599996566772
1375.9124601,-15.1599998474121
1375.9280851,-18.0699996948242
1375.9437101,-20.8700008392334
1375.9593351,-23.3999996185303
1375.9749601,-25.6000003814697
1375.9905851,-27.6100006103516
1376.0062101,-29.6100006103516
1376.0218351,-31.5599994659424
1376.0374601,-33.2099990844727
1376.0530851,-34.1800003051758
1376.0687101,-34.189998626709
1376.0843351,-33.189998626709
1376.0999601,-31.4400005340576
1376.1155851,-29.3899993896484
1376.1312101,-27.3999996185303
1376.1468351,-25.6200008392334
1376.1624601,-23.8500003814697
1376.1780851,-21.5200004577637
1376.1937101,-17.75
1376.2093351,-11.6099996566772
1376.2249601,-2.55999994277954
1376.2405851,9.25
1376.2562101,23.0
1376.2718351,37.2999992370605
1376.2874601,50.4300003051758
1376.3030851,60.5400009155273
1376.3187101,66.4100036621094
1376.3343351,67.9800033569336
1376.3499601,66.1800003051758
1376.3655851,62.3699989318848
1376.3812101,57.7099990844727
1376.3968351,52.7700004577637
1376.4124601,47.4300003051758
1376.4280851,41.310001373291
1376.4437101,34.2400016784668
1376.4593351,26.4699993133545
1376.4749601,18.5599994659424
1376.4905851,11.0500001907349
1376.5062101,4.23999977111816
1376.5218351,-1.86000001430511
1376.5374601,-7.30999994277954
1376.5530851,-12.1700000762939
1376.5687101,-16.4899997711182
1376.5843351,-20.2399997711182
1376.5999601,-23.3500003814697
1376.6155851,-25.9699993133545
1376.6312101,-28.4200000762939
1376.6468351,-30.9500007629395
1376.6624601,-33.4599990844727
1376.6780851,-35.7299995422363
1376.6937101,-37.6199989318848
1376.7093351,-39.1800003051758
1376.7249601,-40.439998626709
1376.7405851,-41.3600006103516
1376.7562101,-41.9099998474121
1376.7718351,-42.2000007629395
1376.7874601,-42.4599990844727
1376.8030851,-42.75
1376.8187101,-42.9500007629395
1376.8343351,-42.7599983215332
1376.8499601,-41.7900009155273
1376.8655851,-39.4000015258789
1376.8812101,-34.6199989318848
1376.8968351,-26.4799995422363
1376.9124601,-14.7700004577637
1376.9280851,-0.330000013113022
1376.9437101,15.0600004196167
1376.9593351,29.2700004577637
1376.9749601,40.3899993896484
1376.9905851,47.4099998474121
1377.0062101,50.4300003051758
1377.0218351,50.5099983215332
1377.0374601,49.0200004577637
1377.0530851,47.0099983215332
1377.0687101,44.8400001525879
1377.0843351,42.2299995422363
1377.0999601,38.6599998474121
1377.1155851,33.7400016784668
1377.1312101,27.3700008392334
1377.1468351,19.8799991607666
1377.1624601,12.039999961853
1377.1780851,4.69000005722046
1377.1937101,-1.62000000476837
1377.2093351,-6.73000001907349
1377.2249601,-10.75
1377.2405851,-13.960000038147
1377.2562101,-16.7199993133545
1377.2718351,-19.2999992370605
1377.2874601,-21.7099990844727
1377.3030851,-23.8099994659424
1377.3187101,-25.4599990844727
1377.3343351,-26.6599998474121
1377.3499601,-27.4099998474121
1377.3655851,-27.7700004577637
1377.3812101,-27.8799991607666
1377.3968351,-27.8600006103516
1377.4124601,-27.7199993133545
1377.4280851,-27.3500003814697
1377.4437101,-26.6499996185303
1377.4593351,-25.5200004577637
1377.4749601,-23.9400005340576
1377.4905851,-22.0300006866455
1377.5062101,-20.0
1377.5218351,-17.9899997711182
1377.5374601,-15.6899995803833
1377.5530851,-12.2399997711182
1377.5687101,-6.51000022888184
1377.5843351,2.27999997138977
1377.5999601,14.0100002288818
1377.6155851,27.4500007629395
1377.6312101,40.7299995422363
1377.6468351,51.8699989318848
1377.6624601,59.4000015258789
1377.6780851,62.7999992370605
1377.6937101,62.6399993896484
1377.7093351,60.1599998474121
1377.7249601,56.5400009155273
1377.7405851,52.4599990844727
1377.7562101,47.9599990844727
1377.7718351,42.6800003051758
1377.7874601,36.1399993896484
1377.8030851,28.1700000762939
1377.8187101,19.1000003814697
1377.8343351,9.71000003814697
1377.8499601,0.839999973773956
1377.8655851,-6.88000011444092
1377.8812101,-13.2600002288818
1377.8968351,-18.3299999237061
1377.9124601,-22.3999996185303
1377.9280851,-25.8199996948242
1377.9437101,-28.9099998474121
1377.9593351,-31.7900009155273
1377.9749601,-34.5200004577637
1377.9905851,-37.0800018310547
1378.0062101,-39.25
1378.0218351,-40.6599998474121
1378.0374601,-41.060001373291
1378.0530851,-40.5400009155273
1378.0687101,-39.4300003051758
1378.0843351,-38.1199989318848
1378.0999601,-36.8400001525879
1378.1155851,-35.6199989318848
1378.1312101,-34.3800010681152
1378.1468351,-33.0999984741211
1378.1624601,-31.7700004577637
1378.1780851,-30.3600006103516
1378.1937101,-28.7399997711182
1378.2093351,-26.7600002288818
1378.2249601,-24.0900001525879
1378.2405851,-20.0699996948242
1378.2562101,-13.8900003433228
1378.2718351,-5.01000022888184
1378.2874601,6.57000017166138
1378.3030851,19.9500007629395
1378.3187101,33.0999984741211
1378.3343351,43.6500015258789
1378.3499601,50.0499992370605
1378.3655851,52.1500015258789
1378.3812101,51.0499992370605
1378.3968351,48.3600006103516
1378.4124601,45.2599983215332
1378.4280851,42.1599998474121
1378.4437101,38.8600006103516
1378.4593351,34.9000015258789
1378.4749601,29.9799995422363
1378.4905851,24.1499996185303
1378.5062101,17.9500007629395
1378.5218351,12.1400003433228
1378.5374601,7.32000017166138
1378.5530851,3.50999999046326
1378.5687101,0.300000011920929
1378.5843351,-2.59999990463257
1378.5999601,-5.26999998092651
1378.6155851,-7.55000019073486
1378.6312101,-9.40999984741211
1378.6468351,-10.9499998092651
1378.6624601,-12.4099998474121
1378.6780851,-13.9499998092651
1378.6937101,-15.5100002288818
1378.7093351,-16.8600006103516
1378.7249601,-17.8999996185303
1378.7405851,-18.6499996185303
1378.7562101,-19.1100006103516
1378.7718351,-19.2700004577637
1378.7874601,-19.1700000762939
1378.8030851,-18.9699993133545
1378.8187101,-18.8199996948242
1378.8343351,-18.6499996185303
1378.8499601,-18.2700004577637
1378.8655851,-17.5499992370605
1378.8812101,-16.5100002288818
1378.8968351,-15.1599998474121
1378.9124601,-13.2700004577637
1378.9280851,-10.3199996948242
1378.9437101,-5.51999998092651
1378.9593351,1.78999996185303
1378.9749601,11.6899995803833
1378.9905851,23.3500003814697
1379.0062101,35.060001373291
1379.0218351,44.8199996948242
1379.0374601,51.189998626709
1379.0530851,53.9199981689453
1379.0687101,53.7000007629395
1379.0843351,51.4700012207031
1379.0999601,48.1399993896484
1379.1155851,44.3600006103516
1379.1312101,40.3800010681152
1379.1468351,36.0400009155273
1379.1624601,30.9899997711182
1379.1780851,25.0699996948242
1379.1937101,18.5
1379.2093351,11.75
1379.2249601,5.36999988555908
1379.2405851,-0.239999994635582
1379.2562101,-4.94999980926514
1379.2718351,-8.8100004196167
1379.2874601,-11.9499998092651
1379.3030851,-14.5900001525879
1379.3187101,-16.9899997711182
1379.3343351,-19.2900009155273
1379.3499601,-21.5300006866455
1379.3655851,-23.7199993133545
1379.3812101,-25.7600002288818
1379.3968351,-27.5300006866455
1379.4124601,-28.9699993133545
1379.4280851,-30.1000003814697
1379.4437101,-30.8700008392334
1379.4593351,-31.25
1379.4749601,-31.3299999237061
1379.4905851,-31.1599998474121
1379.5062101,-30.7399997711182
1379.5218351,-30.0499992370605
1379.5374601,-29.2000007629395
1379.5530851,-28.2900009155273
1379.5687101,-27.3500003814697
1379.5843351,-26.1599998474121
1379.5999601,-24.1700000762939
1379.6155851,-20.5900001525879
1379.6312101,-14.6800003051758
1379.6468351,-6.13000011444092
1379.6624601,4.76999998092651
1379.6780851,16.8600006103516
1379.6937101,28.2900009155273
1379.7093351,37.2700004577637
1379.7249601,42.7999992370605
1379.7405851,44.8899993896484
1379.7562101,44.3199996948242
1379.7718351,42.1100006103516
1379.7874601,39.1199989318848
1379.8030851,35.8499984741211
1379.8187101,32.3499984741211
1379.8343351,28.4500007629395
1379.8499601,23.8999996185303
1379.8655851,18.6299991607666
1379.8812101,12.8100004196167
1379.8968351,6.80000019073486
1379.9124601,0.959999978542328
1379.9280851,-4.34999990463257
1379.9437101,-8.89000034332275
1379.9593351,-12.5200004577637
1379.9749601,-15.2799997329712
1379.9905851,-17.4200000762939
1380.0062101,-19.2800006866455
1380.0218351,-21.1200008392334
1380.0374601,-23.0599994659424
1380.0530851,-25.0799999237061
1380.0687101,-27.0400009155273
1380.0843351,-28.6499996185303
1380.0999601,-29.6900005340576
1380.1155851,-30.1299991607666
1380.1312101,-30.1599998474121
1380.1468351,-29.9799995422363
1380.1624601,-29.7600002288818
1380.1780851,-29.5599994659424
1380.1937101,-29.25
1380.2093351,-28.5900001525879
1380.2249601,-27.4599990844727
1380.2405851,-25.9200000762939
1380.2562101,-24.0799999237061
1380.2718351,-21.9200000762939
1380.2874601,-19.0200004577637
1380.3030851,-14.5799999237061
1380.3187101,-7.73999977111816
1380.3343351,1.8400000333786
1380.3499601,13.5600004196167
1380.3655851,25.9200000762939
1380.3812101,37.0699996948242
1380.3968351,45.5299987792969
1380.4124601,50.7299995422363
1380.4280851,53.0200004577637
1380.4437101,53.0900001525879
1380.4593351,51.5800018310547
1380.4749601,48.939998626709
1380.4905851,45.439998626709
1380.5062101,41.2400016784668
1380.5218351,36.3400001525879
1380.5374601,30.7199993133545
1380.5530851,24.3400001525879
1380.5687101,17.3799991607666
1380.5843351,10.3699998855591
1380.5999601,3.97000002861023
1380.6155851,-1.36000001430511
1380.6312101,-5.57000017166138
1380.6468351,-8.90999984741211
1380.6624601,-11.7399997711182
1380.6780851,-14.3500003814697
1380.6937101,-16.8299999237061
1380.7093351,-19.1100006103516
1380.7249601,-21.1200008392334
1380.7405851,-22.8299999237061
1380.7562101,-24.2299995422363
1380.7718351,-25.3600006103516
1380.7874601,-26.3400001525879
1380.8030851,-27.2199993133545
1380.8187101,-27.9500007629395
1380.8343351,-28.4099998474121
1380.8499601,-28.5200004577637
1380.8655851,-28.2900009155273
1380.8812101,-27.8299999237061
1380.8968351,-27.2299995422363
1380.9124601,-26.5499992370605
1380.9280851,-25.8500003814697
1380.9437101,-25.1000003814697
1380.9593351,-23.9799995422363
1380.9749601,-21.7399997711182
1380.9905851,-17.4300003051758
1381.0062101,-10.4200000762939
1381.0218351,-0.779999971389771
1381.0374601,10.539999961853
1381.0530851,22.0900001525879
1381.0687101,32.2000007629395
1381.0843351,39.560001373291
1381.0999601,43.6699981689453
1381.1155851,44.8400001525879
1381.1312101,43.8800010681152
1381.1468351,41.5699996948242
1381.1624601,38.5099983215332
1381.1780851,35.0
1381.1937101,31.0300006866455
1381.2093351,26.4500007629395
1381.2249601,21.25
1381.2405851,15.6499996185303
1381.2562101,10.0200004577637
1381.2718351,4.71999979019165
1381.2874601,0.0199999995529652
1381.3030851,-3.92000007629395
1381.3187101,-7.1100001335144
1381.3343351,-9.6899995803833
1381.3499601,-11.8800001144409
