Time(s),Value(%)
2324.010146,-40.439998626709
2324.025771,-39.4799995422363
2324.041396,-38.2099990844727
2324.057021,-36.6699981689453
2324.072646,-34.9199981689453
2324.088271,-33.2900009155273
2324.103896,-32.0499992370605
2324.119521,-30.9699993133545
2324.135146,-29.6000003814697
2324.150771,-27.75
2324.166396,-25.6299991607666
2324.182021,-23.5400009155273
2324.197646,-21.5400009155273
2324.213271,-19.3899993896484
2324.228896,-16.3299999237061
2324.244521,-10.4099998474121
2324.260146,1.63999998569489
2324.275771,22.4400005340576
2324.291396,51.0099983215332
2324.307021,81.870002746582
2324.322646,107.51000213623
2324.338271,121.980003356934
2324.353896,123.309997558594
2324.369521,113.650001525879
2324.385146,97.7799987792969
2324.400771,81.0500030517578
2324.416396,67.3499984741211
2324.432021,58.0800018310547
2324.447646,52.2200012207031
2324.463271,47.6100006103516
2324.478896,42.25
2324.494521,35.1500015258789
2324.510146,26.2800006866455
2324.525771,16.2999992370605
2324.541396,6.48999977111816
2324.557021,-1.30999994277954
2324.572646,-5.5
2324.588271,-5.71999979019165
2324.603896,-3.29999995231628
2324.619521,-0.379999995231628
2324.635146,1.23000001907349
2324.650771,0.519999980926514
2324.666396,-2.96000003814697
2324.682021,-9.19999980926514
2324.697646,-17.5400009155273
2324.713271,-26.75
2324.728896,-35.6100006103516
2324.744521,-43.310001373291
2324.760146,-49.3899993896484
2324.775771,-53.5400009155273
2324.791396,-55.7099990844727
2324.807021,-56.2299995422363
2324.822646,-55.5499992370605
2324.838271,-53.8199996948242
2324.853896,-50.9799995422363
2324.869521,-47.2700004577637
2324.885146,-43.4500007629395
2324.900771,-40.2099990844727
2324.916396,-37.6800003051758
2324.932021,-35.5699996948242
2324.947646,-33.7200012207031
2324.963271,-32.2900009155273
2324.978896,-31.4899997711182
2324.994521,-31.4200000762939
2325.010146,-32.0
2325.025771,-32.7999992370605
2325.041396,-32.9700012207031
2325.057021,-31.6700000762939
2325.072646,-28.8500003814697
2325.088271,-25.3299999237061
2325.103896,-21.5699996948242
2325.119521,-15.6999998092651
2325.135146,-3.75
2325.150771,17.1399993896484
2325.166396,45.4000015258789
2325.182021,74.7799987792969
2325.197646,97.5599975585938
2325.213271,108.389999389648
2325.228896,106.330001831055
2325.244521,94.5299987792969
2325.260146,78.3899993896484
2325.275771,63.1699981689453
2325.291396,52.0699996948242
2325.307021,45.5800018310547
2325.322646,42.1699981689453
2325.338271,39.5099983215332
2325.353896,35.4799995422363
2325.369521,28.6700000762939
2325.385146,18.7800006866455
2325.400771,7.03999996185303
2325.416396,-4.21000003814697
2325.432021,-12.8199996948242
2325.447646,-18.0400009155273
2325.463271,-20.7299995422363
2325.478896,-22.4400005340576
2325.494521,-24.4699993133545
2325.510146,-27.5599994659424
2325.525771,-31.6599998474121
2325.541396,-35.8199996948242
2325.557021,-38.6199989318848
2325.572646,-39.0900001525879
2325.588271,-37.4199981689453
2325.603896,-34.6599998474121
2325.619521,-32.0299987792969
2325.635146,-30.2000007629395
2325.650771,-29.1900005340576
2325.666396,-28.9300003051758
2325.682021,-29.3700008392334
2325.697646,-30.2099990844727
2325.713271,-30.8099994659424
2325.728896,-30.7900009155273
2325.744521,-30.2800006866455
2325.760146,-29.6200008392334
2325.775771,-28.8199996948242
2325.791396,-27.8199996948242
2325.807021,-26.8099994659424
2325.822646,-26.2000007629395
2325.838271,-26.0200004577637
2325.853896,-25.3299999237061
2325.869521,-22.0300006866455
2325.885146,-13.4799995422363
2325.900771,2.0
2325.916396,23.6800003051758
2325.932021,48.0400009155273
2325.947646,69.8199996948242
2325.963271,83.9100036621094
2325.978896,87.5899963378906
2325.994521,81.6100006103516
2326.010146,69.5599975585938
2326.025771,55.939998626709
2326.041396,44.3199996948242
2326.057021,36.3800010681152
2326.072646,31.7700004577637
2326.088271,28.6200008392334
2326.103896,24.5900001525879
2326.119521,18.1800003051758
2326.135146,9.64000034332275
2326.150771,0.479999989271164
2326.166396,-7.53999996185303
2326.182021,-13.3299999237061
2326.197646,-16.7700004577637
2326.213271,-18.6200008392334
2326.228896,-19.8700008392334
2326.244521,-20.9200000762939
2326.260146,-21.6200008392334
2326.275771,-21.9099998474121
2326.291396,-22.2000007629395
2326.307021,-23.1800003051758
2326.322646,-25.1700000762939
2326.338271,-27.9099998474121
2326.353896,-30.7900009155273
2326.369521,-33.189998626709
2326.385146,-34.7700004577637
2326.400771,-35.3800010681152
2326.416396,-34.939998626709
2326.432021,-33.5299987792969
2326.447646,-31.5699996948242
2326.463271,-29.6800003051758
2326.478896,-28.3500003814697
2326.494521,-27.6900005340576
2326.510146,-27.3700008392334
2326.525771,-26.7900009155273
2326.541396,-24.8700008392334
2326.557021,-19.5400009155273
2326.572646,-8.40999984741211
2326.588271,9.34000015258789
2326.603896,31.5300006866455
2326.619521,53.5
2326.635146,70.0400009155273
2326.650771,77.7900009155273
2326.666396,76.5899963378906
2326.682021,69.2200012207031
2326.697646,59.6100006103516
2326.713271,50.8499984741211
2326.728896,44.2599983215332
2326.744521,39.5999984741211
2326.760146,35.6399993896484
2326.775771,30.9099998474121
2326.791396,24.3600006103516
2326.807021,15.789999961853
2326.822646,6.01999998092651
2326.838271,-3.3199999332428
2326.853896,-10.5799999237061
2326.869521,-15.0100002288818
2326.885146,-17.2099990844727
2326.900771,-18.5100002288818
2326.916396,-19.9500007629395
2326.932021,-21.8099994659424
2326.947646,-23.9599990844727
2326.963271,-26.3099994659424
2326.978896,-28.9200000762939
2326.994521,-31.7999992370605
2327.010146,-34.939998626709
2327.025771,-38.2200012207031
2327.041396,-41.189998626709
2327.057021,-43.1199989318848
2327.072646,-43.3699989318848
2327.088271,-41.9000015258789
2327.103896,-39.4199981689453
2327.119521,-36.7400016784668
2327.135146,-34.2000007629395
2327.150771,-31.7900009155273
2327.166396,-29.5900001525879
2327.182021,-27.8700008392334
2327.197646,-26.9200000762939
2327.213271,-26.6900005340576
2327.228896,-26.6599998474121
2327.244521,-25.5599994659424
2327.260146,-21.0599994659424
2327.275771,-10.5299997329712
2327.291396,6.94000005722046
2327.307021,29.0
2327.322646,50.6699981689453
2327.338271,66.8499984741211
2327.353896,74.7399978637695
2327.369521,74.75
2327.385146,69.7200012207031
2327.400771,63.2400016784668
2327.416396,58.0499992370605
2327.432021,54.9900016784668
2327.447646,53.1399993896484
2327.463271,50.9599990844727
2327.478896,47.0900001525879
2327.494521,40.6599998474121
2327.510146,31.3500003814697
2327.525771,19.7999992370605
2327.541396,7.8600001335144
2327.557021,-2.0
2327.572646,-8.17000007629395
2327.588271,-10.9200000762939
2327.603896,-12.0299997329712
2327.619521,-13.1400003433228
2327.635146,-14.789999961853
2327.650771,-16.7999992370605
2327.666396,-19.0699996948242
2327.682021,-21.6399993896484
2327.697646,-24.4699993133545
2327.713271,-27.3899993896484
2327.728896,-30.2999992370605
2327.744521,-33.0800018310547
2327.760146,-35.439998626709
2327.775771,-37.0299987792969
2327.791396,-37.7000007629395
2327.807021,-37.6500015258789
2327.822646,-37.0400009155273
2327.838271,-35.8300018310547
2327.853896,-34.0800018310547
2327.869521,-32.2200012207031
2327.885146,-30.7299995422363
2327.900771,-29.6599998474121
2327.916396,-28.6000003814697
2327.932021,-27.25
2327.947646,-25.6499996185303
2327.963271,-24.1100006103516
2327.978896,-22.8799991607666
2327.994521,-22.0200004577637
2328.010146,-21.4500007629395
2328.025771,-20.7900009155273
2328.041396,-18.9099998474121
2328.057021,-13.6000003814697
2328.072646,-2.61999988555908
2328.088271,14.6599998474121
2328.103896,36.189998626709
2328.119521,57.6800003051758
2328.135146,74.4700012207031
2328.150771,83.4899978637695
2328.166396,84.3199996948242
2328.182021,78.9000015258789
2328.197646,70.3499984741211
2328.213271,61.6399993896484
2328.228896,54.560001373291
2328.244521,49.3400001525879
2328.260146,45.1100006103516
2328.275771,40.8199996948242
2328.291396,35.6300010681152
2328.307021,28.9599990844727
2328.322646,20.7600002288818
2328.338271,11.9899997711182
2328.353896,4.21999979019165
2328.369521,-1.44000005722046
2328.385146,-4.96000003814697
2328.400771,-7.01999998092651
2328.416396,-8.31999969482422
2328.432021,-9.25
2328.447646,-10.1999998092651
2328.463271,-11.789999961853
2328.478896,-14.4200000762939
2328.494521,-18.0200004577637
2328.510146,-22.2600002288818
2328.525771,-26.5599994659424
2328.541396,-29.8999996185303
2328.557021,-31.1900005340576
2328.572646,-30.0499992370605
2328.588271,-27.2099990844727
2328.603896,-24.1499996185303
2328.619521,-22.2399997711182
2328.635146,-22.1599998474121
2328.650771,-23.7999992370605
2328.666396,-26.5400009155273
2328.682021,-29.3999996185303
2328.697646,-31.3700008392334
2328.713271,-31.8600006103516
2328.728896,-30.7600002288818
2328.744521,-28.2900009155273
2328.760146,-24.8700008392334
2328.775771,-21.0900001525879
2328.791396,-17.7600002288818
2328.807021,-15.7200002670288
2328.822646,-15.4099998474121
2328.838271,-16.5100002288818
2328.853896,-17.9400005340576
2328.869521,-18.4099998474121
2328.885146,-17.0
2328.900771,-13.7399997711182
2328.916396,-9.51000022888184
2328.932021,-5.05000019073486
2328.947646,0.46000000834465
2328.963271,9.5600004196167
2328.978896,24.4799995422363
2328.994521,44.4000015258789
2329.010146,64.7799987792969
2329.025771,79.8099975585938
2329.041396,85.9000015258789
2329.057021,83.4000015258789
2329.072646,75.5299987792969
2329.088271,66.0500030517578
2329.103896,57.6800003051758
2329.119521,51.6599998474121
2329.135146,47.9099998474121
2329.150771,45.3600006103516
2329.166396,42.4599990844727
2329.182021,37.8800010681152
2329.197646,31.0499992370605
2329.213271,22.4200000762939
2329.228896,13.2200002670288
2329.244521,4.98000001907349
2329.260146,-1.0
2329.275771,-4.34999990463257
2329.291396,-5.76000022888184
2329.307021,-6.63000011444092
2329.322646,-8.11999988555908
2329.338271,-10.7700004577637
2329.353896,-14.3699998855591
2329.369521,-18.25
2329.385146,-21.5799999237061
2329.400771,-23.7399997711182
2329.416396,-24.6000003814697
2329.432021,-24.6900005340576
2329.447646,-24.8700008392334
2329.463271,-25.7099990844727
2329.478896,-27.1399993896484
2329.494521,-28.6499996185303
2329.510146,-29.75
2329.525771,-30.2299995422363
2329.541396,-29.9899997711182
2329.557021,-29.0100002288818
2329.572646,-27.6399993896484
2329.588271,-26.4799995422363
2329.603896,-25.7600002288818
2329.619521,-25.0900001525879
2329.635146,-24.0200004577637
2329.650771,-22.5
2329.666396,-20.7999992370605
2329.682021,-19.1700000762939
2329.697646,-17.7900009155273
2329.713271,-16.7999992370605
2329.728896,-16.2099990844727
2329.744521,-15.8800001144409
2329.760146,-15.6499996185303
2329.775771,-15.4700002670288
2329.791396,-15.460000038147
2329.807021,-15.6499996185303
2329.822646,-15.7799997329712
2329.838271,-15.3800001144409
2329.853896,-13.75
2329.869521,-9.39000034332275
2329.885146,0.0500000007450581
2329.900771,16.1599998474121
2329.916396,37.4799995422363
2329.932021,59.1199989318848
2329.947646,75.1100006103516
2329.963271,81.620002746582
2329.978896,78.629997253418
2329.994521,69.120002746582
2330.010146,57.0800018310547
2330.025771,45.8400001525879
2330.041396,37.25
2330.057021,31.5300006866455
2330.072646,27.5699996948242
2330.088271,23.8999996185303
2330.103896,19.5
2330.119521,14.0799999237061
2330.135146,7.80000019073486
2330.150771,1.0900000333786
2330.166396,-5.21000003814697
2330.182021,-10.1000003814697
2330.197646,-13.0100002288818
2330.213271,-14.2200002670288
2330.228896,-14.7200002670288
2330.244521,-15.3500003814697
2330.260146,-16.3899993896484
2330.275771,-17.6200008392334
2330.291396,-18.8799991607666
2330.307021,-20.2199993133545
2330.322646,-21.7900009155273
2330.338271,-23.5699996948242
2330.353896,-25.5799999237061
2330.369521,-27.7999992370605
2330.385146,-29.8600006103516
2330.400771,-30.9500007629395
2330.416396,-30.4899997711182
2330.432021,-28.8700008392334
2330.447646,-27.2999992370605
2330.463271,-26.7900009155273
2330.478896,-27.3199996948242
2330.494521,-28.0799999237061
2330.510146,-28.3099994659424
2330.525771,-27.8400001525879
2330.541396,-26.8199996948242
2330.557021,-25.4099998474121
2330.572646,-23.7999992370605
2330.588271,-22.2199993133545
2330.603896,-20.6599998474121
2330.619521,-18.75
2330.635146,-16.4400005340576
2330.650771,-14.3299999237061
2330.666396,-13.1300001144409
2330.682021,-12.8599996566772
2330.697646,-12.7299995422363
2330.713271,-11.9099998474121
2330.728896,-10.1099996566772
2330.744521,-7.75
2330.760146,-5.53999996185303
2330.775771,-3.84999990463257
2330.791396,-1.85000002384186
2330.807021,2.98000001907349
2330.822646,13.6899995803833
2330.838271,31.25
2330.853896,52.8699989318848
2330.869521,72.8899993896484
2330.885146,85.6399993896484
2330.900771,88.0599975585938
2330.916396,80.6500015258789
2330.932021,66.6900024414063
2330.947646,50.5800018310547
2330.963271,36.2999992370605
2330.978896,26.2800006866455
2330.994521,20.8700008392334
2331.010146,18.5499992370605
2331.025771,17.0
2331.041396,14.3500003814697
2331.057021,9.92000007629395
2331.072646,4.26999998092651
2331.088271,-1.38999998569489
2331.103896,-5.98999977111816
2331.119521,-9.23999977111816
2331.135146,-11.7600002288818
2331.150771,-14.5600004196167
2331.166396,-18.1499996185303
2331.182021,-22.0300006866455
2331.197646,-25.0699996948242
2331.213271,-26.4899997711182
2331.228896,-26.4400005340576
2331.244521,-25.8099994659424
2331.260146,-25.3799991607666
2331.275771,-25.3299999237061
2331.291396,-25.3600006103516
2331.307021,-25.0499992370605
2331.322646,-24.0799999237061
2331.338271,-22.6700000762939
2331.353896,-21.6000003814697
2331.369521,-21.7199993133545
2331.385146,-23.2299995422363
2331.400771,-25.5400009155273
2331.416396,-27.7700004577637
2331.432021,-29.2700004577637
2331.447646,-29.6399993896484
2331.463271,-28.6000003814697
2331.478896,-26.0900001525879
2331.494521,-22.7000007629395
2331.510146,-19.6200008392334
2331.525771,-18.1399993896484
2331.541396,-18.8099994659424
2331.557021,-21.0699996948242
2331.572646,-23.6100006103516
2331.588271,-25.1100006103516
2331.603896,-24.8299999237061
2331.619521,-22.7600002288818
2331.635146,-19.5799999237061
2331.650771,-16.2199993133545
2331.666396,-13.3699998855591
2331.682021,-11.1499996185303
2331.697646,-9.22999954223633
2331.713271,-6.55999994277954
2331.728896,-0.959999978542328
2331.744521,10.4099998474121
2331.760146,28.8400001525879
2331.775771,51.9199981689453
2331.791396,74.0400009155273
2331.807021,89.1699981689453
2331.822646,93.9499969482422
2331.838271,88.8000030517578
2331.853896,76.7600021362305
2331.869521,61.7299995422363
2331.885146,47.2900009155273
2331.900771,35.9599990844727
2331.916396,28.6100006103516
2331.932021,24.5100002288818
2331.947646,22.0799999237061
2331.963271,19.6700000762939
2331.978896,16.0200004577637
2331.994521,10.6999998092651
2332.010146,4.17999982833862
2332.025771,-2.5
2332.041396,-8.27000045776367
2332.057021,-12.2399997711182
2332.072646,-14.0100002288818
2332.088271,-13.7600002288818
2332.103896,-12.0799999237061
2332.119521,-9.75
2332.135146,-7.69999980926514
2332.150771,-6.75
2332.166396,-7.30000019073486
2332.182021,-9.28999996185303
2332.197646,-12.3400001525879
2332.213271,-15.960000038147
2332.228896,-19.6399993896484
2332.244521,-22.7199993133545
2332.260146,-24.5300006866455
2332.275771,-24.9099998474121
2332.291396,-24.5200004577637
2332.307021,-24.4300003051758
2332.322646,-25.3600006103516
2332.338271,-27.2600002288818
2332.353896,-29.5699996948242
2332.369521,-31.6700000762939
2332.385146,-33.060001373291
2332.400771,-33.439998626709
2332.416396,-32.8699989318848
2332.432021,-31.7399997711182
2332.447646,-30.4899997711182
2332.463271,-29.2299995422363
2332.478896,-27.8099994659424
2332.494521,-26.1200008392334
2332.510146,-24.3500003814697
2332.525771,-22.9300003051758
2332.541396,-22.0799999237061
2332.557021,-21.5900001525879
2332.572646,-21.0799999237061
2332.588271,-20.2900009155273
2332.603896,-19.0499992370605
2332.619521,-16.8099994659424
2332.635146,-11.9300003051758
2332.650771,-1.66999995708466
2332.666396,16.1499996185303
2332.682021,40.7000007629395
2332.697646,67.2799987792969
2332.713271,89.0999984741211
2332.728896,100.680000305176
2332.744521,100.459999084473
2332.760146,91.0299987792969
2332.775771,77.3199996948242
2332.791396,64.0400009155273
2332.807021,53.9000015258789
2332.822646,47.4099998474121
2332.838271,43.5099983215332
2332.853896,40.3600006103516
2332.869521,36.0299987792969
2332.885146,29.4300003051758
2332.900771,20.7999992370605
2332.916396,11.4499998092651
2332.932021,2.92000007629395
2332.947646,-3.75
2332.963271,-8.28999996185303
2332.978896,-11.1400003433228
2332.994521,-13.2600002288818
2333.010146,-15.6400003433228
2333.025771,-18.5900001525879
2333.041396,-21.6900005340576
2333.057021,-24.4300003051758
2333.072646,-26.7800006866455
2333.088271,-29.1499996185303
2333.103896,-31.9200000762939
2333.119521,-35.0299987792969
2333.135146,-37.7900009155273
2333.150771,-39.3300018310547
2333.166396,-39.1800003051758
2333.182021,-37.6199989318848
2333.197646,-35.5099983215332
2333.213271,-33.8600006103516
2333.228896,-33.4000015258789
2333.244521,-34.0200004577637
2333.260146,-34.7799987792969
2333.275771,-34.8300018310547
2333.291396,-34.2799987792969
2333.307021,-33.810001373291
2333.322646,-33.8899993896484
2333.338271,-34.3899993896484
2333.353896,-34.8800010681152
2333.369521,-35.0699996948242
2333.385146,-34.8300018310547
2333.400771,-33.9900016784668
2333.416396,-32.4099998474121
2333.432021,-30.1000003814697
2333.447646,-27.2999992370605
2333.463271,-24.3899993896484
2333.478896,-21.8299999237061
2333.494521,-19.8099994659424
2333.510146,-17.5100002288818
2333.525771,-12.3400001525879
2333.541396,-0.790000021457672
2333.557021,18.8600006103516
2333.572646,44.2700004577637
2333.588271,69.5299987792969
2333.603896,88.4400024414063
2333.619521,97.5400009155273
2333.635146,96.9400024414063
2333.650771,89.3199996948242
2333.666396,78.4599990844727
2333.682021,67.9499969482422
2333.697646,60.0999984741211
2333.713271,55.189998626709
2333.728896,51.939998626709
2333.744521,48.8400001525879
2333.760146,45.0
2333.775771,39.939998626709
2333.791396,33.2200012207031
2333.807021,24.8500003814697
2333.822646,15.8000001907349
2333.838271,7.55999994277954
2333.853896,1.25
2333.869521,-2.99000000953674
2333.885146,-5.82999992370605
2333.900771,-8.03999996185303
2333.916396,-10.1199998855591
2333.932021,-12.4099998474121
2333.947646,-15.2700004577637
2333.963271,-18.7399997711182
2333.978896,-22.3600006103516
2333.994521,-25.6000003814697
2334.010146,-28.2800006866455
2334.025771,-30.4500007629395
2334.041396,-32.2000007629395
2334.057021,-33.6399993896484
2334.072646,-34.9599990844727
2334.088271,-36.2599983215332
2334.103896,-37.3600006103516
2334.119521,-38.0
2334.135146,-38.189998626709
2334.150771,-38.1500015258789
2334.166396,-38.0
2334.182021,-37.6800003051758
2334.197646,-37.25
2334.213271,-36.8899993896484
2334.228896,-36.439998626709
2334.244521,-35.3400001525879
2334.260146,-33.1699981689453
2334.275771,-30.2800006866455
2334.291396,-27.6499996185303
2334.307021,-26.0699996948242
2334.322646,-25.5599994659424
2334.338271,-25.5400009155273
2334.353896,-25.3299999237061
2334.369521,-24.0300006866455
2334.385146,-20.0
2334.400771,-10.6999998092651
2334.416396,5.84000015258789
2334.432021,29.0900001525879
2334.447646,55.3199996948242
2334.463271,79.0299987792969
2334.478896,95.3600006103516
2334.494521,101.919998168945
2334.510146,99.370002746582
2334.525771,90.5699996948242
2334.541396,78.9499969482422
2334.557021,67.3000030517578
2334.572646,57.3899993896484
2334.588271,49.9799995422363
2334.603896,44.8600006103516
2334.619521,40.8899993896484
2334.635146,36.3499984741211
2334.650771,29.6499996185303
2334.666396,20.2399997711182
2334.682021,9.09000015258789
2334.697646,-1.88999998569489
2334.713271,-10.9300003051758
2334.728896,-17.2399997711182
2334.744521,-21.1100006103516
