Time(s),Value(%)
1269.0011142,-29.0900001525879
1269.0167392,-25.75
1269.0323642,-21.7299995422363
1269.0479892,-18.4300003051758
1269.0636142,-16.9200000762939
1269.0792392,-17.4200000762939
1269.0948642,-19.2999992370605
1269.1104892,-21.5599994659424
1269.1261142,-23.1399993896484
1269.1417392,-23.0400009155273
1269.1573642,-20.2900009155273
1269.1729892,-14.3599996566772
1269.1886142,-5.65000009536743
1269.2042392,4.57000017166138
1269.2198642,14.6300001144409
1269.2354892,22.8299999237061
1269.2511142,27.9099998474121
1269.2667392,29.3899993896484
1269.2823642,27.8199996948242
1269.2979892,24.5499992370605
1269.3136142,21.1200008392334
1269.3292392,18.7099990844727
1269.3448642,17.6800003051758
1269.3604892,17.6399993896484
1269.3761142,17.6499996185303
1269.3917392,16.6200008392334
1269.4073642,13.710000038147
1269.4229892,8.89999961853027
1269.4386142,3.00999999046326
1269.4542392,-2.65000009536743
1269.4698642,-6.73999977111816
1269.4854892,-8.36999988555908
1269.5011142,-7.3600001335144
1269.5167392,-4.44999980926514
1269.5323642,-1.11000001430511
1269.5479892,1.11000001430511
1269.5636142,1.57000005245209
1269.5792392,0.709999978542328
1269.5948642,-0.689999997615814
1269.6104892,-2.45000004768372
1269.6261142,-4.78000020980835
1269.6417392,-7.59999990463257
1269.6573642,-10.3900003433228
1269.6729892,-12.6000003814697
1269.6886142,-14.1099996566772
1269.7042392,-15.1599998474121
1269.7198642,-15.8900003433228
1269.7354892,-16.2900009155273
1269.7511142,-16.3899993896484
1269.7667392,-16.3700008392334
1269.7823642,-16.2800006866455
1269.7979892,-15.9799995422363
1269.8136142,-15.2799997329712
1269.8292392,-14.2600002288818
1269.8448642,-13.1800003051758
1269.8604892,-12.25
1269.8761142,-11.4799995422363
1269.8917392,-10.7600002288818
1269.9073642,-9.85999965667725
1269.9229892,-8.27999973297119
1269.9386142,-5.36999988555908
1269.9542392,-0.75
1269.9698642,5.40999984741211
1269.9854892,12.460000038147
1270.0011142,19.6100006103516
1270.0167392,26.0300006866455
1270.0323642,30.7399997711182
1270.0479892,32.7299995422363
1270.0636142,31.6800003051758
1270.0792392,28.3899993896484
1270.0948642,24.4300003051758
1270.1104892,21.3199996948242
1270.1261142,19.7800006866455
1270.1417392,19.3700008392334
1270.1573642,18.7900009155273
1270.1729892,16.75
1270.1886142,12.8299999237061
1270.2042392,7.55000019073486
1270.2198642,1.87999999523163
1270.2354892,-3.23000001907349
1270.2511142,-7.23999977111816
1270.2667392,-9.9399995803833
1270.2823642,-11.3800001144409
1270.2979892,-11.6800003051758
1270.3136142,-11.0799999237061
1270.3292392,-10.0100002288818
1270.3448642,-9.14000034332275
1270.3604892,-9.14000034332275
1270.3761142,-10.2399997711182
1270.3917392,-12.0699996948242
1270.4073642,-13.8400001525879
1270.4229892,-14.6400003433228
1270.4386142,-13.8299999237061
1270.4542392,-11.6800003051758
1270.4698642,-9.5600004196167
1270.4854892,-9.05000019073486
1270.5011142,-10.8599996566772
1270.5167392,-14.3699998855591
1270.5323642,-18.25
1270.5479892,-21.2600002288818
1270.5636142,-22.6900005340576
1270.5792392,-22.3400001525879
1270.5948642,-20.4200000762939
1270.6104892,-17.5
1270.6261142,-14.4300003051758
1270.6417392,-12.0299997329712
1270.6573642,-10.7200002670288
1270.6729892,-10.0299997329712
1270.6886142,-8.64000034332275
1270.7042392,-5.0
1270.7198642,1.77999997138977
1270.7354892,11.5200004577637
1270.7511142,22.7299995422363
1270.7667392,33.1300010681152
1270.7823642,40.6800003051758
1270.7979892,44.6699981689453
1270.8136142,45.7700004577637
1270.8292392,45.2599983215332
1270.8448642,44.0800018310547
1270.8604892,42.2299995422363
1270.8761142,38.9700012207031
1270.8917392,33.4300003051758
1270.9073642,25.2099990844727
1270.9229892,14.789999961853
1270.9386142,3.63000011444092
1270.9542392,-6.15000009536743
1270.9698642,-12.7799997329712
1270.9854892,-15.6999998092651
1271.0011142,-15.7799997329712
1271.0167392,-14.710000038147
1271.0323642,-14.1599998474121
1271.0479892,-15.2299995422363
1271.0636142,-18.1100006103516
1271.0792392,-21.7900009155273
1271.0948642,-24.3799991607666
1271.1104892,-24.2999992370605
1271.1261142,-21.6200008392334
1271.1417392,-17.8899993896484
1271.1573642,-14.8199996948242
1271.1729892,-13.5900001525879
1271.1886142,-15.0500001907349
1271.2042392,-19.3299999237061
1271.2198642,-25.0599994659424
1271.2354892,-29.5599994659424
1271.2511142,-30.4400005340576
1271.2667392,-26.8199996948242
1271.2823642,-19.4699993133545
1271.2979892,-10.3199996948242
1271.3136142,-1.82000005245209
1271.3292392,3.82999992370605
1271.3448642,5.71000003814697
1271.3604892,4.48999977111816
1271.3761142,2.02999997138977
1271.3917392,0.349999994039536
1271.4073642,0.829999983310699
1271.4229892,3.72000002861023
1271.4386142,8.39000034332275
1271.4542392,13.7200002670288
1271.4698642,18.5599994659424
1271.4854892,21.8999996185303
1271.5011142,22.9599990844727
1271.5167392,21.5499992370605
1271.5323642,18.3600006103516
1271.5479892,14.8999996185303
1271.5636142,12.8900003433228
1271.5792392,13.1599998474121
1271.5948642,15.0100002288818
1271.6104892,16.4699993133545
1271.6261142,15.4899997711182
1271.6417392,11.210000038147
1271.6573642,4.42000007629395
1271.6729892,-2.78999996185303
1271.6886142,-8.22000026702881
1271.7042392,-10.4899997711182
1271.7198642,-9.47999954223633
1271.7354892,-6.28999996185303
1271.7511142,-2.9300000667572
1271.7667392,-1.50999999046326
1271.7823642,-3.09999990463257
1271.7979892,-7.30999994277954
1271.8136142,-12.8199996948242
1271.8292392,-18.3299999237061
1271.8448642,-22.9500007629395
1271.8604892,-26.0
1271.8761142,-27.0
1271.8917392,-26.0
1271.9073642,-23.5799999237061
1271.9229892,-20.5200004577637
1271.9386142,-17.5900001525879
1271.9542392,-15.3500003814697
1271.9698642,-14.1099996566772
1271.9854892,-14.0100002288818
1272.0011142,-15.0200004577637
1272.0167392,-16.8099994659424
1272.0323642,-18.6700000762939
1272.0479892,-19.7099990844727
1272.0636142,-19.0499992370605
1272.0792392,-16.1800003051758
1272.0948642,-11.2299995422363
1272.1104892,-4.80999994277954
1272.1261142,2.54999995231628
1272.1417392,10.5900001525879
1272.1573642,18.8199996948242
1272.1729892,26.1399993896484
1272.1886142,31.0799999237061
1272.2042392,32.689998626709
1272.2198642,31.3899993896484
1272.2354892,28.6900005340576
1272.2511142,26.3500003814697
1272.2667392,25.4799995422363
1272.2823642,26.1100006103516
1272.2979892,27.4599990844727
1272.3136142,28.4300003051758
1272.3292392,28.1000003814697
1272.3448642,25.9699993133545
1272.3604892,21.9899997711182
1272.3761142,16.5300006866455
1272.3917392,10.3999996185303
1272.4073642,4.82999992370605
1272.4229892,1.08000004291534
1272.4386142,-0.280000001192093
1272.4542392,0.319999992847443
1272.4698642,1.89999997615814
1272.4854892,3.57999992370605
1272.5011142,5.1399998664856
1272.5167392,6.67000007629395
1272.5323642,7.96000003814697
1272.5479892,8.15999984741211
1272.5636142,6.19999980926514
1272.5792392,1.63999998569489
1272.5948642,-4.94000005722046
1272.6104892,-12.1800003051758
1272.6261142,-18.4599990844727
1272.6417392,-22.5599994659424
1272.6573642,-24.0
1272.6729892,-22.9500007629395
1272.6886142,-19.8899993896484
1272.7042392,-15.3900003433228
1272.7198642,-10.1899995803833
1272.7354892,-5.34999990463257
1272.7511142,-2.20000004768372
1272.7667392,-1.63999998569489
1272.7823642,-3.60999989509583
1272.7979892,-7.05000019073486
1272.8136142,-10.5299997329712
1272.8292392,-12.6599998474121
1272.8448642,-12.1999998092651
1272.8604892,-8.1899995803833
1272.8761142,-0.469999998807907
1272.8917392,9.84000015258789
1272.9073642,20.4699993133545
1272.9229892,28.6900005340576
1272.9386142,32.5499992370605
1272.9542392,31.7199993133545
1272.9698642,27.5200004577637
1272.9854892,22.1100006103516
1273.0011142,17.4699993133545
1273.0167392,14.7399997711182
1273.0323642,14.1199998855591
1273.0479892,15.0299997329712
1273.0636142,16.4799995422363
1273.0792392,17.25
1273.0948642,16.3400001525879
1273.1104892,13.5299997329712
1273.1261142,9.46000003814697
1273.1417392,5.15000009536743
1273.1573642,1.38999998569489
1273.1729892,-1.66999995708466
1273.1886142,-4.26999998092651
1273.2042392,-6.40000009536743
1273.2198642,-7.76000022888184
1273.2354892,-8.11999988555908
1273.2511142,-7.84999990463257
1273.2667392,-7.78000020980835
1273.2823642,-8.53999996185303
1273.2979892,-10.0
1273.3136142,-11.460000038147
1273.3292392,-12.1499996185303
1273.3448642,-11.8299999237061
1273.3604892,-11.0699996948242
1273.3761142,-10.6899995803833
1273.3917392,-11.0
1273.4073642,-11.8199996948242
1273.4229892,-12.960000038147
1273.4386142,-14.3999996185303
1273.4542392,-16.0799999237061
1273.4698642,-17.9400005340576
1273.4854892,-19.9200000762939
1273.5011142,-21.6100006103516
1273.5167392,-22.1900005340576
1273.5323642,-20.75
1273.5479892,-16.5699996948242
1273.5636142,-9.43000030517578
1273.5792392,0.230000004172325
1273.5948642,11.2700004577637
1273.6104892,22.1299991607666
1273.6261142,31.3899993896484
1273.6417392,38.0699996948242
1273.6573642,41.7400016784668
1273.6729892,42.3400001525879
1273.6886142,40.1300010681152
1273.7042392,35.5400009155273
1273.7198642,29.1200008392334
1273.7354892,21.6399993896484
1273.7511142,14.0100002288818
1273.7667392,7.01999998092651
1273.7823642,1.1599999666214
1273.7979892,-3.16000008583069
1273.8136142,-5.69000005722046
1273.8292392,-6.3600001335144
1273.8448642,-5.38000011444092
1273.8604892,-3.25999999046326
1273.8761142,-0.930000007152557
1273.8917392,0.589999973773956
1273.9073642,0.689999997615814
1273.9229892,-0.620000004768372
1273.9386142,-2.75999999046326
1273.9542392,-4.78999996185303
1273.9698642,-5.94999980926514
1273.9854892,-6.1100001335144
1274.0011142,-5.86999988555908
1274.0167392,-6.19000005722046
1274.0323642,-7.82000017166138
1274.0479892,-10.9099998474121
1274.0636142,-14.8400001525879
1274.0792392,-18.4500007629395
1274.0948642,-20.8099994659424
1274.1104892,-21.8299999237061
1274.1261142,-22.2199993133545
1274.1417392,-22.9099998474121
1274.1573642,-24.3400001525879
1274.1729892,-26.1800003051758
1274.1886142,-27.4799995422363
1274.2042392,-26.9300003051758
1274.2198642,-23.3600006103516
1274.2354892,-16.1900005340576
1274.2511142,-6.03999996185303
1274.2667392,5.59999990463257
1274.2823642,17.0599994659424
1274.2979892,27.0100002288818
1274.3136142,34.5299987792969
1274.3292392,39.1800003051758
1274.3448642,40.9700012207031
1274.3604892,40.1699981689453
1274.3761142,37.0299987792969
1274.3917392,31.8700008392334
1274.4073642,25.2000007629395
1274.4229892,17.7000007629395
1274.4386142,10.1899995803833
1274.4542392,3.51999998092651
1274.4698642,-1.62999999523163
1274.4854892,-5.1100001335144
1274.5011142,-7.42999982833862
1274.5167392,-9.59000015258789
1274.5323642,-12.4799995422363
1274.5479892,-16.1700000762939
1274.5636142,-19.6299991607666
1274.5792392,-21.5300006866455
1274.5948642,-21.3500003814697
1274.6104892,-19.5499992370605
1274.6261142,-16.7800006866455
1274.6417392,-13.5900001525879
1274.6573642,-10.5299997329712
1274.6729892,-8.18000030517578
1274.6886142,-6.82000017166138
1274.7042392,-6.59000015258789
1274.7198642,-7.80000019073486
1274.7354892,-10.6099996566772
1274.7511142,-14.5
1274.7667392,-18.1100006103516
1274.7823642,-19.9300003051758
1274.7979892,-19.3500003814697
1274.8136142,-16.8500003814697
1274.8292392,-13.25
1274.8448642,-9.10999965667725
1274.8604892,-4.65999984741211
1274.8761142,0.0799999982118607
1274.8917392,5.28000020980835
1274.9073642,11.1300001144409
1274.9229892,17.3999996185303
1274.9386142,23.2199993133545
1274.9542392,27.4099998474121
1274.9698642,29.2600002288818
1274.9854892,29.1000003814697
1275.0011142,28.1399993896484
1275.0167392,27.4699993133545
1275.0323642,27.3199996948242
1275.0479892,27.1800003051758
1275.0636142,26.4300003051758
1275.0792392,24.5499992370605
1275.0948642,21.3199996948242
1275.1104892,17.1800003051758
1275.1261142,13.1599998474121
1275.1417392,10.1800003051758
1275.1573642,8.19999980926514
1275.1729892,6.03000020980835
1275.1886142,2.25999999046326
1275.2042392,-3.59999990463257
1275.2198642,-10.8000001907349
1275.2354892,-17.9400005340576
1275.2511142,-23.7800006866455
1275.2667392,-27.6700000762939
1275.2823642,-29.4099998474121
1275.2979892,-29.2999992370605
1275.3136142,-28.2900009155273
1275.3292392,-27.6800003051758
1275.3448642,-28.2299995422363
1275.3604892,-29.5699996948242
1275.3761142,-30.7299995422363
1275.3917392,-31.1399993896484
1275.4073642,-30.9799995422363
1275.4229892,-30.6900005340576
1275.4386142,-30.0499992370605
1275.4542392,-28.1100006103516
1275.4698642,-23.8799991607666
1275.4854892,-17.0599994659424
1275.5011142,-8.13000011444092
1275.5167392,1.8400000333786
1275.5323642,11.4700002670288
1275.5479892,19.1800003051758
1275.5636142,24.1000003814697
1275.5792392,26.4699993133545
1275.5948642,27.2299995422363
1275.6104892,27.1499996185303
1275.6261142,26.4699993133545
1275.6417392,25.0900001525879
1275.6573642,22.8899993896484
1275.6729892,19.9400005340576
1275.6886142,16.4799995422363
1275.7042392,12.8299999237061
1275.7198642,9.28999996185303
1275.7354892,5.86999988555908
1275.7511142,2.24000000953674
1275.7667392,-1.80999994277954
1275.7823642,-5.82999992370605
1275.7979892,-9.01000022888184
1275.8136142,-11.0200004577637
1275.8292392,-12.2799997329712
1275.8448642,-13.2799997329712
1275.8604892,-14.25
1275.8761142,-15.3999996185303
1275.8917392,-16.9500007629395
1275.9073642,-18.8500003814697
1275.9229892,-20.75
1275.9386142,-22.3999996185303
1275.9542392,-23.6399993896484
1275.9698642,-24.1900005340576
1275.9854892,-23.8899993896484
1276.0011142,-23.0799999237061
1276.0167392,-22.5300006866455
1276.0323642,-22.7600002288818
1276.0479892,-23.5200004577637
1276.0636142,-23.9300003051758
1276.0792392,-22.9699993133545
1276.0948642,-19.7399997711182
1276.1104892,-13.4700002670288
1276.1261142,-3.97000002861023
1276.1417392,7.75
1276.1573642,19.6399993896484
1276.1729892,29.4699993133545
1276.1886142,35.9199981689453
1276.2042392,38.9599990844727
1276.2198642,39.5800018310547
1276.2354892,38.9900016784668
1276.2511142,37.8499984741211
1276.2667392,36.1199989318848
1276.2823642,33.3600006103516
1276.2979892,29.0100002288818
1276.3136142,22.6100006103516
1276.3292392,14.3199996948242
1276.3448642,5.21999979019165
1276.3604892,-3.02999997138977
1276.3761142,-8.97999954223633
1276.3917392,-11.8900003433228
1276.4073642,-11.9300003051758
1276.4229892,-10.1599998474121
1276.4386142,-8.25
1276.4542392,-7.69000005722046
1276.4698642,-9.13000011444092
1276.4854892,-12.1000003814697
1276.5011142,-15.2799997329712
1276.5167392,-17.4099998474121
1276.5323642,-18.1800003051758
1276.5479892,-18.3700008392334
1276.5636142,-19.0799999237061
1276.5792392,-20.7999992370605
1276.5948642,-23.1200008392334
1276.6104892,-25.2099990844727
1276.6261142,-26.3600006103516
1276.6417392,-26.2600002288818
1276.6573642,-24.9799995422363
1276.6729892,-23.0900001525879
1276.6886142,-21.1700000762939
1276.7042392,-18.8700008392334
1276.7198642,-14.6700000762939
1276.7354892,-6.84000015258789
1276.7511142,5.15999984741211
1276.7667392,20.0200004577637
1276.7823642,34.7400016784668
1276.7979892,45.810001373291
1276.8136142,50.8400001525879
1276.8292392,49.7700004577637
1276.8448642,44.7400016784668
1276.8604892,38.9199981689453
1276.8761142,34.7099990844727
1276.8917392,32.6599998474121
1276.9073642,31.7199993133545
1276.9229892,30.4300003051758
1276.9386142,27.7099990844727
1276.9542392,23.2099990844727
1276.9698642,17.3700008392334
1276.9854892,11.1400003433228
1277.0011142,5.55000019073486
1277.0167392,1.26999998092651
1277.0323642,-1.52999997138977
1277.0479892,-3.36999988555908
1277.0636142,-5.28999996185303
1277.0792392,-8.39999961853027
1277.0948642,-12.9499998092651
1277.1104892,-18.1299991607666
1277.1261142,-22.6399993896484
1277.1417392,-25.6599998474121
1277.1573642,-27.2700004577637
1277.1729892,-28.0200004577637
1277.1886142,-28.3400001525879
1277.2042392,-28.3199996948242
1277.2198642,-27.6599998474121
1277.2354892,-26.1299991607666
1277.2511142,-24.0100002288818
1277.2667392,-22.1200008392334
1277.2823642,-21.25
1277.2979892,-21.6599998474121
1277.3136142,-22.7800006866455
1277.3292392,-23.3199996948242
1277.3448642,-21.4599990844727
1277.3604892,-15.2700004577637
1277.3761142,-3.58999991416931
1277.3917392,12.5100002288818
1277.4073642,29.5200004577637
1277.4229892,43.1399993896484
1277.4386142,50.810001373291
1277.4542392,52.560001373291
1277.4698642,50.4700012207031
1277.4854892,47.3699989318848
1277.5011142,45.4900016784668
1277.5167392,45.6699981689453
1277.5323642,47.3499984741211
1277.5479892,48.9000015258789
1277.5636142,48.2599983215332
1277.5792392,43.8400001525879
1277.5948642,35.310001373291
1277.6104892,23.7900009155273
1277.6261142,11.4700002670288
1277.6417392,0.800000011920929
1277.6573642,-6.55000019073486
1277.6729892,-10.4799995422363
1277.6886142,-12.2399997711182
1277.7042392,-13.5299997329712
1277.7198642,-15.710000038147
1277.7354892,-19.1200008392334
1277.7511142,-23.0699996948242
1277.7667392,-26.5300006866455
1277.7823642,-28.8299999237061
1277.7979892,-29.8600006103516
1277.8136142,-30.0599994659424
1277.8292392,-30.1399993896484
1277.8448642,-30.6599998474121
1277.8604892,-31.8400001525879
1277.8761142,-33.5800018310547
1277.8917392,-35.3600006103516
1277.9073642,-36.1699981689453
1277.9229892,-35.1199989318848
1277.9386142,-32.0400009155273
1277.9542392,-27.5599994659424
1277.9698642,-22.6499996185303
1277.9854892,-17.7999992370605
1278.0011142,-12.4399995803833
1278.0167392,-5.17000007629395
1278.0323642,4.8600001335144
1278.0479892,16.9699993133545
1278.0636142,28.9099998474121
1278.0792392,37.9500007629395
1278.0948642,42.4199981689453
1278.1104892,42.7400016784668
1278.1261142,40.8400001525879
1278.1417392,38.6500015258789
1278.1573642,37.0999984741211
1278.1729892,36.0999984741211
1278.1886142,34.8199996948242
1278.2042392,32.0099983215332
1278.2198642,26.8600006103516
1278.2354892,19.5100002288818
1278.2511142,11.0799999237061
1278.2667392,3.25999999046326
1278.2823642,-2.32999992370605
1278.2979892,-4.94000005722046
1278.3136142,-4.92000007629395
1278.3292392,-3.5
1278.3448642,-2.07999992370605
1278.3604892,-1.80999994277954
1278.3761142,-3.33999991416931
1278.3917392,-6.76999998092651
1278.4073642,-11.460000038147
1278.4229892,-16.1200008392334
1278.4386142,-19.3199996948242
1278.4542392,-20.2199993133545
1278.4698642,-19.1000003814697
1278.4854892,-17.2800006866455
1278.5011142,-16.2099990844727
1278.5167392,-16.4899997711182
1278.5323642,-17.6700000762939
1278.5479892,-18.8500003814697
1278.5636142,-19.3799991607666
1278.5792392,-19.1299991607666
1278.5948642,-18.2700004577637
1278.6104892,-16.8099994659424
1278.6261142,-14.1499996185303
1278.6417392,-9.09000015258789
1278.6573642,-0.569999992847443
1278.6729892,11.2700004577637
1278.6886142,24.7399997711182
1278.7042392,37.0800018310547
1278.7198642,45.5900001525879
1278.7354892,48.7799987792969
1278.7511142,47.1599998474121
1278.7667392,43.0499992370605
1278.7823642,39.0299987792969
1278.7979892,36.25
1278.8136142,33.9199981689453
1278.8292392,30.3500003814697
1278.8448642,24.25
1278.8604892,15.8100004196167
1278.8761142,6.59000015258789
1278.8917392,-1.35000002384186
1278.9073642,-6.59999990463257
1278.9229892,-8.89000034332275
1278.9386142,-9.14000034332275
1278.9542392,-8.85000038146973
1278.9698642,-9.3100004196167
1278.9854892,-11.1099996566772
1279.0011142,-13.9799995422363
1279.0167392,-17.0499992370605
1279.0323642,-19.4899997711182
1279.0479892,-21.0900001525879
1279.0636142,-22.0599994659424
1279.0792392,-22.5400009155273
1279.0948642,-22.6499996185303
1279.1104892,-22.8199996948242
1279.1261142,-23.5
1279.1417392,-24.6900005340576
1279.1573642,-25.9200000762939
1279.1729892,-26.7299995422363
1279.1886142,-26.9200000762939
1279.2042392,-26.4899997711182
1279.2198642,-25.4699993133545
1279.2354892,-23.7999992370605
1279.2511142,-20.9599990844727
1279.2667392,-15.9099998474121
1279.2823642,-7.55999994277954
1279.2979892,4.17999982833862
1279.3136142,17.9099998474121
1279.3292392,31.0799999237061
1279.3448642,40.9099998474121
