Time(s),Value(%)
0.0912853,-10.3400001525879
0.1069103,-13.8299999237061
0.1225353,-15.8999996185303
0.1381603,-16.5499992370605
0.1537853,-15.9899997711182
0.1694103,-14.6999998092651
0.1850353,-13.2200002670288
0.2006603,-12
0.2162853,-11.3000001907349
0.2319103,-11.2399997711182
0.2475353,-11.789999961853
0.2631603,-12.7200002670288
0.2787853,-13.8199996948242
0.2944103,-15.0100002288818
0.3100353,-16.2800006866455
0.3256603,-17.5499992370605
0.3412853,-18.8199996948242
0.3569103,-20.0799999237061
0.3725353,-21.2700004577637
0.3881603,-22.2999992370605
0.4037853,-23.0699996948242
0.4194103,-23.4200000762939
0.4350353,-22.9099998474121
0.4506603,-20.5300006866455
0.4662853,-14.8199996948242
0.4819103,-4.67000007629395
0.4975353,9.69999980926514
0.5131603,26.3600006103516
0.5287853,42.1199989318848
0.5444103,53.8499984741211
0.5600353,59.4599990844727
0.5756603,58.5400009155273
0.5912853,52.2400016784668
0.6069103,42.689998626709
0.6225353,32.0499992370605
0.6381603,21.7700004577637
0.6537853,12.460000038147
0.6694103,4.32000017166138
0.6850353,-2.55999994277954
0.7006603,-8.10999965667725
0.7162853,-12.1400003433228
0.7319103,-14.4899997711182
0.7475353,-15.1700000762939
0.7631603,-14.3900003433228
0.7787853,-12.6000003814697
0.7944103,-10.3999996185303
0.8100353,-8.40999984741211
0.8256603,-7.1100001335144
0.8412853,-6.6399998664856
0.8569103,-6.8899998664856
0.8725353,-7.71000003814697
0.8881603,-8.94999980926514
0.9037853,-10.4799995422363
0.9194103,-12.1599998474121
0.9350353,-13.8100004196167
0.9506603,-15.2700004577637
0.9662853,-16.4300003051758
0.9819103,-17.3099994659424
0.9975353,-18
1.0131603,-18.5200004577637
1.0287853,-18.3400001525879
1.0444103,-16.1299991607666
1.0600353,-10.1499996185303
1.0756603,0.610000014305115
1.0912853,15.289999961853
1.1069103,31.0499992370605
1.1225353,44.439998626709
1.1381603,52.8400001525879
1.1537853,55.2400016784668
1.1694103,52.1300010681152
1.1850353,45.0200004577637
1.2006603,35.7599983215332
1.2162853,26
1.2319103,16.8199996948242
1.2475353,8.57999992370605
1.2631603,1.13999998569489
1.2787853,-5.67999982833862
1.2944103,-11.7200002670288
1.3100353,-16.4099998474121
1.3256603,-19.1800003051758
1.3412853,-19.8500003814697
1.3569103,-18.6900005340576
1.3725353,-16.2900009155273
1.3881603,-13.460000038147
1.4037853,-11.039999961853
1.4194103,-9.68000030517578
1.4350353,-9.73999977111816
1.4506603,-11.1199998855591
1.4662853,-13.25
1.4819103,-15.5
1.4975353,-17.5
1.5131603,-19.25
1.5287853,-20.9500007629395
1.5444103,-22.7000007629395
1.5600353,-24.4099998474121
1.5756603,-25.8500003814697
1.5912853,-26.7000007629395
1.6069103,-26.4599990844727
1.6225353,-23.9599990844727
1.6381603,-17.2000007629395
1.6537853,-4.78000020980835
1.6694103,12.4200000762939
1.6850353,31.2700004577637
1.7006603,47.7599983215332
1.7162853,58.6800003051758
1.7319103,62.6399993896484
1.7475353,60.1100006103516
1.7631603,52.810001373291
1.7787853,42.7599983215332
1.7944103,31.7099990844727
1.8100353,21.0499992370605
1.8256603,11.6099996566772
1.8412853,3.48000001907349
1.8569103,-3.51999998092651
1.8725353,-9.51000022888184
1.8881603,-14.3500003814697
1.9037853,-17.75
1.9194103,-19.5
1.9350353,-19.6700000762939
1.9506603,-18.75
1.9662853,-17.4300003051758
1.9819103,-16.3199996948242
1.9975353,-15.7299995422363
2.0131603,-15.7399997711182
2.0287853,-16.3999996185303
2.0444103,-17.6800003051758
2.0600353,-19.5
2.0756603,-21.7299995422363
2.0912853,-24.2000007629395
2.1069103,-26.75
2.1225353,-29.1800003051758
2.1381603,-31.2999992370605
2.1537853,-32.9300003051758
2.1694103,-33.8499984741211
2.1850353,-33.4799995422363
2.2006603,-30.5
2.2162853,-23.0799999237061
2.2319103,-10.1000003814697
2.2475353,7.73999977111816
2.2631603,27.7299995422363
2.2787853,46.060001373291
2.2944103,59.189998626709
2.3100353,64.9499969482422
2.3256603,63.2700004577637
2.3412853,55.9300003051758
2.3569103,45.5400009155273
2.3725353,34.3400001525879
2.3881603,23.5499992370605
2.4037853,13.5100002288818
2.4194103,4.34999990463257
2.4350353,-3.69000005722046
2.4506603,-10.3000001907349
2.4662853,-15.2600002288818
2.4819103,-18.5
2.4975353,-20.1700000762939
2.5131603,-20.5799999237061
2.5287853,-20.0900001525879
2.5444103,-19.0499992370605
2.5600353,-17.8600006103516
2.5756603,-16.9200000762939
2.5912853,-16.5300006866455
2.6069103,-16.8500003814697
2.6225353,-17.8600006103516
2.6381603,-19.4500007629395
2.6537853,-21.3500003814697
2.6694103,-23.2800006866455
2.6850353,-25.1399993896484
2.7006603,-26.9799995422363
2.7162853,-28.8500003814697
2.7319103,-30.7000007629395
2.7475353,-32.3899993896484
2.7631603,-33.3199996948242
2.7787853,-32.0299987792969
2.7944103,-26.4799995422363
2.8100353,-15.1899995803833
2.8256603,1.52999997138977
2.8412853,21.2099990844727
2.8569103,39.8800010681152
2.8725353,53.75
2.8881603,60.5699996948242
2.9037853,60.1500015258789
2.9194103,53.9199981689453
2.9350353,44.0299987792969
2.9506603,32.6199989318848
2.9662853,21.2800006866455
2.9819103,10.7600002288818
2.9975353,1.26999998092651
3.0131603,-7.07999992370605
3.0287853,-13.9799995422363
3.0444103,-19.0900001525879
3.0600353,-22.3099994659424
3.0756603,-23.9099998474121
3.0912853,-24.2399997711182
3.1069103,-23.5900001525879
3.1225353,-22.2299995422363
3.1381603,-20.4799995422363
3.1537853,-18.7099990844727
3.1694103,-17.2900009155273
3.1850353,-16.5300006866455
3.2006603,-16.5900001525879
3.2162853,-17.3600006103516
3.2319103,-18.6599998474121
3.2475353,-20.2199993133545
3.2631603,-21.7900009155273
3.2787853,-23.1700000762939
3.2944103,-24.3299999237061
3.3100353,-25.3299999237061
3.3256603,-26.1200008392334
3.3412853,-26.5200004577637
3.3569103,-26.0100002288818
3.3725353,-23.4799995422363
3.3881603,-17.0100002288818
3.4037853,-4.59999990463257
3.4194103,13.8999996185303
3.4350353,35.6300010681152
3.4506603,55.7099990844727
3.4662853,69.7399978637695
3.4819103,75.4899978637695
3.4975353,73.3499984741211
3.5131603,65.6800003051758
3.5287853,55.5699996948242
3.5444103,45.4599990844727
3.5600353,36.25
3.5756603,27.7199993133545
3.5912853,19.3799991607666
3.6069103,11.1300001144409
3.6225353,3.33999991416931
3.6381603,-3.34999990463257
3.6537853,-8.35000038146973
3.6694103,-11.25
3.6850353,-12.0500001907349
3.7006603,-11.25
3.7162853,-9.61999988555908
3.7319103,-7.96000003814697
3.7475353,-6.94999980926514
3.7631603,-6.92999982833862
3.7787853,-7.92999982833862
3.7944103,-9.76000022888184
3.8100353,-12.1499996185303
3.8256603,-14.8000001907349
3.8412853,-17.3500003814697
3.8569103,-19.4899997711182
3.8725353,-21.1100006103516
3.8881603,-22.2999992370605
3.9037853,-23.2600002288818
3.9194103,-24.1900005340576
3.9350353,-25.0499992370605
3.9506603,-25.1499996185303
3.9662853,-23.1499996185303
3.9819103,-17.3600006103516
3.9975353,-6.53000020980835
4.0131603,9.09000015258789
4.0287853,27.3799991607666
4.0444103,44.9000015258789
4.0600353,58.310001373291
4.0756603,65.4100036621094
4.0912853,65.6900024414063
4.1069103,60.2400016784668
4.1225353,51.2700004577637
4.1381603,41.1300010681152
4.1537853,31.4300003051758
4.1694103,22.6200008392334
4.1850353,14.4899997711182
4.2006603,6.90000009536743
4.2162853,0.0500000007450581
4.2319103,-5.67999982833862
4.2475353,-9.98999977111816
4.2631603,-12.7200002670288
4.2787853,-13.8999996185303
4.2944103,-13.8100004196167
4.3100353,-13.0500001907349
4.3256603,-12.3400001525879
4.3412853,-12.2299995422363
4.3569103,-12.9499998092651
4.3725353,-14.3699998855591
4.3881603,-16.2199993133545
4.4037853,-18.2000007629395
4.4194103,-20.2199993133545
4.4350353,-22.3099994659424
4.4506603,-24.4400005340576
4.4662853,-26.4099998474121
4.4819103,-27.8999996185303
4.4975353,-28.6399993896484
4.5131603,-28.5799999237061
4.5287853,-27.9300003051758
4.5444103,-26.75
4.5600353,-24.3799991607666
4.5756603,-19.3400001525879
4.5912853,-10.0100002288818
4.6069103,4.23999977111816
4.6225353,22.0400009155273
4.6381603,40.1800003051758
4.6537853,55
4.6694103,64.0100021362305
4.6850353,66.5100021362305
4.7006603,63.3899993896484
4.7162853,56.3199996948242
4.7319103,47.1599998474121
4.7475353,37.3899993896484
4.7631603,27.7999992370605
4.7787853,18.5
4.7944103,9.39000034332275
4.8100353,0.639999985694885
4.8256603,-7.1100001335144
4.8412853,-12.9300003051758
4.8569103,-16.2000007629395
4.8725353,-17.1399993896484
4.8881603,-16.7999992370605
4.9037853,-16.3999996185303
4.9194103,-16.7700004577637
4.9350353,-18.0900001525879
4.9506603,-19.9300003051758
4.9662853,-21.7399997711182
4.9819103,-23.3099994659424
4.9975353,-24.8600006103516
5.0131603,-26.6299991607666
5.0287853,-28.5599994659424
5.0444103,-30.2000007629395
5.0600353,-30.8999996185303
5.0756603,-30.2900009155273
5.0912853,-28.7800006866455
5.1069103,-27.3899993896484
5.1225353,-26.9799995422363
5.1381603,-27.6200008392334
5.1537853,-28.7099990844727
5.1694103,-29.4599990844727
5.1850353,-29.1200008392334
5.2006603,-26.7999992370605
5.2162853,-21.2900009155273
5.2319103,-11.4799995422363
5.2475353,2.73000001907349
5.2631603,19.7000007629395
5.2787853,36.4799995422363
5.2944103,50.0400009155273
5.3100353,58.5299987792969
5.3256603,61.5299987792969
5.3412853,59.1699981689453
5.3569103,51.6100006103516
5.3725353,39.4599990844727
5.3881603,24.4099998474121
5.4037853,9.0600004196167
5.4194103,-3.83999991416931
5.4350353,-12.5200004577637
5.4506603,-16.8400001525879
5.4662853,-18.0599994659424
5.4819103,-17.6100006103516
5.4975353,-16.1000003814697
5.5131603,-13.3599996566772
5.5287853,-9.17000007629395
5.5444103,-4.07000017166138
5.5600353,0.800000011920929
5.5756603,4.5
5.5912853,6.48999977111816
5.6069103,6.71000003814697
5.6225353,5.46000003814697
5.6381603,3.28999996185303
5.6537853,0.769999980926514
5.6694103,-1.89999997615814
5.6850353,-5.11999988555908
5.7006603,-9.46000003814697
5.7162853,-15.0799999237061
5.7319103,-21.4899997711182
5.7475353,-27.7700004577637
5.7631603,-33.0400009155273
5.7787853,-36.8300018310547
5.7944103,-39.2900009155273
5.8100353,-41.0299987792969
5.8256603,-42.310001373291
5.8412853,-42.4599990844727
5.8569103,-39.8800010681152
5.8725353,-32.6599998474121
5.8881603,-19.8299999237061
5.9037853,-2.45000004768372
5.9194103,16.3799991607666
5.9350353,32.7999992370605
5.9506603,43.5
5.9662853,47.0200004577637
5.9819103,44.1100006103516
5.9975353,37
6.0131603,28.25
6.0287853,19.9300003051758
6.0444103,13.2799997329712
6.0600353,8.67000007629395
6.0756603,5.84999990463257
6.0912853,4.25
6.1069103,3.36999988555908
6.1225353,3.09999990463257
6.1381603,3.60999989509583
6.1537853,5.01000022888184
6.1694103,7.17000007629395
6.1850353,9.52999973297119
6.2006603,11.1700000762939
6.2162853,11.1300001144409
6.2319103,9.17000007629395
6.2475353,5.90000009536743
6.2631603,2.26999998092651
6.2787853,-1.02999997138977
6.2944103,-3.79999995231628
6.3100353,-6.1100001335144
6.3256603,-8.15999984741211
6.3412853,-10.1499996185303
6.3569103,-12.2299995422363
6.3725353,-14.3900003433228
6.3881603,-16.4400005340576
6.4037853,-18.2199993133545
6.4194103,-19.6200008392334
6.4350353,-20.3199996948242
6.4506603,-19.25
6.4662853,-14.5500001907349
6.4819103,-4.57000017166138
6.4975353,10.6899995803833
6.5131603,29.0300006866455
6.5287853,46.7000007629395
6.5444103,59.8699989318848
6.5600353,66.2200012207031
6.5756603,65.5100021362305
6.5912853,59.2799987792969
6.6069103,49.7599983215332
6.6225353,39.0900001525879
6.6381603,28.6499996185303
6.6537853,18.9200000762939
6.6694103,9.75
6.6850353,0.810000002384186
6.7006603,-7.78999996185303
6.7162853,-15.3900003433228
6.7319103,-21.1599998474121
6.7475353,-24.6599998474121
6.7631603,-26.0300006866455
6.7787853,-25.8199996948242
6.7944103,-24.8099994659424
6.8100353,-23.6800003051758
6.8256603,-22.8700008392334
6.8412853,-22.7900009155273
6.8569103,-23.7000007629395
6.8725353,-25.5900001525879
6.8881603,-28.1599998474121
6.9037853,-31.0400009155273
6.9194103,-33.8899993896484
6.9350353,-36.5200004577637
6.9506603,-38.8400001525879
6.9662853,-40.7400016784668
6.9819103,-42.0699996948242
6.9975353,-42.7299995422363
7.0131603,-42.7299995422363
7.0287853,-42.0900001525879
7.0444103,-40.5400009155273
7.0600353,-37.2999992370605
7.0756603,-30.7199993133545
7.0912853,-18.8700008392334
7.1069103,-1.16999995708466
7.1225353,20.1399993896484
7.1381603,40.7299995422363
7.1537853,56.2200012207031
7.1694103,64.0400009155273
7.1850353,64
7.2006603,57.6800003051758
7.2162853,47.5499992370605
7.2319103,36.1199989318848
7.2475353,25.2399997711182
7.2631603,15.8299999237061
7.2787853,8.10000038146973
7.2944103,1.83000004291534
7.3100353,-3.36999988555908
7.3256603,-8.02999973297119
7.3412853,-12.6300001144409
7.3569103,-17.1399993896484
7.3725353,-20.4799995422363
7.3881603,-21.1299991607666
7.4037853,-18.4500007629395
7.4194103,-13.3599996566772
7.4350353,-7.88000011444092
7.4506603,-4.03999996185303
7.4662853,-2.8199999332428
7.4819103,-3.82999992370605
7.4975353,-5.80999994277954
7.5131603,-7.30999994277954
7.5287853,-7.53999996185303
7.5444103,-6.90000009536743
7.5600353,-6.57999992370605
7.5756603,-7.55999994277954
7.5912853,-9.90999984741211
7.6069103,-12.8000001907349
7.6225353,-14.5500001907349
7.6381603,-13.039999961853
7.6537853,-6.34000015258789
7.6694103,6.19000005722046
7.6850353,23.0100002288818
7.7006603,40.6599998474121
7.7162853,55.3300018310547
7.7319103,64.2200012207031
7.7475353,66.4100036621094
7.7631603,62.8600006103516
7.7787853,55.5299987792969
7.7944103,46.5400009155273
7.8100353,37.4799995422363
7.8256603,29.1800003051758
7.8412853,21.7000007629395
7.8569103,14.7799997329712
7.8725353,8.3100004196167
7.8881603,2.5
7.9037853,-2.1800000667572
7.9194103,-5.32999992370605
7.9350353,-6.84999990463257
7.9506603,-6.92999982833862
7.9662853,-5.98999977111816
7.9819103,-4.6100001335144
7.9975353,-3.53999996185303
8.0131603,-3.40000009536743
8.0287853,-4.34000015258789
8.0444103,-6.1100001335144
8.0600353,-8.32999992370605
8.0756603,-10.7700004577637
8.0912853,-13.4399995803833
8.1069103,-16.3500003814697
8.1225353,-19.2399997711182
8.1381603,-21.5799999237061
8.1537853,-22.8500003814697
8.1694103,-22.7099990844727
8.1850353,-20.6100006103516
8.2006603,-15.3999996185303
8.2162853,-6.1399998664856
8.2319103,6.44999980926514
8.2475353,19.8199996948242
8.2631603,30.5100002288818
8.2787853,35.8600006103516
8.2944103,35.0200004577637
8.3100353,29
8.3256603,20.0100002288818
8.3412853,10.5699996948242
8.3569103,2.60999989509583
8.3725353,-3.22000002861023
8.3881603,-7.59000015258789
8.4037853,-11.789999961853
8.4194103,-17.0499992370605
8.4350353,-23.8199996948242
8.4506603,-31.3500003814697
8.4662853,-38.0699996948242
8.4819103,-42.3499984741211
8.4975353,-43.6100006103516
8.5131603,-42.6699981689453
8.5287853,-41.1500015258789
8.5444103,-40.2900009155273
8.5600353,-40.3300018310547
8.5756603,-40.7000007629395
8.5912853,-40.5800018310547
8.6069103,-39.4799995422363
8.6225353,-37.4199981689453
8.6381603,-34.9099998474121
8.6537853,-32.8899993896484
8.6694103,-32.2700004577637
8.6850353,-33.3800010681152
8.7006603,-35.7700004577637
8.7162853,-38.2799987792969
8.7319103,-39.2099990844727
8.7475353,-36.8800010681152
8.7631603,-30.1800003051758
8.7787853,-18.9699993133545
8.7944103,-4.23000001907349
8.8100353,12.0500001907349
8.8256603,27.5599994659424
8.8412853,40.2299995422363
8.8569103,48.6800003051758
8.8725353,52.4000015258789
8.8881603,51.7299995422363
8.9037853,47.7000007629395
8.9194103,41.6599998474121
8.9350353,34.9599990844727
8.9506603,28.6399993896484
8.9662853,23.2999992370605
8.9819103,19.2999992370605
8.9975353,16.7900009155273
9.0131603,15.6899995803833
9.0287853,15.7600002288818
9.0444103,16.6000003814697
9.0600353,17.7900009155273
9.0756603,18.8099994659424
9.0912853,19.1299991607666
9.1069103,18.3999996185303
9.1225353,16.7199993133545
9.1381603,14.539999961853
9.1537853,12.4099998474121
9.1694103,10.6800003051758
9.1850353,9.46000003814697
9.2006603,8.52000045776367
9.2162853,7.42000007629395
9.2319103,5.80000019073486
9.2475353,3.72000002861023
9.2631603,1.57000005245209
9.2787853,-0.0799999982118607
9.2944103,-0.620000004768372
9.3100353,0.589999973773956
9.3256603,4.07000017166138
9.3412853,9.82999992370605
9.3569103,17.1000003814697
9.3725353,24.3899993896484
9.3881603,30.0900001525879
9.4037853,33.0900001525879
9.4194103,33.0800018310547
9.4350353,30.4099998474121
9.4506603,25.8700008392334
9.4662853,20.2900009155273
9.4819103,14.3199996948242
9.4975353,8.47000026702881
9.5131603,3.16000008583069
9.5287853,-1.29999995231628
9.5444103,-4.78999996185303
9.5600353,-7.28999996185303
9.5756603,-8.97000026702881
9.5912853,-10
9.6069103,-10.460000038147
9.6225353,-10.4499998092651
9.6381603,-10.1300001144409
9.6537853,-9.6899995803833
9.6694103,-9.3100004196167
9.6850353,-9.22000026702881
9.7006603,-9.5600004196167
9.7162853,-10.289999961853
9.7319103,-11.1999998092651
9.7475353,-12.0699996948242
9.7631603,-12.8699998855591
9.7787853,-13.7399997711182
9.7944103,-14.8699998855591
9.8100353,-16.3099994659424
9.8256603,-17.8899993896484
9.8412853,-19.3099994659424
9.8569103,-20.0300006866455
9.8725353,-19.2299995422363
9.8881603,-16.0900001525879
9.9037853,-10.25
9.9194103,-2.29999995231628
9.9350353,6.28999996185303
9.9506603,13.9099998474121
9.9662853,19.3500003814697
9.9819103,22.1399993896484
9.9975353,22.3700008392334
10.0131603,20.6499996185303
10.0287853,17.7000007629395
10.0444103,14
10.0600353,9.75
10.0756603,5.28000020980835
10.0912853,1.1599999666214
10.1069103,-2.16000008583069
10.1225353,-4.76000022888184
10.1381603,-6.90999984741211
10.1537853,-8.78999996185303
10.1694103,-10.3199996948242
10.1850353,-11.3199996948242
10.2006603,-11.6499996185303
10.2162853,-11.3900003433228
10.2319103,-10.7600002288818
10.2475353,-9.97999954223633
10.2631603,-9.22000026702881
10.2787853,-8.59000015258789
10.2944103,-8.1899995803833
10.3100353,-8.19999980926514
10.3256603,-8.72000026702881
10.3412853,-9.64000034332275
10.3569103,-10.7399997711182
10.3725353,-11.8800001144409
10.3881603,-13
10.4037853,-14.1099996566772
10.4194103,-15.25
10.4350353,-16.1599998474121
10.4506603,-16.1700000762939
10.4662853,-14.1800003051758
10.4819103,-9.23999977111816
10.4975353,-1.27999997138977
10.5131603,8.51000022888184
10.5287853,18.1499996185303
10.5444103,25.7600002288818
10.5600353,30.3400001525879
10.5756603,31.8799991607666
10.5912853,30.9599990844727
10.6069103,28.2800006866455
10.6225353,24.4200000762939
10.6381603,19.8099994659424
10.6537853,14.8400001525879
10.6694103,9.85999965667725
10.6850353,5.1399998664856
10.7006603,0.829999983310699
10.7162853,-2.91000008583069
10.7319103,-5.84999990463257
10.7475353,-7.75
10.7631603,-8.59000015258789
10.7787853,-8.64000034332275
10.7944103,-8.30000019073486
10.8100353,-7.98000001907349
10.8256603,-7.94999980926514
10.8412853,-8.34000015258789
10.8569103,-9.18000030517578
10.8725353,-10.4300003051758
10.8881603,-11.9399995803833
10.9037853,-13.5100002288818
10.9194103,-14.9300003051758
10.9350353,-16.1299991607666
10.9506603,-17.1100006103516
10.9662853,-17.9300003051758
10.9819103,-18.6800003051758
10.9975353,-19.4599990844727
11.0131603,-20.1800003051758
11.0287853,-20.3199996948242
11.0444103,-18.8799991607666
11.0600353,-14.9399995803833
11.0756603,-8.1899995803833
11.0912853,0.779999971389771
11.1069103,10.789999961853
11.1225353,20.3899993896484
11.1381603,28.25
11.1537853,33.4099998474121
11.1694103,35.3899993896484
11.1850353,34.310001373291
11.2006603,30.7800006866455
11.2162853,25.7299995422363
11.2319103,19.9899997711182
11.2475353,14.1099996566772
11.2631603,8.46000003814697
11.2787853,3.27999997138977
11.2944103,-1.25
11.3100353,-4.98999977111816
11.3256603,-7.78000020980835
11.3412853,-9.60999965667725
11.3569103,-10.6099996566772
11.3725353,-11.0900001525879
11.3881603,-11.3400001525879
11.4037853,-11.5299997329712
11.4194103,-11.7600002288818
11.4350353,-12.0600004196167
11.4506603,-12.4799995422363
11.4662853,-13.0900001525879
11.4819103,-14
11.4975353,-15.25
11.5131603,-16.7700004577637
11.5287853,-18.4200000762939
11.5444103,-20.0599994659424
11.5600353,-21.4899997711182
11.5756603,-22.5599994659424
11.5912853,-23.2099990844727
11.6069103,-23.4899997711182
11.6225353,-23.2399997711182
11.6381603,-21.8400001525879
11.6537853,-18.2199993133545
11.6694103,-11.5299997329712
11.6850353,-1.89999997615814
11.7006603,9.31999969482422
11.7162853,20.2900009155273
11.7319103,29.5100002288818
11.7475353,36.0699996948242
11.7631603,39.4700012207031
11.7787853,39.6100006103516
11.7944103,36.8899993896484
11.8100353,32.0400009155273
11.8256603,25.9300003051758
11.8412853,19.3199996948242
11.8569103,12.7399997711182
11.8725353,6.48000001907349
11.8881603,0.769999980926514
11.9037853,-4.09000015258789
11.9194103,-7.84999990463257
11.9350353,-10.3500003814697
11.9506603,-11.5900001525879
11.9662853,-11.7700004577637
11.9819103,-11.1899995803833
11.9975353,-10.25
12.0131603,-9.35999965667725
12.0287853,-8.84000015258789
12.0444103,-8.85999965667725
12.0600353,-9.4399995803833
12.0756603,-10.5
12.0912853,-11.8199996948242
12.1069103,-13.25
12.1225353,-14.7700004577637
12.1381603,-16.3400001525879
12.1537853,-17.7900009155273
12.1694103,-18.8799991607666
12.1850353,-19.5
12.2006603,-19.7199993133545
12.2162853,-19.6900005340576
12.2319103,-19.4699993133545
12.2475353,-18.7000007629395
12.2631603,-16.3999996185303
12.2787853,-11.3999996185303
12.2944103,-3.32999992370605
12.3100353,6.92999982833862
12.3256603,17.5900001525879
12.3412853,26.7299995422363
12.3569103,32.9199981689453
12.3725353,35.6300010681152
12.3881603,35.0499992370605
12.4037853,31.8500003814697
12.4194103,26.7999992370605
12.4350353,20.6900005340576
12.4506603,14.25
12.4662853,7.96999979019165
12.4819103,2.1800000667572
12.4975353,-2.75999999046326
12.5131603,-6.38000011444092
12.5287853,-8.30000019073486
12.5444103,-8.44999980926514
12.5600353,-7.11999988555908
12.5756603,-4.80999994277954
12.5912853,-2.20000004768372
12.6069103,0.0199999995529652
12.6225353,1.41999995708466
12.6381603,1.8400000333786
12.6537853,1.49000000953674
12.6694103,0.730000019073486
12.6850353,-0.0599999986588955
12.7006603,-0.790000021457672
12.7162853,-1.71000003814697
12.7319103,-3.15000009536743
12.7475353,-5.17000007629395
12.7631603,-7.3899998664856
12.7787853,-9.28999996185303
12.7944103,-10.5100002288818
12.8100353,-10.9799995422363
12.8256603,-10.5299997329712
12.8412853,-8.59000015258789
12.8569103,-4.3600001335144
12.8725353,2.30999994277954
12.8881603,10.539999961853
12.9037853,18.9599990844727
12.9194103,26.5799999237061
12.9350353,32.9300003051758
12.9506603,37.6800003051758
12.9662853,40.3800010681152
12.9819103,40.6300010681152
12.9975353,38.189998626709
13.0131603,33.1500015258789
13.0287853,26.1100006103516
13.0444103,17.9500007629395
13.0600353,9.56999969482422
13.0756603,1.70000004768372
13.0912853,-5.09000015258789
13.1069103,-10.4200000762939
13.1225353,-14.1700000762939
13.1381603,-16.5
13.1537853,-17.7600002288818
13.1694103,-18.2000007629395
13.1850353,-17.9599990844727
13.2006603,-17.1299991607666
13.2162853,-15.8500003814697
13.2319103,-14.4200000762939
13.2475353,-13.25
13.2631603,-12.710000038147
13.2787853,-13.0500001907349
13.2944103,-14.2799997329712
13.3100353,-16.1800003051758
13.3256603,-18.3700008392334
13.3412853,-20.4400005340576
13.3569103,-22.0200004577637
13.3725353,-22.7399997711182
13.3881603,-22.3799991607666
13.4037853,-21.1200008392334
13.4194103,-19.3999996185303
13.4350353,-17.4200000762939
13.4506603,-14.8199996948242
13.4662853,-10.6899995803833
13.4819103,-4.09000015258789
13.4975353,5.28000020980835
13.5131603,17.0499992370605
13.5287853,30.0100002288818
13.5444103,42.2599983215332
13.5600353,51.7599983215332
13.5756603,57.1100006103516
13.5912853,57.9900016784668
13.6069103,55.0800018310547
13.6225353,49.6699981689453
13.6381603,42.9300003051758
13.6537853,35.5999984741211
13.6694103,28.0100002288818
13.6850353,20.5300006866455
13.7006603,13.5799999237061
13.7162853,7.55000019073486
13.7319103,2.64000010490417
13.7475353,-1.12999999523163
13.7631603,-3.90000009536743
13.7787853,-5.84000015258789
13.7944103,-7.15000009536743
13.8100353,-8.10999965667725
13.8256603,-9.01000022888184
13.8412853,-10.0299997329712
13.8569103,-11.1899995803833
13.8725353,-12.4799995422363
13.8881603,-13.9899997711182
13.9037853,-15.8999996185303
13.9194103,-18.2600002288818
13.9350353,-20.8899993896484
13.9506603,-23.5300006866455
13.9662853,-25.9899997711182
13.9819103,-28.2299995422363
13.9975353,-30.2600002288818
14.0131603,-32.0900001525879
14.0287853,-33.4099998474121
14.0444103,-33.3400001525879
14.0600353,-30.5300006866455
14.0756603,-23.7900009155273
14.0912853,-12.8500003814697
14.1069103,1.23000001907349
14.1225353,16.5
14.1381603,30.7900009155273
14.1537853,42.2099990844727
14.1694103,49.310001373291
14.1850353,51.3499984741211
14.2006603,48.6699981689453
14.2162853,42.6399993896484
14.2319103,35.0200004577637
14.2475353,27.4099998474121
14.2631603,20.8500003814697
14.2787853,15.6700000762939
14.2944103,11.6599998474121
14.3100353,8.39999961853027
14.3256603,5.67999982833862
14.3412853,3.4300000667572
14.3569103,1.69000005722046
14.3725353,0.46000000834465
14.3881603,-0.330000013113022
14.4037853,-1.00999999046326
14.4194103,-1.97000002861023
14.4350353,-3.58999991416931
14.4506603,-6.05000019073486
14.4662853,-9.31999969482422
14.4819103,-13.25
14.4975353,-17.6800003051758
14.5131603,-22.5400009155273
14.5287853,-27.6499996185303
14.5444103,-32.689998626709
14.5600353,-37.3199996948242
14.5756603,-41.2900009155273
14.5912853,-44.4500007629395
14.6069103,-46.6500015258789
14.6225353,-47.810001373291
14.6381603,-48.1100006103516
14.6537853,-47.7200012207031
14.6694103,-46.3699989318848
14.6850353,-42.9700012207031
14.7006603,-36.1500015258789
14.7162853,-25.2700004577637
14.7319103,-10.9899997711182
14.7475353,4.82000017166138
14.7631603,19.8799991607666
14.7787853,32.060001373291
14.7944103,39.7599983215332
14.8100353,42.2900009155273
14.8256603,40.0499992370605
14.8412853,34.2299995422363
14.8569103,26.2999992370605
14.8725353,17.5799999237061
14.8881603,8.85999965667725
14.9037853,0.419999986886978
14.9194103,-7.51000022888184
14.9350353,-14.3800001144409
14.9506603,-19.4699993133545
14.9662853,-22.3799991607666
14.9819103,-23.2700004577637
14.9975353,-22.6700000762939
15.0131603,-21.2800006866455
15.0287853,-19.7600002288818
15.0444103,-18.6599998474121
15.0600353,-18.2800006866455
15.0756603,-18.6900005340576
15.0912853,-19.6800003051758
15.1069103,-21.0200004577637
15.1225353,-22.5599994659424
15.1381603,-24.3500003814697
15.1537853,-26.5
15.1694103,-29.0100002288818
15.1850353,-31.7099990844727
15.2006603,-34.3199996948242
15.2162853,-36.5900001525879
15.2319103,-38.4000015258789
15.2475353,-39.75
15.2631603,-40.75
15.2787853,-41.3199996948242
15.2944103,-40.6800003051758
15.3100353,-37.4099998474121
15.3256603,-30.0699996948242
15.3412853,-17.9699993133545
15.3569103,-1.5900000333786
15.3725353,17.3199996948242
15.3881603,36.0900001525879
15.4037853,51.9500007629395
15.4194103,62.9799995422363
15.4350353,68.370002746582
15.4506603,68.4100036621094
15.4662853,64.1800003051758
15.4819103,57.0499992370605
15.4975353,48.2000007629395
15.5131603,38.439998626709
15.5287853,28.4400005340576
15.5444103,19.0699996948242
15.5600353,11.1700000762939
15.5756603,5.32999992370605
15.5912853,1.72000002861023
15.6069103,0.100000001490116
15.6225353,-0.0500000007450581
15.6381603,0.600000023841858
15.6537853,1.57000005245209
15.6694103,2.55999994277954
15.6850353,3.33999991416931
15.7006603,3.75
15.7162853,3.79999995231628
15.7319103,3.60999989509583
15.7475353,3.14000010490417
15.7631603,2.10999989509583
15.7787853,0.379999995231628
15.7944103,-1.82000005245209
15.8100353,-4.09999990463257
15.8256603,-6.07000017166138
15.8412853,-7.59999990463257
15.8569103,-8.73999977111816
15.8725353,-9.5600004196167
15.8881603,-9.89999961853027
15.9037853,-9.52999973297119
15.9194103,-8.17000007629395
15.9350353,-5.26999998092651
15.9506603,0.119999997317791
15.9662853,9.07999992370605
15.9819103,21.9699993133545
15.9975353,37.9700012207031
16.0131603,55.1599998474121
16.0287853,70.8600006103516
16.0444103,82.2600021362305
16.0600353,87.3899993896484
16.0756603,85.9700012207031
16.0912853,79.2200012207031
16.1069103,69.1500015258789
16.1225353,57.8199996948242
16.1381603,46.7799987792969
16.1537853,36.8499984741211
16.1694103,28.3299999237061
16.1850353,21.0900001525879
16.2006603,14.8599996566772
16.2162853,9.48999977111816
16.2319103,5.01000022888184
16.2475353,1.55999994277954
16.2631603,-0.709999978542328
16.2787853,-1.82000005245209
16.2944103,-2.07999992370605
16.3100353,-2.13000011444092
16.3256603,-2.70000004768372
16.3412853,-4.30000019073486
16.3569103,-7.03000020980835
16.3725353,-10.6099996566772
16.3881603,-14.6199998855591
16.4037853,-18.7999992370605
16.4194103,-23.1900005340576
16.4350353,-27.8299999237061
16.4506603,-32.5200004577637
16.4662853,-36.9199981689453
16.4819103,-40.7599983215332
16.4975353,-43.9300003051758
16.5131603,-46.3600006103516
16.5287853,-47.9799995422363
16.5444103,-48.3300018310547
16.5600353,-46.2700004577637
16.5756603,-40.3300018310547
16.5912853,-29.6499996185303
16.6069103,-14.6400003433228
16.6225353,2.9300000667572
16.6381603,20.3099994659424
16.6537853,34.439998626709
16.6694103,43.0900001525879
16.6850353,45.8899993896484
16.7006603,44.0200004577637
16.7162853,39.1300010681152
16.7319103,32.4799995422363
16.7475353,24.8999996185303
16.7631603,16.8799991607666
16.7787853,8.67000007629395
16.7944103,0.439999997615814
16.8100353,-7.38000011444092
16.8256603,-14.1499996185303
16.8412853,-19.25
16.8569103,-22.4500007629395
16.8725353,-24.0200004577637
16.8881603,-24.4099998474121
16.9037853,-24.0900001525879
16.9194103,-23.4599990844727
16.9350353,-22.8799991607666
16.9506603,-22.5200004577637
16.9662853,-22.4500007629395
16.9819103,-22.6700000762939
16.9975353,-23.1599998474121
17.0131603,-23.9200000762939
17.0287853,-24.9099998474121
17.0444103,-26.0499992370605
17.0600353,-27.25
17.0756603,-28.5200004577637
17.0912853,-29.9899997711182
17.1069103,-31.7399997711182
17.1225353,-33.6599998474121
17.1381603,-35.4900016784668
17.1537853,-36.7700004577637
17.1694103,-36.5
17.1850353,-32.9300003051758
17.2006603,-24.4099998474121
17.2162853,-10.6999998092651
17.2319103,6.55000019073486
17.2475353,24.3400001525879
17.2631603,39.4599990844727
17.2787853,49.5999984741211
17.2944103,53.7599983215332
17.3100353,52.310001373291
17.3256603,46.5699996948242
17.3412853,38.3300018310547
17.3569103,29.1599998474121
17.3725353,20.0699996948242
17.3881603,11.5200004577637
17.4037853,3.71000003814697
17.4194103,-3.21000003814697
17.4350353,-9.13000011444092
17.4506603,-13.8400001525879
17.4662853,-16.9899997711182
17.4819103,-18.2999992370605
17.4975353,-17.7700004577637
17.5131603,-15.6999998092651
17.5287853,-12.5799999237061
17.5444103,-9.07999992370605
17.5600353,-5.94000005722046
17.5756603,-3.77999997138977
17.5912853,-2.94000005722046
17.6069103,-3.51999998092651
17.6225353,-5.57000017166138
17.6381603,-8.89999961853027
17.6537853,-13.0299997329712
17.6694103,-17.3600006103516
17.6850353,-21.4899997711182
17.7006603,-25.1900005340576
17.7162853,-28.1299991607666
17.7319103,-29.9599990844727
17.7475353,-30.5400009155273
17.7631603,-29.8199996948242
17.7787853,-27.4099998474121
17.7944103,-22.2600002288818
17.8100353,-13.4099998474121
17.8256603,-1.02999997138977
17.8412853,13.3299999237061
17.8569103,27.2900009155273
17.8725353,38.5
17.8881603,45.4900016784668
17.9037853,47.9599990844727
17.9194103,46.5999984741211
17.9350353,42.5499992370605
17.9506603,36.9300003051758
17.9662853,30.5900001525879
17.9819103,24
17.9975353,17.4099998474121
18.0131603,10.9499998092651
18.0287853,4.80000019073486
18.0444103,-0.720000028610229
18.0600353,-5.17999982833862
18.0756603,-8.14000034332275
18.0912853,-9.39000034332275
18.1069103,-9.11999988555908
18.1225353,-7.84999990463257
18.1381603,-6.23000001907349
18.1537853,-4.76999998092651
18.1694103,-3.72000002861023
18.1850353,-3.15000009536743
18.2006603,-3.08999991416931
18.2162853,-3.80999994277954
18.2319103,-5.59999990463257
18.2475353,-8.63000011444092
18.2631603,-12.6800003051758
18.2787853,-17.2800006866455
18.2944103,-21.9599990844727
18.3100353,-26.2099990844727
18.3256603,-29.0900001525879
18.3412853,-29.4500007629395
18.3569103,-26.5400009155273
18.3725353,-20.3500003814697
18.3881603,-11.0299997329712
18.4037853,1.58000004291534
18.4194103,17.8400001525879
18.4350353,37.7599983215332
18.4506603,60.0999984741211
18.4662853,81.9700012207031
18.4819103,99.9199981689453
18.4975353,111.379997253418
18.5131603,115.51000213623
18.5287853,113.300003051758
18.5444103,107.129997253418
18.5600353,99.3000030517578
18.5756603,90.4800033569336
18.5912853,79.6699981689453
18.6069103,65.7300033569336
18.6225353,48.75
18.6381603,30.3199996948242
18.6537853,12.9099998474121
18.6694103,-1.38999998569489
18.6850353,-11.789999961853
18.7006603,-18.7800006866455
18.7162853,-23.4799995422363
18.7319103,-26.8899993896484
18.7475353,-29.4699993133545
18.7631603,-31.2600002288818
18.7787853,-32.2200012207031
18.7944103,-32.4700012207031
18.8100353,-32.3600006103516
18.8256603,-32.5800018310547
18.8412853,-33.8600006103516
18.8569103,-36.5200004577637
18.8725353,-40.2299995422363
18.8881603,-44.2299995422363
18.9037853,-47.6800003051758
18.9194103,-50.189998626709
18.9350353,-52.1100006103516
18.9506603,-54.2099990844727
18.9662853,-56.8300018310547
18.9819103,-59.2700004577637
18.9975353,-60.1800003051758
19.0131603,-58.3800010681152
19.0287853,-53.4599990844727
19.0444103,-45.9799995422363
19.0600353,-37.5
19.0756603,-30.0699996948242
19.0912853,-25.3500003814697
19.1069103,-24.0400009155273
19.1225353,-25.8400001525879
19.1381603,-29.7999992370605
19.1537853,-34.7700004577637
19.1694103,-39.8600006103516
19.1850353,-44.5299987792969
19.2006603,-48.4700012207031
19.2162853,-51.5
19.2319103,-53.5999984741211
19.2475353,-54.8699989318848
19.2631603,-55.439998626709
19.2787853,-55.3899993896484
19.2944103,-54.7799987792969
19.3100353,-53.5699996948242
19.3256603,-51.5299987792969
19.3412853,-48.3199996948242
19.3569103,-43.8400001525879
19.3725353,-38.4000015258789
19.3881603,-32.560001373291
19.4037853,-26.7600002288818
19.4194103,-21.3799991607666
19.4350353,-16.7099990844727
19.4506603,-12.8800001144409
19.4662853,-9.94999980926514
19.4819103,-7.86999988555908
19.4975353,-6.3600001335144
19.5131603,-4.82000017166138
19.5287853,-2.60999989509583
19.5444103,0.319999992847443
19.5600353,3.3199999332428
19.5756603,5.98999977111816
19.5912853,9.38000011444092
19.6069103,15.7799997329712
19.6225353,26.9899997711182
19.6381603,42.6500015258789
19.6537853,60.060001373291
19.6694103,75.5100021362305
19.6850353,86.0999984741211
19.7006603,90.75
19.7162853,90.0699996948242
19.7319103,85.620002746582
19.7475353,79.2099990844727
19.7631603,72.3399963378906
19.7787853,65.6600036621094
19.7944103,59.1199989318848
19.8100353,52.5400009155273
19.8256603,46.25
19.8412853,41.1699981689453
19.8569103,38.310001373291
19.8725353,38.1199989318848
19.8881603,40.060001373291
19.9037853,42.9300003051758
19.9194103,45.4799995422363
19.9350353,46.9300003051758
19.9506603,47.2299995422363
19.9662853,47.1100006103516
19.9819103,47.2400016784668
19.9975353,47.4300003051758
20.0131603,46.7700004577637
20.0287853,44.5900001525879
20.0444103,41.1699981689453
20.0600353,37.5900001525879
20.0756603,34.9300003051758
20.0912853,33.5
20.1069103,32.7299995422363
20.1225353,31.4500007629395
20.1381603,28.2199993133545
20.1537853,21.8999996185303
20.1694103,12.9200000762939
20.1850353,3.59999990463257
20.2006603,-2.76999998092651
20.2162853,-3.01999998092651
20.2319103,4.53999996185303
20.2475353,18.9099998474121
20.2631603,36.3800010681152
20.2787853,51.8300018310547
20.2944103,60.9199981689453
20.3100353,61.9700012207031
20.3256603,56.0800018310547
20.3412853,45.4700012207031
20.3569103,31.7900009155273
20.3725353,16.2299995422363
20.3881603,0.540000021457672
20.4037853,-13.039999961853
20.4194103,-23.2999992370605
20.4350353,-30.9200000762939
20.4506603,-38.1399993896484
20.4662853,-47.2700004577637
20.4819103,-59.0800018310547
20.4975353,-72.3000030517578
20.5131603,-84.4499969482422
20.5287853,-93.5100021362305
20.5444103,-98.9400024414063
20.5600353,-101.569999694824
20.5756603,-102.889999389648
20.5912853,-103.98999786377
20.6069103,-104.919998168945
20.6225353,-105.040000915527
20.6381603,-103.809997558594
20.6537853,-101.199996948242
20.6694103,-97.4800033569336
20.6850353,-92.8399963378906
20.7006603,-87.129997253418
20.7162853,-80.4000015258789
20.7319103,-73.3300018310547
20.7475353,-67.1500015258789
20.7631603,-62.5200004577637
20.7787853,-58.2999992370605
20.7944103,-51.8499984741211
20.8100353,-40.8899993896484
20.8256603,-25.2399997711182
20.8412853,-7.11999988555908
20.8569103,9.90999984741211
20.8725353,22.8899993896484
20.8881603,30.7600002288818
20.9037853,34.2999992370605
20.9194103,34.9000015258789
20.9350353,33.5400009155273
20.9506603,30.8899993896484
20.9662853,27.7800006866455
20.9819103,25.2800006866455
20.9975353,24.2299995422363
21.0131603,24.7399997711182
21.0287853,26.0300006866455
21.0444103,27.0400009155273
21.0600353,27.8999996185303
21.0756603,30.4799995422363
21.0912853,36.7299995422363
21.1069103,46.6800003051758
21.1225353,57.9199981689453
21.1381603,66.5999984741211
21.1537853,69.4700012207031
21.1694103,65.9000015258789
21.1850353,58.2799987792969
21.2006603,50.1199989318848
21.2162853,43.7900009155273
21.2319103,39.4799995422363
21.2475353,36.0699996948242
21.2631603,32.689998626709
21.2787853,29.6399993896484
21.2944103,28.0300006866455
21.3100353,28.3999996185303
21.3256603,30.2199993133545
21.3412853,32.6800003051758
21.3569103,35.7000007629395
21.3725353,39.8899993896484
21.3881603,45.8400001525879
21.4037853,53.5699996948242
21.4194103,62.3699989318848
21.4350353,70.8199996948242
21.4506603,76.8000030517578
21.4662853,78.0599975585938
21.4819103,73.379997253418
21.4975353,63.2200012207031
21.5131603,49.3499984741211
21.5287853,33.9900016784668
21.5444103,18.9899997711182
21.5600353,5.30000019073486
21.5756603,-7.01000022888184
21.5912853,-18.2199993133545
21.6069103,-28.2299995422363
21.6225353,-36.7900009155273
21.6381603,-43.9599990844727
21.6537853,-50.0800018310547
21.6694103,-55.2999992370605
21.6850353,-59.4799995422363
21.7006603,-62.4900016784668
21.7162853,-64.5199966430664
21.7319103,-65.9300003051758
21.7475353,-67.0500030517578
21.7631603,-68.1399993896484
21.7787853,-69.120002746582
21.7944103,-69.5699996948242
21.8100353,-69.2200012207031
21.8256603,-68.3199996948242
21.8412853,-67.2699966430664
21.8569103,-66.1999969482422
21.8725353,-65.0599975585938
21.8881603,-63.9300003051758
21.9037853,-62.9700012207031
21.9194103,-62.0499992370605
21.9350353,-60.7700004577637
21.9506603,-58.810001373291
21.9662853,-56.0800018310547
21.9819103,-52.2999992370605
21.9975353,-46.7200012207031
22.0131603,-38.5699996948242
22.0287853,-27.7800006866455
22.0444103,-15.3299999237061
22.0600353,-2.95000004768372
22.0756603,7.55999994277954
22.0912853,14.9099998474121
22.1069103,18.5499992370605
22.1225353,18.7800006866455
22.1381603,16.4899997711182
22.1537853,12.7799997329712
22.1694103,8.68000030517578
22.1850353,4.86999988555908
22.2006603,1.55999994277954
22.2162853,-1.26999998092651
22.2319103,-3.58999991416931
22.2475353,-5.1399998664856
22.2631603,-5.6399998664856
22.2787853,-4.96000003814697
22.2944103,-3.09999990463257
22.3100353,-0.340000003576279
22.3256603,2.9300000667572
22.3412853,6.3600001335144
22.3569103,9.56999969482422
22.3725353,12.3000001907349
22.3881603,14.5299997329712
22.4037853,16.4699993133545
22.4194103,18.3600006103516
22.4350353,20.2900009155273
22.4506603,22.0799999237061
22.4662853,23.3799991607666
22.4819103,23.9400005340576
22.4975353,23.8199996948242
22.5131603,23.0900001525879
22.5287853,21.4599990844727
22.5444103,18.6100006103516
22.5600353,14.8100004196167
22.5756603,11.1199998855591
22.5912853,9.0600004196167
22.6069103,9.96000003814697
22.6225353,14.4300003051758
22.6381603,22.0200004577637
22.6537853,31.2700004577637
22.6694103,40.0299987792969
22.6850353,46.2400016784668
22.7006603,48.7400016784668
22.7162853,47.5900001525879
22.7319103,43.75
22.7475353,38.3499984741211
22.7631603,32.2400016784668
22.7787853,25.9899997711182
22.7944103,20
22.8100353,14.5500001907349
22.8256603,9.6899995803833
22.8412853,5.26999998092651
22.8569103,1.17999994754791
22.8725353,-2.5
22.8881603,-5.71000003814697
22.9037853,-8.44999980926514
22.9194103,-10.75
22.9350353,-12.6899995803833
22.9506603,-14.3999996185303
22.9662853,-15.8999996185303
22.9819103,-17.2000007629395
22.9975353,-18.4699993133545
23.0131603,-19.7999992370605
23.0287853,-20.9599990844727
23.0444103,-21.5799999237061
23.0600353,-21.4300003051758
23.0756603,-20.5699996948242
23.0912853,-19.2700004577637
23.1069103,-17.9699993133545
23.1225353,-16.9599990844727
23.1381603,-16.2099990844727
23.1537853,-15.4099998474121
23.1694103,-14.1800003051758
23.1850353,-12.4399995803833
23.2006603,-10.3599996566772
23.2162853,-7.94999980926514
23.2319103,-4.78999996185303
23.2475353,-0.0900000035762787
23.2631603,6.84999990463257
23.2787853,16
23.2944103,26.2399997711182
23.3100353,35.7799987792969
23.3256603,42.9099998474121
23.3412853,46.6599998474121
23.3569103,47
23.3725353,44.7299995422363
23.3881603,40.9900016784668
23.4037853,36.7599983215332
23.4194103,32.689998626709
23.4350353,29.2000007629395
23.4506603,26.4099998474121
23.4662853,24.0400009155273
23.4819103,21.6499996185303
23.4975353,19.0400009155273
23.5131603,16.3299999237061
23.5287853,13.9300003051758
23.5444103,12.1899995803833
23.5600353,11.25
23.5756603,10.9399995803833
23.5912853,10.8299999237061
23.6069103,10.289999961853
23.6225353,8.89999961853027
23.6381603,6.53999996185303
23.6537853,3.48000001907349
23.6694103,0.349999994039536
23.6850353,-2.26999998092651
23.7006603,-4.19999980926514
23.7162853,-5.6399998664856
23.7319103,-7.01000022888184
23.7475353,-8.69999980926514
23.7631603,-10.8000001907349
23.7787853,-13.0900001525879
23.7944103,-15.2600002288818
23.8100353,-16.9300003051758
23.8256603,-17.7600002288818
23.8412853,-17.4799995422363
23.8569103,-15.8000001907349
23.8725353,-12.1999998092651
23.8881603,-6.09000015258789
23.9037853,2.4300000667572
23.9194103,12.2299995422363
23.9350353,21.2600002288818
23.9506603,27.5100002288818
23.9662853,29.7099990844727
23.9819103,27.8299999237061
23.9975353,22.8600006103516
24.0131603,16.4400005340576
24.0287853,10.1499996185303
24.0444103,4.92999982833862
24.0600353,0.910000026226044
24.0756603,-2.23000001907349
24.0912853,-4.94999980926514
24.1069103,-7.59000015258789
24.1225353,-10.25
24.1381603,-12.7299995422363
24.1537853,-14.6800003051758
24.1694103,-15.789999961853
24.1850353,-16.0400009155273
24.2006603,-15.6099996566772
24.2162853,-14.9300003051758
24.2319103,-14.4899997711182
24.2475353,-14.7399997711182
24.2631603,-15.7200002670288
24.2787853,-17.1299991607666
24.2944103,-18.6100006103516
24.3100353,-19.9899997711182
24.3256603,-21.2600002288818
24.3412853,-22.4400005340576
24.3569103,-23.6599998474121
24.3725353,-25
24.3881603,-26.3500003814697
24.4037853,-27.5599994659424
24.4194103,-28.6000003814697
24.4350353,-29.4400005340576
24.4506603,-29.9500007629395
24.4662853,-29.7800006866455
24.4819103,-28.3099994659424
24.4975353,-24.6100006103516
24.5131603,-17.8700008392334
24.5287853,-8.11999988555908
24.5444103,3.28999996185303
24.5600353,14.039999961853
24.5756603,21.7800006866455
24.5912853,25.2000007629395
24.6069103,24.3600006103516
24.6225353,20.3500003814697
24.6381603,14.7600002288818
24.6537853,8.98999977111816
24.6694103,3.94000005722046
24.6850353,-0.230000004172325
24.7006603,-4.17999982833862
24.7162853,-8.82999992370605
24.7319103,-14.5100002288818
24.7475353,-20.5699996948242
24.7631603,-25.7199993133545
24.7787853,-28.6299991607666
24.7944103,-28.7399997711182
24.8100353,-26.4500007629395
24.8256603,-22.8899993896484
24.8412853,-19.2900009155273
24.8569103,-16.6000003814697
24.8725353,-15.1899995803833
24.8881603,-14.8199996948242
24.9037853,-14.9200000762939
24.9194103,-14.8500003814697
24.9350353,-14.0600004196167
24.9506603,-12.3500003814697
24.9662853,-10.1000003814697
24.9819103,-8.02999973297119
24.9975353,-6.63000011444092
25.0131603,-5.86999988555908
25.0287853,-5.46000003814697
25.0444103,-5.15999984741211
25.0600353,-4.88000011444092
25.0756603,-4.48999977111816
25.0912853,-3.69000005722046
25.1069103,-1.63999998569489
25.1225353,2.96000003814697
25.1381603,11.1400003433228
25.1537853,22.6700000762939
25.1694103,35.7900009155273
25.1850353,47.8600006103516
25.2006603,56.4599990844727
25.2162853,60.2000007629395
25.2319103,59.060001373291
25.2475353,54.1500015258789
25.2631603,47.0499992370605
25.2787853,39.2799987792969
25.2944103,32.0400009155273
25.3100353,25.9899997711182
25.3256603,21.2600002288818
25.3412853,17.5300006866455
25.3569103,14.25
25.3725353,11.0699996948242
25.3881603,8.02000045776367
25.4037853,5.3600001335144
25.4194103,3.27999997138977
25.4350353,1.69000005722046
25.4506603,0.490000009536743
25.4662853,-0.230000004172325
25.4819103,-0.280000001192093
25.4975353,0.349999994039536
25.5131603,1.36000001430511
25.5287853,2.03999996185303
25.5444103,1.73000001907349
25.5600353,0.239999994635582
25.5756603,-2.04999995231628
25.5912853,-4.65999984741211
25.6069103,-7.28999996185303
25.6225353,-9.78999996185303
25.6381603,-12
25.6537853,-13.710000038147
25.6694103,-14.8800001144409
25.6850353,-15.6199998855591
25.7006603,-16.0400009155273
25.7162853,-15.7700004577637
25.7319103,-13.5600004196167
25.7475353,-7.53000020980835
25.7631603,3.24000000953674
25.7787853,17.5699996948242
25.7944103,32.4700012207031
25.8100353,44.6100006103516
25.8256603,51.6500015258789
25.8412853,53
25.8569103,49.7700004577637
25.8725353,44.0900001525879
25.8881603,37.8600006103516
25.9037853,31.9300003051758
25.9194103,25.9500007629395
25.9350353,18.8700008392334
25.9506603,10.0299997329712
25.9662853,-0.180000007152557
25.9819103,-10.3100004196167
25.9975353,-18.5
26.0131603,-23.3799991607666
26.0287853,-24.7700004577637
26.0444103,-23.7299995422363
26.0600353,-21.9400005340576
26.0756603,-20.8099994659424
26.0912853,-21
26.1069103,-22.4200000762939
26.1225353,-24.5
26.1381603,-26.5300006866455
26.1537853,-28.0900001525879
26.1694103,-29.5
26.1850353,-31.9799995422363
26.2006603,-36.8300018310547
26.2162853,-44.0299987792969
26.2319103,-51.9099998474121
26.2475353,-58.4000015258789
26.2631603,-62.5200004577637
26.2787853,-64.5400009155273
26.2944103,-65.1600036621094
26.3100353,-64.9700012207031
26.3256603,-64.2099990844727
26.3412853,-62.689998626709
26.3569103,-59.7200012207031
26.3725353,-54.2900009155273
26.3881603,-45.8499984741211
26.4037853,-34.9799995422363
26.4194103,-23.25
26.4350353,-12.5200004577637
26.4506603,-4.32000017166138
26.4662853,0.639999985694885
26.4819103,2.72000002861023
26.4975353,2.92000007629395
26.5131603,2.27999997138977
26.5287853,1.22000002861023
26.5444103,-0.300000011920929
26.5600353,-2.26999998092651
26.5756603,-4.34999990463257
26.5912853,-6.09999990463257
26.6069103,-7.21000003814697
26.6225353,-7.46999979019165
26.6381603,-6.84000015258789
26.6537853,-5.38000011444092
26.6694103,-3.20000004768372
26.6850353,-0.490000009536743
26.7006603,2.57999992370605
26.7162853,5.88000011444092
26.7319103,9.17000007629395
26.7475353,12.1300001144409
26.7631603,14.4099998474121
26.7787853,15.7299995422363
26.7944103,16.0300006866455
26.8100353,15.539999961853
26.8256603,14.6599998474121
26.8412853,13.7399997711182
26.8569103,13.0600004196167
26.8725353,12.75
26.8881603,12.8199996948242
26.9037853,13.1199998855591
26.9194103,13.3100004196167
26.9350353,13.039999961853
26.9506603,12.5100002288818
26.9662853,12.9399995803833
26.9819103,16.2800006866455
26.9975353,24.2399997711182
27.0131603,36.9799995422363
27.0287853,52.5699996948242
27.0444103,67.5
27.0600353,78.1399993896484
27.0756603,82.3000030517578
27.0912853,79.9199981689453
27.1069103,72.6500015258789
27.1225353,62.8499984741211
27.1381603,52.5800018310547
27.1537853,43.1399993896484
27.1694103,35.0499992370605
27.1850353,28.3899993896484
27.2006603,23.0699996948242
27.2162853,18.8799991607666
27.2319103,15.2299995422363
27.2475353,11.5500001907349
27.2631603,8.03999996185303
27.2787853,5.53000020980835
27.2944103,4.61999988555908
27.3100353,5.19999980926514
27.3256603,6.57000017166138
27.3412853,7.82000017166138
27.3569103,8.22000026702881
27.3725353,7.51000022888184
27.3881603,5.90000009536743
27.4037853,3.82999992370605
27.4194103,1.78999996185303
27.4350353,0.00999999977648258
27.4506603,-1.62999999523163
27.4662853,-3.49000000953674
27.4819103,-5.76999998092651
27.4975353,-8.44999980926514
27.5131603,-11.2399997711182
27.5287853,-13.5200004577637
27.5444103,-14.1599998474121
27.5600353,-11.8699998855591
27.5756603,-5.92000007629395
27.5912853,3.08999991416931
27.6069103,13.2299995422363
27.6225353,21.8700008392334
27.6381603,26.8899993896484
27.6537853,27.4500007629395
27.6694103,24
27.6850353,17.8199996948242
27.7006603,10.3299999237061
27.7162853,2.69000005722046
27.7319103,-4.38000011444092
27.7475353,-10.5799999237061
27.7631603,-15.8299999237061
27.7787853,-20.2999992370605
27.7944103,-24.1900005340576
27.8100353,-27.4899997711182
27.8256603,-30.0100002288818
27.8412853,-31.6100006103516
27.8569103,-32.2799987792969
27.8725353,-32.2400016784668
27.8881603,-31.8999996185303
27.9037853,-31.6800003051758
27.9194103,-31.7800006866455
27.9350353,-32.2200012207031
27.9506603,-32.9000015258789
27.9662853,-33.6300010681152
27.9819103,-34.2799987792969
27.9975353,-34.75
28.0131603,-35.0099983215332
28.0287853,-35.0800018310547
28.0444103,-34.9599990844727
28.0600353,-34.6399993896484
28.0756603,-34.0800018310547
28.0912853,-33.2599983215332
28.1069103,-31.9500007629395
28.1225353,-29.3299999237061
28.1381603,-24.0699996948242
28.1537853,-15.210000038147
28.1694103,-3.25999999046326
28.1850353,9.6899995803833
28.2006603,20.9200000762939
28.2162853,28.1900005340576
28.2319103,30.6800003051758
28.2475353,28.9699993133545
28.2631603,24.4300003051758
28.2787853,18.5300006866455
28.2944103,12.5100002288818
28.3100353,7.21000003814697
28.3256603,3
28.3412853,-0.0700000002980232
28.3569103,-2.19000005722046
28.3725353,-3.53999996185303
28.3881603,-4.23000001907349
28.4037853,-4.21999979019165
28.4194103,-3.35999989509583
28.4350353,-1.63999998569489
28.4506603,0.769999980926514
28.4662853,3.54999995231628
28.4819103,6.26000022888184
28.4975353,8.5
28.5131603,9.94999980926514
28.5287853,10.3800001144409
28.5444103,9.64000034332275
28.5600353,7.78000020980835
28.5756603,5.01999998092651
28.5912853,1.8400000333786
28.6069103,-1.21000003814697
28.6225353,-3.80999994277954
28.6381603,-5.96000003814697
28.6537853,-7.84000015258789
28.6694103,-9.38000011444092
28.6850353,-9.9399995803833
28.7006603,-8.51000022888184
28.7162853,-4.05000019073486
28.7319103,3.89000010490417
28.7475353,14.6800003051758
28.7631603,26.5699996948242
28.7787853,37.2799987792969
28.7944103,44.8499984741211
28.8100353,48.3400001525879
28.8256603,48.1599998474121
28.8412853,45.4500007629395
28.8569103,41.4300003051758
28.8725353,36.939998626709
28.8881603,32.4300003051758
28.9037853,28.1599998474121
28.9194103,24.2800006866455
28.9350353,20.7399997711182
28.9506603,17.3600006103516
28.9662853,13.9499998092651
28.9819103,10.4399995803833
28.9975353,6.90999984741211
29.0131603,3.70000004768372
29.0287853,1.12000000476837
29.0444103,-0.939999997615814
29.0600353,-3.0699999332428
29.0756603,-5.82999992370605
29.0912853,-9.26000022888184
29.1069103,-12.9499998092651
29.1225353,-16.4400005340576
29.1381603,-19.6299991607666
29.1537853,-22.7600002288818
29.1694103,-26.0699996948242
29.1850353,-29.4200000762939
29.2006603,-32.2999992370605
29.2162853,-34.2000007629395
29.2319103,-35.0499992370605
29.2475353,-35.189998626709
29.2631603,-35.0299987792969
29.2787853,-34.7000007629395
29.2944103,-33.810001373291
29.3100353,-31.3899993896484
29.3256603,-26.2099990844727
29.3412853,-17.5400009155273
29.3569103,-6.07000017166138
29.3725353,6.03000020980835
29.3881603,16.0400009155273
29.4037853,21.8099994659424
29.4194103,22.6200008392334
29.4350353,19.2600002288818
29.4506603,13.4099998474121
29.4662853,6.76999998092651
29.4819103,0.430000007152557
29.4975353,-5.15999984741211
29.5131603,-9.84000015258789
29.5287853,-13.4399995803833
29.5444103,-16
29.5600353,-17.9699993133545
29.5756603,-19.7900009155273
29.5912853,-21.3700008392334
29.6069103,-22.1900005340576
29.6225353,-21.8400001525879
29.6381603,-20.4099998474121
29.6537853,-18.4599990844727
29.6694103,-16.7199993133545
29.6850353,-15.6400003433228
29.7006603,-15.2799997329712
29.7162853,-15.289999961853
29.7319103,-15.289999961853
29.7475353,-15.1199998855591
29.7631603,-14.960000038147
29.7787853,-15.210000038147
29.7944103,-16.3299999237061
29.8100353,-18.3799991607666
29.8256603,-20.7399997711182
29.8412853,-22.2600002288818
29.8569103,-21.9400005340576
29.8725353,-19.7000007629395
29.8881603,-16.3600006103516
29.9037853,-12.75
29.9194103,-8.71000003814697
29.9350353,-3.07999992370605
29.9506603,5.42999982833862
29.9662853,17.2199993133545
29.9819103,31.1000003814697
29.9975353,44.4900016784668
30.0131603,54.3499984741211
30.0287853,58.3300018310547
30.0444103,55.9500007629395
30.0600353,48.9599990844727
30.0756603,40.560001373291
30.0912853,33.6800003051758
30.1069103,29.3299999237061
30.1225353,26.4200000762939
30.1381603,23.3099994659424
30.1537853,19.3099994659424
30.1694103,14.9700002670288
30.1850353,11.289999961853
30.2006603,8.82999992370605
30.2162853,7.46000003814697
30.2319103,6.59000015258789
30.2475353,5.65999984741211
30.2631603,4.46999979019165
30.2787853,3.20000004768372
30.2944103,2.26999998092651
30.3100353,1.86000001430511
30.3256603,1.80999994277954
30.3412853,1.75999999046326
30.3569103,1.42999994754791
30.3725353,0.670000016689301
30.3881603,-0.649999976158142
30.4037853,-2.66000008583069
30.4194103,-5.46000003814697
30.4350353,-8.93000030517578
30.4506603,-12.6199998855591
30.4662853,-16.0300006866455
30.4819103,-18.8299999237061
30.4975353,-20.9200000762939
30.5131603,-22.0799999237061
30.5287853,-21.75
30.5444103,-19.0100002288818
30.5600353,-13.0500001907349
30.5756603,-4.03999996185303
30.5912853,6.57000017166138
30.6069103,16.7199993133545
30.6225353,24.5300006866455
30.6381603,28.9200000762939
30.6537853,29.7800006866455
30.6694103,27.8500003814697
30.6850353,24.2999992370605
30.7006603,20.1299991607666
30.7162853,15.9099998474121
30.7319103,11.9099998474121
30.7475353,8.14000034332275
30.7631603,4.55999994277954
30.7787853,1.14999997615814
30.7944103,-1.9099999666214
30.8100353,-4.40999984741211
30.8256603,-6.25
30.8412853,-7.51000022888184
30.8569103,-8.42000007629395
30.8725353,-9.15999984741211
30.8881603,-9.77000045776367
30.9037853,-10.2600002288818
30.9194103,-10.75
30.9350353,-11.5
30.9506603,-12.6599998474121
30.9662853,-14.1199998855591
30.9819103,-15.6599998474121
30.9975353,-17.1200008392334
31.0131603,-18.5300006866455
31.0287853,-19.9500007629395
31.0444103,-21.3600006103516
31.0600353,-22.7199993133545
31.0756603,-23.9799995422363
31.0912853,-25.0799999237061
31.1069103,-25.8700008392334
31.1225353,-25.9200000762939
31.1381603,-24.4799995422363
31.1537853,-20.3700008392334
31.1694103,-12.25
31.1850353,0.280000001192093
31.2006603,15.8800001144409
31.2162853,31.5599994659424
31.2319103,44.0800018310547
31.2475353,51.2299995422363
31.2631603,52.560001373291
31.2787853,49.2000007629395
31.2944103,43.0699996948242
31.3100353,35.9599990844727
31.3256603,28.9500007629395
31.3412853,22.2299995422363
31.3569103,15.4899997711182
31.3725353,8.5
31.3881603,1.61000001430511
31.4037853,-4.3899998664856
31.4194103,-8.89000034332275
31.4350353,-11.710000038147
31.4506603,-13.1300001144409
31.4662853,-13.6099996566772
31.4819103,-13.6300001144409
31.4975353,-13.5200004577637
31.5131603,-13.4200000762939
31.5287853,-13.3800001144409
31.5444103,-13.4899997711182
31.5600353,-14.0200004577637
31.5756603,-15.2200002670288
31.5912853,-17.1900005340576
31.6069103,-19.7399997711182
31.6225353,-22.4400005340576
31.6381603,-24.8600006103516
31.6537853,-26.9400005340576
31.6694103,-28.9099998474121
31.6850353,-30.9699993133545
31.7006603,-33.0400009155273
31.7162853,-34.8199996948242
31.7319103,-35.8300018310547
31.7475353,-35.5200004577637
31.7631603,-33.2099990844727
31.7787853,-28.1599998474121
31.7944103,-19.7399997711182
31.8100353,-7.69000005722046
31.8256603,7.11999988555908
31.8412853,22.2999992370605
31.8569103,34.6199989318848
31.8725353,41.7999992370605
31.8881603,43.3199996948242
31.9037853,40.1699981689453
31.9194103,34.0800018310547
31.9350353,26.7999992370605
31.9506603,19.6599998474121
31.9662853,13.3299999237061
31.9819103,7.80999994277954
31.9975353,2.90000009536743
32.0131603,-1.46000003814697
32.0287853,-5.25
32.0444103,-8.42000007629395
32.0600353,-10.8900003433228
32.0756603,-12.4499998092651
32.0912853,-12.8699998855591
32.1069103,-12.25
32.1225353,-11.0500001907349
32.1381603,-9.82999992370605
32.1537853,-8.97000026702881
32.1694103,-8.61999988555908
32.1850353,-8.72999954223633
32.2006603,-9.06999969482422
32.2162853,-9.31999969482422
32.2319103,-9.27000045776367
32.2475353,-8.92000007629395
32.2631603,-8.43000030517578
32.2787853,-7.94999980926514
32.2944103,-7.48999977111816
32.3100353,-7
32.3256603,-6.42000007629395
32.3412853,-5.63000011444092
32.3569103,-4.53999996185303
32.3725353,-2.97000002861023
32.3881603,-0.330000013113022
32.4037853,4.67999982833862
32.4194103,13.7399997711182
32.4350353,27.4599990844727
32.4506603,44.3400001525879
32.4662853,61.2200012207031
32.4819103,74.6399993896484
32.4975353,82.0999984741211
32.5131603,82.8099975585938
32.5287853,77.5800018310547
32.5444103,68.3300018310547
32.5600353,57.2799987792969
32.5756603,46.3400001525879
32.5912853,36.5999984741211
32.6069103,28.2900009155273
32.6225353,21.0200004577637
32.6381603,14.1800003051758
32.6537853,7.34000015258789
32.6694103,0.689999997615814
32.6850353,-4.90000009536743
32.7006603,-8.47000026702881
32.7162853,-9.64000034332275
32.7319103,-9
32.7475353,-7.65000009536743
32.7631603,-6.53999996185303
32.7787853,-6.21000003814697
32.7944103,-6.90999984741211
32.8100353,-8.63000011444092
32.8256603,-11.3699998855591
32.8412853,-15.210000038147
32.8569103,-20.0799999237061
32.8725353,-25.4300003051758
32.8881603,-30.3099994659424
32.9037853,-33.7900009155273
32.9194103,-35.5200004577637
32.9350353,-35.8400001525879
32.9506603,-35.6599998474121
32.9662853,-35.9099998474121
32.9819103,-36.9599990844727
32.9975353,-38.4700012207031
33.0131603,-39.6500015258789
33.0287853,-39.4500007629395
33.0444103,-36.7099990844727
33.0600353,-30.4699993133545
33.0756603,-20.3899993896484
33.0912853,-7.01999998092651
33.1069103,8.10000038146973
33.1225353,22.5900001525879
33.1381603,33.9199981689453
33.1537853,40.5099983215332
33.1694103,42.1599998474121
33.1850353,39.7700004577637
33.2006603,34.8800010681152
33.2162853,29.0900001525879
33.2319103,23.3400001525879
33.2475353,17.6399993896484
33.2631603,11.539999961853
33.2787853,4.84999990463257
33.2944103,-1.85000002384186
33.3100353,-7.32999992370605
33.3256603,-10.4200000762939
33.3412853,-10.8500003814697
33.3569103,-9.42000007629395
33.3725353,-7.76000022888184
33.3881603,-7.48999977111816
33.4037853,-9.35000038146973
33.4194103,-12.9099998474121
33.4350353,-17.0699996948242
33.4506603,-20.7800006866455
33.4662853,-23.4400005340576
33.4819103,-24.9099998474121
33.4975353,-25.4300003051758
33.5131603,-25.5400009155273
33.5287853,-25.7600002288818
33.5444103,-26.2299995422363
33.5600353,-26.75
33.5756603,-27.1499996185303
33.5912853,-27.4699993133545
33.6069103,-27.75
33.6225353,-27.8099994659424
33.6381603,-27.0599994659424
33.6537853,-24.3899993896484
33.6694103,-18.5499992370605
33.6850353,-8.78999996185303
33.7006603,4.42999982833862
33.7162853,19.3099994659424
33.7319103,32.8600006103516
33.7475353,42.1599998474121
33.7631603,45.5800018310547
33.7787853,43.3499984741211
33.7944103,37.1199989318848
33.8100353,29.1000003814697
33.8256603,21.0499992370605
33.8412853,13.8100004196167
33.8569103,7.40999984741211
33.8725353,1.77999997138977
33.8881603,-3.05999994277954
33.9037853,-7.11999988555908
33.9194103,-10.3999996185303
33.9350353,-12.8800001144409
33.9506603,-14.4899997711182
33.9662853,-15.2399997711182
33.9819103,-15.2600002288818
33.9975353,-14.8299999237061
34.0131603,-14.2799997329712
34.0287853,-13.8900003433228
34.0444103,-13.710000038147
34.0600353,-13.6000003814697
34.0756603,-13.4399995803833
34.0912853,-13.3100004196167
34.1069103,-13.3699998855591
34.1225353,-13.6700000762939
34.1381603,-14.0600004196167
34.1537853,-14.289999961853
34.1694103,-14.1599998474121
34.1850353,-13.7600002288818
34.2006603,-13.3800001144409
34.2162853,-13.1800003051758
34.2319103,-12.8900003433228
34.2475353,-11.710000038147
34.2631603,-8.22000026702881
34.2787853,-0.889999985694885
34.2944103,11.0699996948242
34.3100353,26.8199996948242
34.3256603,43.810001373291
34.3412853,58.7400016784668
34.3569103,68.8199996948242
34.3725353,72.5800018310547
34.3881603,70.2399978637695
34.4037853,63.3199996948242
34.4194103,53.9599990844727
34.4350353,43.9599990844727
34.4506603,34.3899993896484
34.4662853,25.5900001525879
34.4819103,17.5200004577637
34.4975353,10.0600004196167
34.5131603,3.25
34.5287853,-2.75
34.5444103,-7.73999977111816
34.5600353,-11.5600004196167
34.5756603,-14.2299995422363
34.5912853,-15.8599996566772
34.6069103,-16.5799999237061
34.6225353,-16.5599994659424
34.6381603,-16.0100002288818
34.6537853,-15.2700004577637
34.6694103,-14.6700000762939
34.6850353,-14.3599996566772
34.7006603,-14.4300003051758
34.7162853,-15.0200004577637
34.7319103,-16.2399997711182
34.7475353,-18.0799999237061
34.7631603,-20.3600006103516
34.7787853,-22.8700008392334
34.7944103,-25.3700008392334
34.8100353,-27.6399993896484
34.8256603,-29.4200000762939
34.8412853,-30.4099998474121
34.8569103,-29.9799995422363
34.8725353,-26.8400001525879
34.8881603,-19.5499992370605
34.9037853,-7.63000011444092
34.9194103,7.65000009536743
34.9350353,23.6800003051758
34.9506603,37.4500007629395
34.9662853,46.5
34.9819103,49.6199989318848
34.9975353,47.1100006103516
35.0131603,40.4599990844727
35.0287853,31.6399993896484
35.0444103,22.2600002288818
35.0600353,13.1700000762939
35.0756603,4.6399998664856
35.0912853,-3.29999995231628
35.1069103,-10.5799999237061
35.1225353,-16.8299999237061
35.1381603,-21.5599994659424
35.1537853,-24.3199996948242
35.1694103,-25.0100002288818
35.1850353,-24.0300006866455
35.2006603,-22.2199993133545
35.2162853,-20.4500007629395
35.2319103,-19.2399997711182
35.2475353,-18.7199993133545
35.2631603,-18.7900009155273
35.2787853,-19.2299995422363
35.2944103,-19.7399997711182
35.3100353,-20.0900001525879
35.3256603,-20.25
35.3412853,-20.3700008392334
35.3569103,-20.6599998474121
35.3725353,-21.2299995422363
35.3881603,-22.0100002288818
35.4037853,-22.7299995422363
35.4194103,-22.8999996185303
35.4350353,-21.6200008392334
35.4506603,-17.5100002288818
35.4662853,-9.38000011444092
35.4819103,2.88000011444092
35.4975353,17.9400005340576
35.5131603,33.2599983215332
35.5287853,45.8899993896484
35.5444103,53.5299987792969
35.5600353,55.4199981689453
35.5756603,52.3600006103516
35.5912853,46.0099983215332
35.6069103,38.0699996948242
35.6225353,29.8400001525879
35.6381603,21.9699993133545
35.6537853,14.710000038147
35.6694103,8.10000038146973
35.6850353,2.11999988555908
35.7006603,-3.16000008583069
35.7162853,-7.5
35.7319103,-10.4700002670288
35.7475353,-11.7700004577637
35.7631603,-11.539999961853
35.7787853,-10.1999998092651
35.7944103,-8.3100004196167
35.8100353,-6.46999979019165
35.8256603,-5.17999982833862
35.8412853,-4.67000007629395
35.8569103,-4.92999982833862
35.8725353,-5.76000022888184
35.8881603,-7.01999998092651
35.9037853,-8.59000015258789
35.9194103,-10.3400001525879
35.9350353,-12.1099996566772
35.9506603,-13.7200002670288
35.9662853,-15.1400003433228
35.9819103,-16.4799995422363
35.9975353,-17.7399997711182
36.0131603,-18.5799999237061
36.0287853,-18.1299991607666
36.0444103,-14.9899997711182
36.0600353,-7.88000011444092
36.0756603,3.26999998092651
36.0912853,16.6499996185303
36.1069103,29.4099998474121
36.1225353,39.5400009155273
36.1381603,46.3199996948242
36.1537853,49.5099983215332
36.1694103,49.0699996948242
36.1850353,45.2999992370605
36.2006603,39.0099983215332
36.2162853,31.2700004577637
36.2319103,22.9699993133545
36.2475353,14.7299995422363
36.2631603,6.98000001907349
36.2787853,0.0500000007450581
36.2944103,-5.94000005722046
36.3100353,-11.0600004196167
36.3256603,-15.1599998474121
36.3412853,-17.9400005340576
36.3569103,-19.1200008392334
36.3725353,-18.7700004577637
36.3881603,-17.3600006103516
36.4037853,-15.6000003814697
36.4194103,-14.1499996185303
36.4350353,-13.289999961853
36.4506603,-13.0100002288818
36.4662853,-13.2799997329712
36.4819103,-14.0600004196167
36.4975353,-15.2600002288818
36.5131603,-16.7399997711182
36.5287853,-18.3500003814697
36.5444103,-20.0300006866455
36.5600353,-21.6100006103516
36.5756603,-22.9099998474121
36.5912853,-23.7700004577637
36.6069103,-23.8799991607666
36.6225353,-22.3400001525879
36.6381603,-17.8700008392334
36.6537853,-9.55000019073486
36.6694103,2.32999992370605
36.6850353,16.0900001525879
36.7006603,29.1299991607666
36.7162853,38.9099998474121
36.7319103,43.9199981689453
36.7475353,44.0099983215332
36.7631603,40.1399993896484
36.7787853,33.7599983215332
36.7944103,26.2999992370605
36.8100353,18.7700004577637
36.8256603,11.8000001907349
36.8412853,5.71999979019165
36.8569103,0.46000000834465
36.8725353,-4.23000001907349
36.8881603,-8.44999980926514
36.9037853,-11.8800001144409
36.9194103,-14.0100002288818
36.9350353,-14.5799999237061
36.9506603,-13.8400001525879
36.9662853,-12.6099996566772
36.9819103,-11.6499996185303
36.9975353,-11.2399997711182
37.0131603,-11.1300001144409
37.0287853,-11.0600004196167
37.0444103,-11.1199998855591
37.0600353,-11.5799999237061
37.0756603,-12.5900001525879
37.0912853,-14.0200004577637
37.1069103,-15.6800003051758
37.1225353,-17.4799995422363
37.1381603,-19.4699993133545
37.1537853,-21.5
37.1694103,-23.2900009155273
37.1850353,-24.5599994659424
37.2006603,-24.9099998474121
37.2162853,-23.4500007629395
37.2319103,-18.7399997711182
37.2475353,-9.8100004196167
37.2631603,2.79999995231628
37.2787853,17.0300006866455
37.2944103,30.0599994659424
37.3100353,39.4099998474121
37.3256603,43.7799987792969
37.3412853,43.2000007629395
37.3569103,38.7299995422363
37.3725353,31.9799995422363
37.3881603,24.4200000762939
37.4037853,17.0799999237061
37.4194103,10.4200000762939
37.4350353,4.63000011444092
37.4506603,-0.239999994635582
37.4662853,-4.26000022888184
37.4819103,-7.51999998092651
37.4975353,-9.94999980926514
37.5131603,-11.2799997329712
37.5287853,-11.3500003814697
37.5444103,-10.3299999237061
37.5600353,-8.68000030517578
37.5756603,-6.90999984741211
37.5912853,-5.3899998664856
37.6069103,-4.40000009536743
37.6225353,-4.11999988555908
37.6381603,-4.59000015258789
37.6537853,-5.6399998664856
37.6694103,-6.94999980926514
37.6850353,-8.26000022888184
37.7006603,-9.47999954223633
37.7162853,-10.7399997711182
37.7319103,-12.1899995803833
37.7475353,-13.8299999237061
37.7631603,-15.4099998474121
37.7787853,-16.5499992370605
37.7944103,-16.8199996948242
37.8100353,-15.6700000762939
37.8256603,-12.3199996948242
37.8412853,-5.78000020980835
37.8569103,4.46000003814697
37.8725353,17.8600006103516
37.8881603,32.5900001525879
37.9037853,45.7200012207031
37.9194103,54.3600006103516
37.9350353,56.8400001525879
37.9506603,53.3800010681152
37.9662853,45.6800003051758
37.9819103,35.9500007629395
37.9975353,26.0100002288818
38.0131603,16.9799995422363
38.0287853,9.1899995803833
38.0444103,2.50999999046326
38.0600353,-3.27999997138977
38.0756603,-8.17000007629395
38.0912853,-11.960000038147
38.1069103,-14.3599996566772
38.1225353,-15.1800003051758
38.1381603,-14.6000003814697
38.1537853,-13.1599998474121
38.1694103,-11.6400003433228
38.1850353,-10.6800003051758
38.2006603,-10.6099996566772
38.2162853,-11.4899997711182
38.2319103,-13.210000038147
38.2475353,-15.4899997711182
38.2631603,-17.9200000762939
38.2787853,-20.1299991607666
38.2944103,-21.9899997711182
38.3100353,-23.5699996948242
38.3256603,-24.9599990844727
38.3412853,-26.1299991607666
38.3569103,-27.0300006866455
38.3725353,-27.6900005340576
38.3881603,-27.9599990844727
38.4037853,-27.1100006103516
38.4194103,-23.7900009155273
38.4350353,-16.5699996948242
38.4506603,-4.90000009536743
38.4662853,10.3000001907349
38.4819103,26.7299995422363
38.4975353,41.3199996948242
38.5131603,51.1699981689453
38.5287853,54.6699981689453
38.5444103,52.0999984741211
38.5600353,45.2999992370605
38.5756603,36.439998626709
38.5912853,27.1200008392334
38.6069103,18.2700004577637
38.6225353,10.3500003814697
38.6381603,3.51999998092651
38.6537853,-2.27999997138977
38.6694103,-7.15999984741211
38.6850353,-11.1400003433228
38.7006603,-14.0799999237061
38.7162853,-15.7700004577637
38.7319103,-16.1599998474121
38.7475353,-15.5699996948242
38.7631603,-14.6700000762939
38.7787853,-14.2299995422363
38.7944103,-14.75
38.8100353,-16.3700008392334
38.8256603,-18.7900009155273
38.8412853,-21.5200004577637
38.8569103,-24.0100002288818
38.8725353,-25.8700008392334
38.8881603,-26.9599990844727
38.9037853,-27.4799995422363
38.9194103,-27.7700004577637
38.9350353,-28.0499992370605
38.9506603,-28.3199996948242
38.9662853,-28.5699996948242
38.9819103,-28.9300003051758
38.9975353,-29.4099998474121
39.0131603,-29.5400009155273
39.0287853,-28.3199996948242
39.0444103,-24.4300003051758
39.0600353,-16.5900001525879
39.0756603,-4.03999996185303
39.0912853,12.7700004577637
39.1069103,31.9099998474121
39.1225353,50.4099998474121
39.1381603,65.2300033569336
39.1537853,74.0599975585938
39.1694103,75.9100036621094
39.1850353,71.4599990844727
39.2006603,62.7799987792969
39.2162853,52.310001373291
39.2319103,41.9700012207031
39.2475353,32.7999992370605
39.2631603,24.9899997711182
39.2787853,18.2099990844727
39.2944103,11.960000038147
39.3100353,5.86999988555908
39.3256603,-0.100000001490116
39.3412853,-5.61999988555908
39.3569103,-10.1700000762939
39.3725353,-13.3900003433228
39.3881603,-15.3800001144409
39.4037853,-16.4899997711182
39.4194103,-17.2199993133545
39.4350353,-18.0599994659424
39.4506603,-19.4699993133545
39.4662853,-21.6499996185303
39.4819103,-24.4799995422363
39.4975353,-27.6000003814697
39.5131603,-30.7000007629395
39.5287853,-33.6300010681152
39.5444103,-36.2799987792969
39.5600353,-38.5299987792969
39.5756603,-40.2900009155273
39.5912853,-41.4900016784668
39.6069103,-42.1100006103516
39.6225353,-42.189998626709
39.6381603,-41.8800010681152
39.6537853,-41.2700004577637
39.6694103,-40.0900001525879
39.6850353,-37.2799987792969
39.7006603,-31.1200008392334
39.7162853,-20.0900001525879
39.7319103,-3.94000005722046
39.7475353,15.8599996566772
39.7631603,36.4599990844727
39.7787853,54.3600006103516
39.7944103,66.3600006103516
39.8100353,70.7099990844727
39.8256603,67.7399978637695
39.8412853,59.6100006103516
39.8569103,49.1399993896484
39.8725353,38.6399993896484
39.8881603,29.2399997711182
39.9037853,20.9200000762939
39.9194103,13.0600004196167
39.9350353,5.38000011444092
39.9506603,-1.73000001907349
39.9662853,-7.6100001335144
39.9819103,-11.6999998092651
39.9975353,-13.8100004196167
40.0131603,-14.210000038147
40.0287853,-13.6300001144409
40.0444103,-13
40.0600353,-12.9399995803833
40.0756603,-13.6599998474121
40.0912853,-15.0600004196167
40.1069103,-16.8500003814697
40.1225353,-18.7399997711182
40.1381603,-20.5499992370605
40.1537853,-22.3099994659424
40.1694103,-24.0599994659424
40.1850353,-25.6299991607666
40.2006603,-26.6900005340576
40.2162853,-27.0300006866455
40.2319103,-26.8400001525879
40.2475353,-26.5
40.2631603,-26.3099994659424
40.2787853,-26.2999992370605
40.2944103,-26.1700000762939
40.3100353,-25.3899993896484
40.3256603,-23.1299991607666
40.3412853,-18.2000007629395
40.3569103,-9.28999996185303
40.3725353,4.26999998092651
40.3881603,21.8400001525879
40.4037853,41.2900009155273
40.4194103,59.4300003051758
40.4350353,72.7300033569336
40.4506603,78.7300033569336
40.4662853,77.0699996948242
40.4819103,69.4800033569336
40.4975353,58.5800018310547
40.5131603,46.6199989318848
40.5287853,34.9599990844727
40.5444103,24.25
40.5600353,14.7799997329712
40.5756603,6.57999992370605
40.5912853,-0.219999998807907
40.6069103,-5.40000009536743
40.6225353,-8.72999954223633
40.6381603,-10.2200002670288
40.6537853,-10.1599998474121
40.6694103,-9.06999969482422
40.6850353,-7.57999992370605
40.7006603,-6.30999994277954
40.7162853,-5.6100001335144
40.7319103,-5.55999994277954
40.7475353,-6.19000005722046
40.7631603,-7.65000009536743
40.7787853,-9.89999961853027
40.7944103,-12.5
40.8100353,-14.8999996185303
40.8256603,-16.8299999237061
40.8412853,-18.4500007629395
40.8569103,-19.9899997711182
40.8725353,-21.4799995422363
40.8881603,-22.8899993896484
40.9037853,-24.1599998474121
40.9194103,-25.1800003051758
40.9350353,-25.6000003814697
40.9506603,-24.9200000762939
40.9662853,-22.4400005340576
40.9819103,-17.25
40.9975353,-8.3100004196167
41.0131603,4.88000011444092
41.0287853,21.2199993133545
41.0444103,37.6399993896484
41.0600353,50.4300003051758
41.0756603,57.1199989318848
41.0912853,57.3300018310547
41.1069103,52.4199981689453
41.1225353,44.3800010681152
41.1381603,35.0099983215332
41.1537853,25.6700000762939
41.1694103,17.1100006103516
41.1850353,9.56999969482422
41.2006603,2.98000001907349
41.2162853,-2.69000005722046
41.2319103,-7.3600001335144
41.2475353,-10.7799997329712
41.2631603,-12.7700004577637
41.2787853,-13.3500003814697
41.2944103,-12.7299995422363
41.3100353,-11.3999996185303
41.3256603,-10.0100002288818
41.3412853,-9.10000038146973
41.3569103,-8.94999980926514
41.3725353,-9.52999973297119
41.3881603,-10.6400003433228
41.4037853,-12.0299997329712
41.4194103,-13.5100002288818
41.4350353,-14.8999996185303
41.4506603,-16.0699996948242
41.4662853,-16.9400005340576
41.4819103,-17.5
41.4975353,-17.8099994659424
41.5131603,-18.1299991607666
41.5287853,-18.6200008392334
41.5444103,-19.0599994659424
41.5600353,-19.0900001525879
41.5756603,-18.5699996948242
41.5912853,-17.4799995422363
41.6069103,-15.6000003814697
41.6225353,-12.2700004577637
41.6381603,-6.34999990463257
41.6537853,3.14000010490417
41.6694103,15.9799995422363
41.6850353,30.2299995422363
41.7006603,42.9199981689453
41.7162853,51.3400001525879
41.7319103,54.189998626709
41.7475353,51.939998626709
41.7631603,46.2599983215332
41.7787853,39.0200004577637
41.7944103,31.6000003814697
41.8100353,24.7199993133545
41.8256603,18.5699996948242
41.8412853,13.0299997329712
41.8569103,7.92999982833862
41.8725353,3.20000004768372
41.8881603,-1.14999997615814
41.9037853,-4.96999979019165
41.9194103,-7.92000007629395
41.9350353,-9.72999954223633
41.9506603,-10.5900001525879
41.9662853,-11.0100002288818
41.9819103,-11.3299999237061
41.9975353,-11.6300001144409
42.0131603,-11.9099998474121
42.0287853,-12.3199996948242
42.0444103,-13.039999961853
42.0600353,-14.1199998855591
42.0756603,-15.4200000762939
42.0912853,-16.75
42.1069103,-17.9500007629395
42.1225353,-18.9899997711182
42.1381603,-19.9200000762939
42.1537853,-20.7600002288818
42.1694103,-21.5300006866455
42.1850353,-22.2399997711182
42.2006603,-22.7900009155273
42.2162853,-23
42.2319103,-22.7199993133545
42.2475353,-21.8400001525879
42.2631603,-20.2299995422363
42.2787853,-17.3500003814697
42.2944103,-12.1700000762939
42.3100353,-3.77999997138977
42.3256603,7.69000005722046
42.3412853,20.6599998474121
42.3569103,32.5699996948242
42.3725353,41.0099983215332
42.3881603,44.6599998474121
42.4037853,43.6500015258789
42.4194103,39.3400001525879
42.4350353,33.4700012207031
42.4506603,27.25
42.4662853,21.2700004577637
42.4819103,15.6099996566772
42.4975353,10.2399997711182
42.5131603,5.09000015258789
42.5287853,0.25
42.5444103,-4.1100001335144
42.5600353,-7.82999992370605
42.5756603,-10.7399997711182
42.5912853,-12.6999998092651
42.6069103,-13.6400003433228
42.6225353,-13.6000003814697
42.6381603,-12.7600002288818
42.6537853,-11.4899997711182
42.6694103,-10.2799997329712
42.6850353,-9.75
42.7006603,-10.289999961853
42.7162853,-11.8699998855591
42.7319103,-14.1300001144409
42.7475353,-16.6800003051758
42.7631603,-19.2099990844727
42.7787853,-21.4099998474121
42.7944103,-23.1700000762939
42.8100353,-24.6100006103516
42.8256603,-25.8899993896484
42.8412853,-26.9699993133545
42.8569103,-27.7399997711182
42.8725353,-28.0699996948242
42.8881603,-27.9200000762939
42.9037853,-27.2999992370605
42.9194103,-26.1000003814697
42.9350353,-23.9300003051758
42.9506603,-19.9899997711182
42.9662853,-13.25
42.9819103,-3.07999992370605
42.9975353,9.88000011444092
43.0131603,23.6399993896484
43.0287853,35.6300010681152
43.0444103,43.75
43.0600353,47
43.0756603,45.5400009155273
43.0912853,40.4199981689453
43.1069103,33.2400016784668
43.1225353,25.5699996948242
43.1381603,18.5400009155273
43.1537853,12.4799995422363
43.1694103,7.21999979019165
43.1850353,2.49000000953674
43.2006603,-1.82000005245209
43.2162853,-5.57000017166138
43.2319103,-8.42000007629395
43.2475353,-10.0900001525879
43.2631603,-10.5100002288818
43.2787853,-9.88000011444092
43.2944103,-8.61999988555908
43.3100353,-7.13000011444092
43.3256603,-5.67000007629395
43.3412853,-4.40000009536743
43.3569103,-3.58999991416931
43.3725353,-3.50999999046326
43.3881603,-4.21999979019165
43.4037853,-5.46000003814697
43.4194103,-6.80000019073486
43.4350353,-8
43.4506603,-9.14999961853027
43.4662853,-10.3699998855591
43.4819103,-11.6199998855591
43.4975353,-12.6899995803833
43.5131603,-13.3699998855591
43.5287853,-13.6300001144409
43.5444103,-13.539999961853
43.5600353,-12.960000038147
43.5756603,-11
43.5912853,-6.28000020980835
43.6069103,2.22000002861023
43.6225353,14.2299995422363
43.6381603,27.8999996185303
43.6537853,40.6100006103516
43.6694103,49.9000015258789
43.6850353,54.2299995422363
43.7006603,53.3699989318848
43.7162853,48.189998626709
43.7319103,40.189998626709
43.7475353,30.9899997711182
43.7631603,21.8299999237061
43.7787853,13.3599996566772
43.7944103,5.73000001907349
43.8100353,-1.12000000476837
43.8256603,-7.07000017166138
43.8412853,-11.8599996566772
43.8569103,-15.1800003051758
43.8725353,-16.8899993896484
43.8881603,-17.0599994659424
43.9037853,-16.0699996948242
43.9194103,-14.4899997711182
43.9350353,-12.8900003433228
43.9506603,-11.7399997711182
43.9662853,-11.289999961853
43.9819103,-11.5500001907349
43.9975353,-12.3900003433228
44.0131603,-13.6899995803833
44.0287853,-15.2799997329712
44.0444103,-16.9699993133545
44.0600353,-18.6499996185303
44.0756603,-20.1599998474121
44.0912853,-21.2600002288818
44.1069103,-21.9099998474121
44.1225353,-22.2800006866455
44.1381603,-22.6000003814697
44.1537853,-22.7999992370605
44.1694103,-22.4400005340576
44.1850353,-20.4500007629395
44.2006603,-15.3599996566772
44.2162853,-6.17000007629395
44.2319103,6.73999977111816
44.2475353,21.4699993133545
44.2631603,35.1800003051758
44.2787853,45.2900009155273
44.2944103,50.2200012207031
44.3100353,49.7700004577637
44.3256603,44.8600006103516
44.3412853,37.0800018310547
44.3569103,28.1800003051758
44.3725353,19.5300006866455
44.3881603,11.789999961853
44.4037853,4.92999982833862
44.4194103,-1.30999994277954
44.4350353,-7
44.4506603,-11.8900003433228
44.4662853,-15.5600004196167
44.4819103,-17.6900005340576
44.4975353,-18.3199996948242
44.5131603,-17.8700008392334
44.5287853,-16.7900009155273
44.5444103,-15.4099998474121
44.5600353,-14.039999961853
44.5756603,-12.9899997711182
44.5912853,-12.5
44.6069103,-12.6899995803833
44.6225353,-13.539999961853
44.6381603,-14.9099998474121
44.6537853,-16.5499992370605
44.6694103,-18.1700000762939
44.6850353,-19.5900001525879
44.7006603,-20.8999996185303
44.7162853,-22.2199993133545
44.7319103,-23.4599990844727
44.7475353,-24.2900009155273
44.7631603,-24.4400005340576
44.7787853,-23.5300006866455
44.7944103,-20.5200004577637
44.8100353,-13.9200000762939
44.8256603,-2.73000001907349
44.8412853,12.5
44.8569103,29.5599994659424
44.8725353,45.3199996948242
44.8881603,56.8800010681152
44.9037853,62.5200004577637
44.9194103,62.0299987792969
44.9350353,56.4300003051758
44.9506603,47.4700012207031
44.9662853,37.0699996948242
44.9819103,26.7700004577637
44.9975353,17.3600006103516
45.0131603,8.98999977111816
45.0287853,1.58000004291534
45.0444103,-4.88000011444092
45.0600353,-10.3000001907349
45.0756603,-14.4499998092651
45.0912853,-17.1100006103516
45.1069103,-18.1599998474121
45.1225353,-17.7199993133545
45.1381603,-16.2399997711182
45.1537853,-14.4799995422363
45.1694103,-13.2299995422363
45.1850353,-13.0200004577637
45.2006603,-13.8199996948242
45.2162853,-15.1899995803833
45.2319103,-16.6200008392334
45.2475353,-17.8500003814697
45.2631603,-18.9699993133545
45.2787853,-20.2600002288818
45.2944103,-21.9200000762939
45.3100353,-23.8899993896484
45.3256603,-25.8700008392334
45.3412853,-27.3899993896484
45.3569103,-28.1700000762939
45.3725353,-28.2999992370605
45.3881603,-28.1000003814697
45.4037853,-27.8199996948242
45.4194103,-27.1000003814697
45.4350353,-24.5300006866455
45.4506603,-17.9699993133545
45.4662853,-5.96000003814697
45.4819103,10.9300003051758
45.4975353,30.0799999237061
45.5131603,47.7000007629395
45.5287853,60.3400001525879
45.5444103,66.1399993896484
45.5600353,65.1999969482422
45.5756603,58.9300003051758
45.5912853,49.310001373291
45.6069103,38.4199981689453
45.6225353,28.1100006103516
45.6381603,19.5
45.6537853,12.6199998855591
45.6694103,6.6100001335144
45.6850353,0.639999985694885
45.7006603,-5.61999988555908
45.7162853,-12.039999961853
45.7319103,-18.0200004577637
45.7475353,-22.5900001525879
45.7631603,-25.0300006866455
45.7787853,-25.5699996948242
45.7944103,-25.2299995422363
45.8100353,-25.0799999237061
45.8256603,-25.6900005340576
45.8412853,-27.1100006103516
45.8569103,-29
45.8725353,-30.8899993896484
45.8881603,-32.2999992370605
45.9037853,-32.939998626709
45.9194103,-32.6800003051758
45.9350353,-31.4500007629395
45.9506603,-29.3500003814697
45.9662853,-26.8199996948242
45.9819103,-24.5499992370605
45.9975353,-23.1200008392334
46.0131603,-22.6499996185303
46.0287853,-22.6900005340576
46.0444103,-22.4899997711182
46.0600353,-21.3899993896484
46.0756603,-19.0200004577637
46.0912853,-15.2399997711182
46.1069103,-9.60999965667725
46.1225353,-1.27999997138977
46.1381603,10.6599998474121
46.1537853,26.4200000762939
46.1694103,44.5499992370605
46.1850353,62.0900001525879
46.2006603,75.7799987792969
46.2162853,83.4300003051758
46.2319103,84.3399963378906
46.2475353,79.2200012207031
46.2631603,69.6999969482422
46.2787853,57.9000015258789
46.2944103,45.6399993896484
46.3100353,33.9700012207031
46.3256603,23.1700000762939
46.3412853,13.210000038147
46.3569103,4.32999992370605
46.3725353,-2.95000004768372
46.3881603,-8.14000034332275
46.4037853,-10.9099998474121
46.4194103,-11.3999996185303
46.4350353,-10.2299995422363
46.4506603,-8.28999996185303
46.4662853,-6.3600001335144
46.4819103,-5.05000019073486
46.4975353,-4.73000001907349
46.5131603,-5.44999980926514
46.5287853,-7.01999998092651
46.5444103,-9.17000007629395
46.5600353,-11.5900001525879
46.5756603,-13.9799995422363
46.5912853,-16.1000003814697
46.6069103,-17.9099998474121
46.6225353,-19.6399993896484
46.6381603,-21.4899997711182
46.6537853,-23.3600006103516
46.6694103,-24.8999996185303
46.6850353,-25.8999996185303
46.7006603,-26.1299991607666
46.7162853,-24.9099998474121
46.7319103,-20.9099998474121
46.7475353,-12.5500001907349
46.7631603,0.920000016689301
46.7787853,18.6800003051758
46.7944103,38.1500015258789
46.8100353,55.8600006103516
46.8256603,68.5800018310547
46.8412853,74.3600006103516
46.8569103,72.8899993896484
46.8725353,65.4100036621094
46.8881603,54.060001373291
46.9037853,41.0800018310547
46.9194103,28.1200008392334
46.9350353,16.0799999237061
46.9506603,5.23000001907349
46.9662853,-4.44000005722046
46.9819103,-12.9499998092651
46.9975353,-19.9599990844727
47.0131603,-24.8799991607666
47.0287853,-27.2600002288818
47.0444103,-27.2099990844727
47.0600353,-25.5
47.0756603,-23.2299995422363
47.0912853,-21.4599990844727
47.1069103,-20.8700008392334
47.1225353,-21.7000007629395
47.1381603,-23.7700004577637
47.1537853,-26.7099990844727
47.1694103,-30.0599994659424
47.1850353,-33.3699989318848
47.2006603,-36.3199996948242
47.2162853,-38.7299995422363
47.2319103,-40.5400009155273
47.2475353,-41.810001373291
47.2631603,-42.7000007629395
47.2787853,-43.2999992370605
47.2944103,-43.5699996948242
47.3100353,-43.4300003051758
47.3256603,-42.9599990844727
47.3412853,-42.0999984741211
47.3569103,-40.2799987792969
47.3725353,-36.3800010681152
47.3881603,-28.8700008392334
47.4037853,-16.4099998474121
47.4194103,1.14999997615814
47.4350353,22.1900005340576
47.4506603,43.4900016784668
47.4662853,61.3699989318848
47.4819103,72.8199996948242
47.4975353,76.3899993896484
47.5131603,72.5
47.5287853,62.9900016784668
47.5444103,50.2000007629395
47.5600353,36.2900009155273
47.5756603,22.7199993133545
47.5912853,10.210000038147
47.6069103,-0.870000004768372
47.6225353,-10.2200002670288
47.6381603,-17.6000003814697
47.6537853,-22.8400001525879
47.6694103,-25.8500003814697
47.6850353,-26.6700000762939
47.7006603,-25.5799999237061
47.7162853,-23.2000007629395
47.7319103,-20.3700008392334
47.7475353,-17.8600006103516
47.7631603,-16.1900005340576
47.7787853,-15.6599998474121
47.7944103,-16.2600002288818
47.8100353,-17.7900009155273
47.8256603,-19.9599990844727
47.8412853,-22.4799995422363
47.8569103,-24.9500007629395
47.8725353,-26.9799995422363
47.8881603,-28.1299991607666
47.9037853,-28.0499992370605
47.9194103,-26.8099994659424
47.9350353,-24.9400005340576
47.9506603,-23.1499996185303
47.9662853,-22.0100002288818
47.9819103,-21.7399997711182
47.9975353,-22.0300006866455
48.0131603,-22.2600002288818
48.0287853,-21.7099990844727
48.0444103,-19.5
48.0600353,-14.3999996185303
48.0756603,-4.51000022888184
48.0912853,11.7600002288818
48.1069103,34.2000007629395
48.1225353,60.1399993896484
48.1381603,85.3199996948242
48.1537853,105.400001525879
48.1694103,117.440002441406
48.1850353,120.550003051758
48.2006603,115.709999084473
48.2162853,105.099998474121
48.2319103,91.3399963378906
48.2475353,76.8000030517578
48.2631603,63.1599998474121
48.2787853,51.1599998474121
48.2944103,40.6199989318848
48.3100353,30.9300003051758
48.3256603,21.7399997711182
48.3412853,13.3999996185303
48.3569103,6.55000019073486
48.3725353,1.51999998092651
48.3881603,-1.96000003814697
48.4037853,-4.48999977111816
48.4194103,-6.65000009536743
48.4350353,-8.90999984741211
48.4506603,-11.5500001907349
48.4662853,-14.6499996185303
48.4819103,-18.0900001525879
48.4975353,-21.7399997711182
48.5131603,-25.6700000762939
48.5287853,-30.0699996948242
48.5444103,-35.0800018310547
48.5600353,-40.5400009155273
48.5756603,-46.1800003051758
48.5912853,-51.7799987792969
48.6069103,-57.0900001525879
48.6225353,-61.5900001525879
48.6381603,-64.5299987792969
48.6537853,-65.4499969482422
48.6694103,-64.3899993896484
48.6850353,-61.8499984741211
48.7006603,-58.5200004577637
48.7162853,-55.1100006103516
48.7319103,-52.2000007629395
48.7475353,-49.9500007629395
48.7631603,-48.0800018310547
48.7787853,-46.0200004577637
48.7944103,-43.4199981689453
48.8100353,-40.1800003051758
48.8256603,-35.6500015258789
48.8412853,-28.1200008392334
48.8569103,-15.3500003814697
48.8725353,4.05000019073486
48.8881603,29.2900009155273
48.9037853,56.9099998474121
48.9194103,81.8499984741211
48.9350353,99.5500030517578
48.9506603,107.629997253418
48.9662853,106.349998474121
48.9819103,97.9700012207031
48.9975353,85.6900024414063
49.0131603,72.2399978637695
49.0287853,59.1100006103516
49.0444103,46.6500015258789
49.0600353,34.9000015258789
49.0756603,24.0699996948242
49.0912853,14.3900003433228
49.1069103,5.92999982833862
49.1225353,-1.32000005245209
49.1381603,-7.30000019073486
49.1537853,-11.8900003433228
49.1694103,-15.210000038147
49.1850353,-17.6200008392334
49.2006603,-19.5100002288818
49.2162853,-21.0300006866455
49.2319103,-22.0599994659424
49.2475353,-22.4599990844727
49.2631603,-22.3899993896484
49.2787853,-22.6499996185303
49.2944103,-24.2399997711182
49.3100353,-27.6399993896484
49.3256603,-32.3899993896484
49.3412853,-37.4799995422363
49.3569103,-42
49.3725353,-45.3899993896484
49.3881603,-47.3899993896484
49.4037853,-48.0200004577637
49.4194103,-47.7099990844727
49.4350353,-47.0800018310547
49.4506603,-46.6800003051758
49.4662853,-46.6300010681152
49.4819103,-46.7599983215332
49.4975353,-46.8800010681152
49.5131603,-46.75
49.5287853,-45.9099998474121
49.5444103,-43.8899993896484
49.5600353,-40.6399993896484
49.5756603,-36.6199989318848
49.5912853,-32.5099983215332
49.6069103,-28.6599998474121
49.6225353,-24.7000007629395
49.6381603,-19.2700004577637
49.6537853,-10.210000038147
49.6694103,4.48000001907349
49.6850353,25.3799991607666
49.7006603,50.5299987792969
49.7162853,75.620002746582
49.7319103,95.6600036621094
49.7475353,107.25
49.7631603,109.709999084473
49.7787853,104.580001831055
49.7944103,94.4000015258789
49.8100353,81.620002746582
49.8256603,68.0800018310547
49.8412853,54.810001373291
49.8569103,42.2200012207031
49.8725353,30.7000007629395
49.8881603,20.9400005340576
49.9037853,13.6599998474121
49.9194103,9.05000019073486
49.9350353,6.59000015258789
49.9506603,5.51999998092651
49.9662853,5.34999990463257
49.9819103,5.96000003814697
49.9975353,7.15999984741211
50.0131603,8.35000038146973
50.0287853,8.57999992370605
50.0444103,7.07000017166138
50.0600353,3.48000001907349
50.0756603,-2.01999998092651
50.0912853,-8.81999969482422
50.1069103,-16.0400009155273
50.1225353,-22.7900009155273
50.1381603,-28.4200000762939
50.1537853,-32.5999984741211
50.1694103,-35.3800010681152
50.1850353,-37.0900001525879
50.2006603,-38.1300010681152
50.2162853,-38.7999992370605
50.2319103,-39.25
50.2475353,-39.5499992370605
50.2631603,-39.8300018310547
50.2787853,-40.2400016784668
50.2944103,-40.9700012207031
50.3100353,-42
50.3256603,-43.0099983215332
50.3412853,-43.4099998474121
50.3569103,-42.4799995422363
50.3725353,-39.2799987792969
50.3881603,-32.4900016784668
50.4037853,-20.6100006103516
50.4194103,-2.94000005722046
50.4350353,19.4599990844727
50.4506603,43.6699981689453
50.4662853,65.8099975585938
50.4819103,82.3199996948242
50.4975353,90.9899978637695
50.5131603,91.2699966430664
50.5287853,83.9700012207031
50.5444103,70.9400024414063
50.5600353,54.8300018310547
50.5756603,38.2099990844727
50.5912853,22.6800003051758
50.6069103,8.63000011444092
50.6225353,-3.77999997138977
50.6381603,-14.0500001907349
50.6537853,-21.4099998474121
50.6694103,-25.4799995422363
50.6850353,-26.5200004577637
50.7006603,-25.1900005340576
50.7162853,-22.2199993133545
50.7319103,-18.3999996185303
50.7475353,-14.7200002670288
50.7631603,-12.1099996566772
50.7787853,-10.9399995803833
50.7944103,-11.0299997329712
50.8100353,-12.0200004577637
50.8256603,-13.8000001907349
50.8412853,-16.3500003814697
50.8569103,-19.5
50.8725353,-22.8099994659424
50.8881603,-25.7999992370605
50.9037853,-28.1900005340576
50.9194103,-29.7000007629395
50.9350353,-30.1800003051758
50.9506603,-29.8400001525879
50.9662853,-29.2800006866455
50.9819103,-28.9200000762939
50.9975353,-28.5900001525879
51.0131603,-27.75
51.0287853,-26.1800003051758
51.0444103,-24.2099990844727
51.0600353,-22.3799991607666
51.0756603,-21.0499992370605
51.0912853,-20.2399997711182
51.1069103,-19.6399993896484
51.1225353,-18.5400009155273
51.1381603,-15.6800003051758
51.1537853,-9.40999984741211
51.1694103,1.72000002861023
51.1850353,17.9200000762939
51.2006603,37.2700004577637
51.2162853,56.1100006103516
51.2319103,70.5
51.2475353,77.870002746582
51.2631603,77.7799987792969
51.2787853,71.6100006103516
51.2944103,61.8300018310547
51.3100353,51.0800018310547
51.3256603,41.3400001525879
51.3412853,33.4300003051758
51.3569103,27.0100002288818
51.3725353,21.3099994659424
51.3881603,15.8000001907349
51.4037853,10.4499998092651
51.4194103,5.61999988555908
51.4350353,1.78999996185303
51.4506603,-0.639999985694885
51.4662853,-1.51999998092651
51.4819103,-1.04999995231628
51.4975353,0.28999999165535
51.5131603,1.98000001907349
51.5287853,3.50999999046326
51.5444103,4.48000001907349
51.5600353,4.65999984741211
51.5756603,4.09000015258789
51.5912853,2.86999988555908
51.6069103,0.949999988079071
51.6225353,-1.75999999046326
51.6381603,-5.23000001907349
51.6537853,-9.13000011444092
51.6694103,-12.9499998092651
51.6850353,-16.2999992370605
51.7006603,-19.0599994659424
51.7162853,-21.3500003814697
51.7319103,-23.3600006103516
51.7475353,-25.1399993896484
51.7631603,-26.5499992370605
51.7787853,-27.4699993133545
51.7944103,-28.0100002288818
51.8100353,-28.3199996948242
51.8256603,-28.3299999237061
51.8412853,-27.5900001525879
51.8569103,-25.0300006866455
51.8725353,-19.0900001525879
51.8881603,-8.60000038146973
51.9037853,5.94999980926514
51.9194103,22.2999992370605
51.9350353,37.2299995422363
51.9506603,47.8499984741211
51.9662853,52.5699996948242
51.9819103,51.439998626709
51.9975353,45.7900009155273
52.0131603,37.5499992370605
52.0287853,28.6200008392334
52.0444103,20.4099998474121
52.0600353,13.5900001525879
52.0756603,8.13000011444092
52.0912853,3.5699999332428
52.1069103,-0.490000009536743
52.1225353,-4.09999990463257
52.1381603,-6.98000001907349
52.1537853,-8.85999965667725
52.1694103,-9.75
52.1850353,-9.89000034332275
52.2006603,-9.52000045776367
52.2162853,-8.88000011444092
52.2319103,-8.18000030517578
52.2475353,-7.69000005722046
52.2631603,-7.84999990463257
52.2787853,-9.35000038146973
52.2944103,-12.6099996566772
52.3100353,-17.1700000762939
52.3256603,-21.8999996185303
52.3412853,-25.75
52.3569103,-28.2199993133545
52.3725353,-29.6399993896484
52.3881603,-30.8400001525879
52.4037853,-32.4300003051758
52.4194103,-34.2799987792969
52.4350353,-35.7299995422363
52.4506603,-36.2400016784668
52.4662853,-35.6399993896484
52.4819103,-34.1100006103516
52.4975353,-31.9599990844727
52.5131603,-29.5200004577637
52.5287853,-26.9500007629395
52.5444103,-24.1299991607666
52.5600353,-20.5400009155273
52.5756603,-15.3100004196167
52.5912853,-7.46000003814697
52.6069103,3.36999988555908
52.6225353,16.5799999237061
52.6381603,30.5300006866455
52.6537853,42.9199981689453
52.6694103,51.4300003051758
52.6850353,54.5800018310547
52.7006603,52.5099983215332
52.7162853,46.8199996948242
52.7319103,39.6399993896484
52.7475353,32.6699981689453
52.7631603,26.6200008392334
52.7787853,21.3500003814697
52.7944103,16.5400009155273
52.8100353,12.1700000762939
52.8256603,8.46000003814697
52.8412853,5.6100001335144
52.8569103,3.79999995231628
52.8725353,3.09999990463257
52.8881603,3.46000003814697
52.9037853,4.57000017166138
52.9194103,5.94000005722046
52.9350353,7.13000011444092
52.9506603,7.8600001335144
52.9662853,7.90000009536743
52.9819103,7.09000015258789
52.9975353,5.42999982833862
53.0131603,3.1800000667572
53.0287853,0.629999995231628
53.0444103,-1.91999995708466
53.0600353,-4.19999980926514
53.0756603,-6
53.0912853,-7.34999990463257
53.1069103,-8.51000022888184
53.1225353,-9.69999980926514
53.1381603,-11
53.1537853,-12.4499998092651
53.1694103,-14.039999961853
53.1850353,-15.7399997711182
53.2006603,-17.4899997711182
53.2162853,-19.0599994659424
53.2319103,-19.7999992370605
53.2475353,-18.5599994659424
53.2631603,-14.2299995422363
53.2787853,-6.46999979019165
53.2944103,3.75
53.3100353,14.3400001525879
53.3256603,22.8600006103516
53.3412853,27.4599990844727
53.3569103,27.5100002288818
53.3725353,23.6499996185303
53.3881603,17.5
53.4037853,10.9300003051758
53.4194103,5.40000009536743
53.4350353,1.51999998092651
53.4506603,-0.889999985694885
53.4662853,-2.39000010490417
53.4819103,-3.53999996185303
53.4975353,-4.69000005722046
53.5131603,-5.84999990463257
53.5287853,-6.65999984741211
53.5444103,-6.71000003814697
53.5600353,-5.82000017166138
53.5756603,-4.15999984741211
53.5912853,-2.09999990463257
53.6069103,-0.0799999982118607
53.6225353,1.48000001907349
53.6381603,2.21000003814697
53.6537853,1.70000004768372
53.6694103,-0.239999994635582
53.6850353,-3.50999999046326
53.7006603,-7.51000022888184
53.7162853,-11.3599996566772
53.7319103,-14.25
53.7475353,-15.9499998092651
53.7631603,-16.8099994659424
53.7787853,-17.3899993896484
53.7944103,-18.1000003814697
53.8100353,-19.1399993896484
53.8256603,-20.4699993133545
53.8412853,-21.8199996948242
53.8569103,-22.7199993133545
53.8725353,-22.7800006866455
53.8881603,-21.4400005340576
53.9037853,-17.8899993896484
53.9194103,-11.3500003814697
53.9350353,-1.75999999046326
53.9506603,9.85000038146973
53.9662853,21.6200008392334
53.9819103,31.3899993896484
53.9975353,37.4500007629395
54.0131603,39.1500015258789
54.0287853,37.0699996948242
54.0444103,32.5999984741211
54.0600353,27.1000003814697
54.0756603,21.5699996948242
54.0912853,16.6200008392334
54.1069103,12.5200004577637
54.1225353,9.18000030517578
54.1381603,6.51000022888184
54.1537853,4.53999996185303
54.1694103,3.30999994277954
54.1850353,2.59999990463257
54.2006603,2.11999988555908
54.2162853,1.79999995231628
54.2319103,1.69000005722046
54.2475353,1.62999999523163
54.2631603,1.04999995231628
54.2787853,-0.779999971389771
54.2944103,-4.05999994277954
54.3100353,-8.21000003814697
54.3256603,-12.3500003814697
54.3412853,-15.9200000762939
54.3569103,-18.7999992370605
54.3725353,-21.0400009155273
54.3881603,-22.7199993133545
54.4037853,-24.0799999237061
54.4194103,-25.2999992370605
54.4350353,-26.3999996185303
54.4506603,-27.2800006866455
54.4662853,-27.7900009155273
54.4819103,-27.8500003814697
54.4975353,-27.2800006866455
54.5131603,-25.5100002288818
54.5287853,-21.4500007629395
54.5444103,-14.1800003051758
54.5600353,-4.03999996185303
54.5756603,7.17999982833862
54.5912853,17.1399993896484
54.6069103,23.9099998474121
54.6225353,26.7800006866455
54.6381603,26.3099994659424
54.6537853,23.7299995422363
54.6694103,20.2199993133545
54.6850353,16.5400009155273
54.7006603,13
54.7162853,9.55000019073486
54.7319103,5.98999977111816
54.7475353,2.23000001907349
54.7631603,-1.66999995708466
54.7787853,-5.55999994277954
54.7944103,-9.09000015258789
54.8100353,-11.7700004577637
54.8256603,-13.1700000762939
54.8412853,-13.1700000762939
54.8569103,-12.0500001907349
54.8725353,-10.4799995422363
54.8881603,-9.26000022888184
54.9037853,-8.88000011444092
54.9194103,-9.40999984741211
54.9350353,-10.6000003814697
54.9506603,-12.1800003051758
54.9662853,-13.9300003051758
54.9819103,-15.7299995422363
54.9975353,-17.4899997711182
55.0131603,-19.1800003051758
55.0287853,-20.7000007629395
55.0444103,-21.8199996948242
55.0600353,-22.3500003814697
55.0756603,-22.3099994659424
55.0912853,-21.7199993133545
55.1069103,-20.3799991607666
55.1225353,-17.8700008392334
55.1381603,-13.6000003814697
55.1537853,-6.86999988555908
55.1694103,2.58999991416931
55.1850353,14.1199998855591
55.2006603,26.0799999237061
55.2162853,36.3400001525879
55.2319103,43.1399993896484
55.2475353,45.7599983215332
55.2631603,44.5299987792969
55.2787853,40.3600006103516
55.2944103,34.25
55.3100353,27.1700000762939
55.3256603,20.1100006103516
55.3412853,14
55.3569103,9.40999984741211
55.3725353,6.34000015258789
55.3881603,4.48999977111816
55.4037853,3.61999988555908
55.4194103,3.66000008583069
55.4350353,4.59999990463257
55.4506603,6.26000022888184
55.4662853,8.14999961853027
55.4819103,9.67000007629395
55.4975353,10.3000001907349
55.5131603,9.92000007629395
55.5287853,8.72999954223633
55.5444103,6.96000003814697
55.5600353,4.71999979019165
55.5756603,2.15000009536743
55.5912853,-0.419999986886978
55.6069103,-2.60999989509583
55.6225353,-4.26999998092651
55.6381603,-5.40000009536743
55.6537853,-6.09999990463257
55.6694103,-6.53999996185303
55.6850353,-7.01999998092651
55.7006603,-7.90000009536743
55.7162853,-9.3100004196167
55.7319103,-11.1300001144409
55.7475353,-12.9499998092651
55.7631603,-14.0200004577637
55.7787853,-13.289999961853
55.7944103,-9.6899995803833
55.8100353,-2.65000009536743
55.8256603,7.23999977111816
55.8412853,18.0900001525879
55.8569103,27.5
55.8725353,33.689998626709
55.8881603,35.9799995422363
55.9037853,34.5400009155273
55.9194103,30.1900005340576
55.9350353,24.2299995422363
55.9506603,18.0499992370605
55.9662853,12.6099996566772
55.9819103,8.17000007629395
55.9975353,4.51999998092651
56.0131603,1.37999999523163
56.0287853,-1.37000000476837
56.0444103,-3.73000001907349
56.0600353,-5.55000019073486
56.0756603,-6.69999980926514
56.0912853,-7.19000005722046
56.1069103,-7.21999979019165
56.1225353,-7.26000022888184
56.1381603,-7.80000019073486
56.1537853,-9.23999977111816
56.1694103,-11.6999998092651
56.1850353,-14.8900003433228
56.2006603,-18.1000003814697
56.2162853,-20.7399997711182
56.2319103,-22.7099990844727
56.2475353,-24.2999992370605
56.2631603,-25.8700008392334
56.2787853,-27.4599990844727
56.2944103,-28.6900005340576
56.3100353,-29.0400009155273
56.3256603,-28.2299995422363
56.3412853,-26.4599990844727
56.3569103,-24.1299991607666
56.3725353,-21.3199996948242
56.3881603,-17.4300003051758
56.4037853,-11.289999961853
56.4194103,-1.89999997615814
56.4350353,10.4700002670288
56.4506603,23.8799991607666
56.4662853,35.3699989318848
56.4819103,42.5900001525879
56.4975353,44.7400016784668
56.5131603,42.5699996948242
56.5287853,37.6100006103516
56.5444103,31.4300003051758
56.5600353,25.0699996948242
56.5756603,19.0200004577637
56.5912853,13.3400001525879
56.6069103,7.94999980926514
56.6225353,2.8199999332428
56.6381603,-1.86000001430511
56.6537853,-5.55999994277954
56.6694103,-7.73000001907349
56.6850353,-8.3100004196167
56.7006603,-7.90000009536743
56.7162853,-7.32000017166138
56.7319103,-7.21999979019165
56.7475353,-7.90999984741211
56.7631603,-9.3100004196167
56.7787853,-11.1400003433228
56.7944103,-13.039999961853
56.8100353,-14.8199996948242
56.8256603,-16.4699993133545
56.8412853,-18.0599994659424
56.8569103,-19.7000007629395
56.8725353,-21.4300003051758
56.8881603,-23.1800003051758
56.9037853,-24.6599998474121
56.9194103,-25.6000003814697
56.9350353,-25.8500003814697
56.9506603,-25.5499992370605
56.9662853,-24.9099998474121
56.9819103,-24.0499992370605
56.9975353,-22.9400005340576
57.0131603,-21.5499992370605
57.0287853,-19.8899993896484
57.0444103,-18.1000003814697
57.0600353,-16.5200004577637
57.0756603,-15.5100002288818
57.0912853,-15.0699996948242
57.1069103,-14.7799997329712
57.1225353,-13.9700002670288
57.1381603,-11.7299995422363
57.1537853,-6.90999984741211
57.1694103,1.38999998569489
57.1850353,12.8000001907349
57.2006603,25.1800003051758
57.2162853,35.689998626709
57.2319103,42.3199996948242
57.2475353,44.4199981689453
57.2631603,42.5699996948242
57.2787853,38.0299987792969
57.2944103,32.1500015258789
57.3100353,26.0599994659424
57.3256603,20.5699996948242
57.3412853,16.1499996185303
57.3569103,12.8199996948242
57.3725353,10.2700004577637
57.3881603,8.1899995803833
57.4037853,6.59999990463257
57.4194103,5.65000009536743
57.4350353,5.34999990463257
57.4506603,5.61999988555908
57.4662853,6.3600001335144
57.4819103,7.36999988555908
57.4975353,8.22999954223633
57.5131603,8.44999980926514
57.5287853,7.8600001335144
57.5444103,6.65999984741211
57.5600353,5.1100001335144
57.5756603,3.35999989509583
57.5912853,1.55999994277954
57.6069103,-0.119999997317791
57.6225353,-1.55999994277954
57.6381603,-2.69000005722046
57.6537853,-3.5
57.6694103,-4.13000011444092
57.6850353,-4.78999996185303
57.7006603,-5.59999990463257
57.7162853,-6.46000003814697
57.7319103,-7.19999980926514
57.7475353,-7.73000001907349
57.7631603,-7.92000007629395
57.7787853,-7.42000007629395
57.7944103,-5.26999998092651
57.8100353,-0.0299999993294477
57.8256603,9.02000045776367
57.8412853,20.9300003051758
57.8569103,33.1500015258789
57.8725353,42.8499984741211
57.8881603,48.1399993896484
57.9037853,48.5800018310547
57.9194103,44.8699989318848
57.9350353,38.2799987792969
57.9506603,30.25
57.9662853,22.0599994659424
57.9819103,14.6400003433228
57.9975353,8.4399995803833
58.0131603,3.38000011444092
58.0287853,-0.920000016689301
58.0444103,-4.73000001907349
58.0600353,-7.98999977111816
58.0756603,-10.4200000762939
58.0912853,-11.8599996566772
58.1069103,-12.3299999237061
58.1225353,-12
58.1381603,-11.1499996185303
58.1537853,-10.1999998092651
58.1694103,-9.56999969482422
58.1850353,-9.55000019073486
58.2006603,-10.1899995803833
58.2162853,-11.4399995803833
58.2319103,-13.1099996566772
58.2475353,-14.9099998474121
58.2631603,-16.6000003814697
58.2787853,-18.0699996948242
58.2944103,-19.3400001525879
58.3100353,-20.4099998474121
58.3256603,-21.2000007629395
58.3412853,-21.7600002288818
58.3569103,-22.1900005340576
58.3725353,-22.3299999237061
58.3881603,-21.5200004577637
58.4037853,-18.7800006866455
58.4194103,-12.9700002670288
58.4350353,-3.32999992370605
58.4506603,9.52000045776367
58.4662853,23.1900005340576
58.4819103,34.5
58.4975353,40.9799995422363
58.5131603,41.7200012207031
58.5287853,37.4700012207031
58.5444103,30.0100002288818
58.5600353,21.2099990844727
58.5756603,12.5
58.5912853,4.6399998664856
58.6069103,-2.07999992370605
58.6225353,-7.6399998664856
58.6381603,-12.0699996948242
58.6537853,-15.5600004196167
58.6694103,-18.3400001525879
58.6850353,-20.5699996948242
58.7006603,-22.2900009155273
58.7162853,-23.4300003051758
58.7319103,-23.8899993896484
58.7475353,-23.6700000762939
58.7631603,-22.9799995422363
58.7787853,-22.1499996185303
58.7944103,-21.5400009155273
58.8100353,-21.4799995422363
58.8256603,-22.1100006103516
58.8412853,-23.25
58.8569103,-24.4500007629395
58.8725353,-25.3199996948242
58.8881603,-25.8600006103516
58.9037853,-26.3099994659424
58.9194103,-26.8700008392334
58.9350353,-27.5400009155273
58.9506603,-28.1000003814697
58.9662853,-28.0799999237061
58.9819103,-26.6000003814697
58.9975353,-22.5300006866455
59.0131603,-14.9099998474121
59.0287853,-3.58999991416931
59.0444103,10.289999961853
59.0600353,24.4799995422363
59.0756603,36.2999992370605
59.0912853,43.7700004577637
59.1069103,46.1300010681152
59.1225353,43.7799987792969
59.1381603,37.8899993896484
59.1537853,29.9300003051758
59.1694103,21.2999992370605
59.1850353,12.9700002670288
59.2006603,5.44000005722046
59.2162853,-1.08000004291534
59.2319103,-6.46999979019165
59.2475353,-10.6700000762939
59.2631603,-13.710000038147
59.2787853,-15.710000038147
59.2944103,-16.9400005340576
59.3100353,-17.75
59.3256603,-18.3199996948242
59.3412853,-18.7099990844727
59.3569103,-18.9200000762939
59.3725353,-19.0499992370605
59.3881603,-19.1499996185303
59.4037853,-19.1200008392334
59.4194103,-18.7800006866455
59.4350353,-18.1900005340576
59.4506603,-17.7399997711182
59.4662853,-17.7700004577637
59.4819103,-18.2399997711182
59.4975353,-18.8999996185303
59.5131603,-19.5499992370605
59.5287853,-20.0599994659424
59.5444103,-20.2600002288818
59.5600353,-19.7800006866455
59.5756603,-17.5
59.5912853,-11.5
59.6069103,-0.25
59.6225353,15.8500003814697
59.6381603,34.2400016784668
59.6537853,51.1100006103516
59.6694103,63.0800018310547
59.6850353,68.3399963378906
59.7006603,67.0100021362305
59.7162853,60.6199989318848
59.7319103,51.2900009155273
59.7475353,41.0099983215332
59.7631603,31.0599994659424
59.7787853,21.9899997711182
59.7944103,13.8400001525879
59.8100353,6.53999996185303
59.8256603,0.109999999403954
59.8412853,-5.3600001335144
59.8569103,-9.69999980926514
59.8725353,-12.6099996566772
59.8881603,-13.8100004196167
59.9037853,-13.1499996185303
59.9194103,-10.9300003051758
59.9350353,-7.92000007629395
59.9506603,-5.11999988555908
59.9662853,-3.19000005722046
59.9819103,-2.34999990463257
59.9975353,-2.40000009536743
60.0131603,-3.0699999332428
60.0287853,-4.21999979019165
60.0444103,-5.78999996185303
60.0600353,-7.69999980926514
60.0756603,-9.78999996185303
60.0912853,-11.8999996185303
60.1069103,-13.8999996185303
60.1225353,-15.6800003051758
60.1381603,-16.9699993133545
60.1537853,-17.0599994659424
60.1694103,-14.6499996185303
60.1850353,-7.96000003814697
60.2006603,4.36999988555908
60.2162853,21.5799999237061
60.2319103,40.0800018310547
60.2475353,55.0999984741211
60.2631603,63.2200012207031
60.2787853,63.6100006103516
60.2944103,57.7299995422363
60.3100353,48
60.3256603,36.560001373291
60.3412853,24.6900005340576
60.3569103,13.1999998092651
60.3725353,2.83999991416931
60.3881603,-5.90999984741211
60.4037853,-13.0500001907349
60.4194103,-18.8099994659424
60.4350353,-23.3299999237061
60.4506603,-26.5799999237061
60.4662853,-28.5
60.4819103,-29.0300006866455
60.4975353,-28.3400001525879
60.5131603,-26.8500003814697
60.5287853,-25.0900001525879
60.5444103,-23.4599990844727
60.5600353,-22.1599998474121
60.5756603,-21.2800006866455
60.5912853,-20.9200000762939
60.6069103,-21.1200008392334
60.6225353,-21.7600002288818
60.6381603,-22.6399993896484
60.6537853,-23.4699993133545
60.6694103,-23.9799995422363
60.6850353,-24.1000003814697
60.7006603,-24.0799999237061
60.7162853,-24.2399997711182
60.7319103,-24.5499992370605
60.7475353,-24.1299991607666
60.7631603,-21.4500007629395
60.7787853,-15.039999961853
60.7944103,-4.23000001907349
60.8100353,10.2799997329712
60.8256603,26.4599990844727
60.8412853,41.310001373291
60.8569103,51.9000015258789
60.8725353,56.3300018310547
60.8881603,54.3699989318848
60.9037853,47.5
60.9194103,38.0999984741211
60.9350353,28.2900009155273
60.9506603,19.1399993896484
60.9662853,10.7799997329712
60.9819103,3.14000010490417
60.9975353,-3.58999991416931
61.0131603,-9.10999965667725
61.0287853,-13.1400003433228
61.0444103,-15.4899997711182
61.0600353,-16.1000003814697
61.0756603,-15.1300001144409
61.0912853,-12.9799995422363
61.1069103,-10.1400003433228
61.1225353,-7.17000007629395
61.1381603,-4.67999982833862
61.1537853,-3.16000008583069
61.1694103,-2.75999999046326
61.1850353,-3.41000008583069
61.2006603,-4.8600001335144
61.2162853,-6.82000017166138
61.2319103,-9.0600004196167
61.2475353,-11.4499998092651
61.2631603,-13.8400001525879
61.2787853,-15.960000038147
61.2944103,-17.4300003051758
61.3100353,-18.0200004577637
61.3256603,-17.2900009155273
61.3412853,-14.2200002670288
61.3569103,-7.65999984741211
61.3725353,2.55999994277954
61.3881603,15.2600002288818
61.4037853,28.1599998474121
61.4194103,38.8800010681152
61.4350353,45.689998626709
61.4506603,47.9300003051758
61.4662853,45.8899993896484
61.4819103,40.5099983215332
61.4975353,33.0699996948242
61.5131603,24.8299999237061
61.5287853,16.7600002288818
61.5444103,9.38000011444092
61.5600353,2.88000011444092
61.5756603,-2.51999998092651
61.5912853,-6.53999996185303
61.6069103,-9.06999969482422
61.6225353,-10.3699998855591
61.6381603,-10.8199996948242
61.6537853,-10.6300001144409
61.6694103,-9.78999996185303
61.6850353,-8.22999954223633
61.7006603,-6.17000007629395
61.7162853,-4.1100001335144
61.7319103,-2.5699999332428
61.7475353,-1.98000001907349
61.7631603,-2.49000000953674
61.7787853,-3.96000003814697
61.7944103,-6.09999990463257
61.8100353,-8.59000015258789
61.8256603,-11.1400003433228
61.8412853,-13.3599996566772
61.8569103,-15.0299997329712
61.8725353,-16.2399997711182
61.8881603,-17.2900009155273
61.9037853,-18.0599994659424
61.9194103,-17.5799999237061
61.9350353,-14.3100004196167
61.9506603,-6.98000001907349
61.9662853,4.55000019073486
61.9819103,19.0400009155273
61.9975353,33.9900016784668
62.0131603,46.2999992370605
62.0287853,53.4099998474121
62.0444103,54.2299995422363
62.0600353,49.4099998474121
62.0756603,40.7400016784668
62.0912853,30.2800006866455
62.1069103,19.7800006866455
62.1225353,10.2200002670288
62.1381603,1.8400000333786
62.1537853,-5.42999982833862
62.1694103,-11.6800003051758
62.1850353,-16.7900009155273
62.2006603,-20.5200004577637
62.2162853,-22.7199993133545
62.2319103,-23.3799991607666
62.2475353,-22.6299991607666
62.2631603,-20.8600006103516
62.2787853,-18.7700004577637
62.2944103,-17.0599994659424
62.3100353,-16.1100006103516
62.3256603,-15.9799995422363
62.3412853,-16.6299991607666
62.3569103,-18
62.3725353,-20.0200004577637
62.3881603,-22.4699993133545
62.4037853,-25.0499992370605
62.4194103,-27.5499992370605
62.4350353,-29.8199996948242
62.4506603,-31.6499996185303
62.4662853,-32.4300003051758
62.4819103,-31.0300006866455
62.4975353,-26.1200008392334
62.5131603,-16.9300003051758
62.5287853,-3.85999989509583
62.5444103,11.4399995803833
62.5600353,26.4500007629395
62.5756603,38.3699989318848
62.5912853,45.0900001525879
62.6069103,45.8699989318848
62.6225353,41.4599990844727
62.6381603,33.560001373291
62.6537853,23.9899997711182
62.6694103,14.210000038147
62.6850353,5.1399998664856
62.7006603,-2.76999998092651
62.7162853,-9.44999980926514
62.7319103,-14.8900003433228
62.7475353,-18.9799995422363
62.7631603,-21.4699993133545
62.7787853,-22.25
62.7944103,-21.5400009155273
62.8100353,-19.8999996185303
62.8256603,-18.1100006103516
62.8412853,-16.75
62.8569103,-16.1000003814697
62.8725353,-16.2099990844727
62.8881603,-17.0699996948242
62.9037853,-18.5499992370605
62.9194103,-20.3600006103516
62.9350353,-22.1700000762939
62.9506603,-23.7399997711182
62.9662853,-25.0499992370605
62.9819103,-26.2700004577637
62.9975353,-27.3999996185303
63.0131603,-28.1200008392334
63.0287853,-27.6700000762939
63.0444103,-24.8700008392334
63.0600353,-18.3600006103516
63.0756603,-7.25
63.0912853,8.10000038146973
63.1069103,25.7900009155273
63.1225353,42.9199981689453
63.1381603,56.4199981689453
63.1537853,63.9599990844727
63.1694103,64.7099990844727
63.1850353,59.5800018310547
63.2006603,50.5999984741211
63.2162853,39.9000015258789
63.2319103,28.9599990844727
63.2475353,18.4799995422363
63.2631603,8.80000019073486
63.2787853,0.230000004172325
63.2944103,-6.8600001335144
63.3100353,-12.1300001144409
63.3256603,-15.3199996948242
63.3412853,-16.3600006103516
63.3569103,-15.6199998855591
63.3725353,-13.8699998855591
63.3881603,-11.9700002670288
63.4037853,-10.5699996948242
63.4194103,-9.97000026702881
63.4350353,-10.210000038147
63.4506603,-11.1499996185303
63.4662853,-12.5200004577637
63.4819103,-14
63.4975353,-15.4300003051758
63.5131603,-16.8999996185303
63.5287853,-18.5499992370605
63.5444103,-20.3700008392334
63.5600353,-22.2099990844727
63.5756603,-23.8400001525879
63.5912853,-24.9500007629395
63.6069103,-24.7199993133545
63.6225353,-21.6200008392334
63.6381603,-13.9399995803833
63.6537853,-1
63.6694103,16.1599998474121
63.6850353,34.7799987792969
63.7006603,51.2000007629395
63.7162853,62.1699981689453
63.7319103,66
63.7475353,62.9500007629395
63.7631603,54.7299995422363
63.7787853,43.6100006103516
63.7944103,31.6800003051758
63.8100353,20.4500007629395
63.8256603,10.789999961853
63.8412853,2.9300000667572
63.8569103,-3.24000000953674
63.8725353,-8.07999992370605
63.8881603,-11.75
63.9037853,-14.1700000762939
63.9194103,-15.1700000762939
63.9350353,-14.8999996185303
63.9506603,-13.8699998855591
63.9662853,-12.6800003051758
63.9819103,-11.8299999237061
63.9975353,-11.7200002670288
64.0131603,-12.6300001144409
64.0287853,-14.6199998855591
64.0444103,-17.4599990844727
64.0600353,-20.7800006866455
64.0756603,-24.1900005340576
64.0912853,-27.4899997711182
64.1069103,-30.6299991607666
64.1225353,-33.5400009155273
64.1381603,-35.9000015258789
64.1537853,-37.3199996948242
64.1694103,-37.3699989318848
64.1850353,-35.310001373291
64.2006603,-29.7199993133545
64.2162853,-19.0300006866455
64.2319103,-2.66000008583069
64.2475353,17.6399993896484
64.2631603,37.8899993896484
64.2787853,53.6399993896484
64.2944103,61.9300003051758
64.3100353,62.25
64.3256603,56.1500015258789
64.3412853,46.2200012207031
64.3569103,35.0499992370605
64.3725353,24.3199996948242
64.3881603,14.7799997329712
64.4037853,6.53999996185303
64.4194103,-0.540000021457672
64.4350353,-6.53999996185303
64.4506603,-11.25
64.4662853,-14.2600002288818
64.4819103,-15.3500003814697
64.4975353,-14.710000038147
64.5131603,-12.8299999237061
64.5287853,-10.5299997329712
64.5444103,-8.82999992370605
64.5600353,-8.64000034332275
64.5756603,-10.1899995803833
64.5912853,-13.1000003814697
64.6069103,-16.8299999237061
64.6225353,-20.9200000762939
64.6381603,-25
64.6537853,-28.9400005340576
64.6694103,-32.8199996948242
64.6850353,-36.5299987792969
64.7006603,-39.5099983215332
64.7162853,-41.0099983215332
64.7319103,-40.689998626709
64.7475353,-38.9099998474121
64.7631603,-36.1199989318848
64.7787853,-31.7999992370605
64.7944103,-24.25
64.8100353,-11.9200000762939
64.8256603,5.03999996185303
64.8412853,24.2099990844727
64.8569103,41.8400001525879
64.8725353,54.5
64.8881603,60.4099998474121
64.9037853,59.9500007629395
64.9194103,55.5099983215332
64.9350353,50.3899993896484
64.9506603,47.3699989318848
64.9662853,47.6300010681152
64.9819103,50.810001373291
64.9975353,55.8699989318848
65.0131603,61.7999992370605
65.0287853,68.0100021362305
65.0444103,74.4800033569336
65.0600353,81.5500030517578
65.0756603,89.2099990844727
65.0912853,96.2900009155273
65.1069103,100.5
65.1225353,99.4000015258789
65.1381603,91.8399963378906
65.1537853,78.7600021362305
65.1694103,62.5400009155273
65.1850353,45.5800018310547
65.2006603,29.3600006103516
65.2162853,13.9700002670288
65.2319103,-1.62000000476837
65.2475353,-18.75
65.2631603,-37.8699989318848
65.2787853,-57.7900009155273
65.2944103,-76.2099990844727
65.3100353,-91.4700012207031
65.3256603,-103.839996337891
65.3412853,-114.910003662109
65.3569103,-125.660003662109
65.3725353,-135.190002441406
65.3881603,-141.199996948242
65.4037853,-141.5
65.4194103,-135.080001831055
65.4350353,-122.230003356934
65.4506603,-104.610000610352
65.4662853,-85.1500015258789
65.4819103,-67.3199996948242
65.4975353,-53.7099990844727
65.5131603,-45.1399993896484
65.5287853,-40.7099990844727
65.5444103,-38.8400001525879
65.5600353,-38.0999984741211
65.5756603,-37.7000007629395
65.5912853,-37.3199996948242
65.6069103,-36.8899993896484
65.6225353,-36.1699981689453
65.6381603,-34.7200012207031
65.6537853,-31.9799995422363
65.6694103,-27.9099998474121
65.6850353,-23.2800006866455
65.7006603,-19.2099990844727
65.7162853,-16.0499992370605
65.7319103,-13.0900001525879
65.7475353,-9.39999961853027
65.7631603,-4.65000009536743
65.7787853,0.810000002384186
65.7944103,6.59000015258789
65.8100353,12.3599996566772
65.8256603,17.6299991607666
65.8412853,21.6800003051758
65.8569103,23.7199993133545
65.8725353,23.4300003051758
65.8881603,21.7399997711182
65.9037853,20.6800003051758
65.9194103,22.1000003814697
65.9350353,26.2600002288818
65.9506603,31.7700004577637
65.9662853,36.810001373291
65.9819103,40.6100006103516
65.9975353,44.189998626709
66.0131603,49.8199996948242
66.0287853,59.2400016784668
66.0444103,72.2600021362305
66.0600353,86.6500015258789
66.0756603,99.1699981689453
66.0912853,107.029998779297
66.1069103,109.01000213623
66.1225353,105.730003356934
66.1381603,98.9700012207031
66.1537853,90.5
66.1694103,81.379997253418
66.1850353,72.0199966430664
66.2006603,62.5400009155273
66.2162853,53
66.2319103,43.5099983215332
66.2475353,34.4599990844727
66.2631603,26.3500003814697
66.2787853,19.5300006866455
66.2944103,14.1000003814697
66.3100353,9.97999954223633
66.3256603,6.98999977111816
66.3412853,4.86999988555908
66.3569103,3.29999995231628
66.3725353,1.88999998569489
66.3881603,0.0900000035762787
66.4037853,-2.69000005722046
66.4194103,-6.82999992370605
66.4350353,-12.210000038147
66.4506603,-18.2000007629395
66.4662853,-23.8600006103516
66.4819103,-28.2399997711182
66.4975353,-30.9200000762939
66.5131603,-32.3600006103516
66.5287853,-33.4599990844727
66.5444103,-34.7400016784668
66.5600353,-35.9700012207031
66.5756603,-36.25
66.5912853,-34.3300018310547
66.6069103,-29.2800006866455
66.6225353,-20.9400005340576
66.6381603,-9.97000026702881
66.6537853,2.42000007629395
66.6694103,14.7399997711182
66.6850353,25.1399993896484
66.7006603,32.0099983215332
66.7162853,34.5400009155273
66.7319103,32.9199981689453
66.7475353,28.2099990844727
66.7631603,21.8500003814697
66.7787853,15.0900001525879
66.7944103,8.6899995803833
66.8100353,2.91000008583069
66.8256603,-2.26999998092651
66.8412853,-7.01000022888184
66.8569103,-11.4099998474121
66.8725353,-15.4499998092651
66.8881603,-18.8600006103516
66.9037853,-21.25
66.9194103,-22.4599990844727
66.9350353,-22.8199996948242
66.9506603,-22.9699993133545
66.9662853,-23.4799995422363
66.9819103,-24.4799995422363
66.9975353,-25.6200008392334
67.0131603,-26.3099994659424
67.0287853,-26.3199996948242
67.0444103,-25.8600006103516
67.0600353,-25.3500003814697
67.0756603,-25.0900001525879
67.0912853,-25.1700000762939
67.1069103,-25.5100002288818
67.1225353,-25.8700008392334
67.1381603,-25.9899997711182
67.1537853,-25.5200004577637
67.1694103,-23.9099998474121
67.1850353,-20.3199996948242
67.2006603,-13.8699998855591
67.2162853,-4.13000011444092
67.2319103,8.38000011444092
67.2475353,21.9899997711182
67.2631603,34.2700004577637
