Time(s),Value(%)
0.0912853,-10.3400001525879
0.1069103,-13.8299999237061
0.1225353,-15.8999996185303
0.1381603,-16.5499992370605
0.1537853,-15.9899997711182
0.1694103,-14.6999998092651
0.1850353,-13.2200002670288
0.2006603,-12
0.2162853,-11.3000001907349
0.2319103,-11.2399997711182
0.2475353,-11.789999961853
0.2631603,-12.7200002670288
0.2787853,-13.8199996948242
0.2944103,-15.0100002288818
0.3100353,-16.2800006866455
0.3256603,-17.5499992370605
0.3412853,-18.8199996948242
0.3569103,-20.0799999237061
0.3725353,-21.2700004577637
0.3881603,-22.2999992370605
0.4037853,-23.0699996948242
0.4194103,-23.4200000762939
0.4350353,-22.9099998474121
0.4506603,-20.5300006866455
0.4662853,-14.8199996948242
0.4819103,-4.67000007629395
0.4975353,9.69999980926514
0.5131603,26.3600006103516
0.5287853,42.1199989318848
0.5444103,53.8499984741211
0.5600353,59.4599990844727
0.5756603,58.5400009155273
0.5912853,52.2400016784668
0.6069103,42.689998626709
0.6225353,32.0499992370605
0.6381603,21.7700004577637
0.6537853,12.460000038147
0.6694103,4.32000017166138
0.6850353,-2.55999994277954
0.7006603,-8.10999965667725
0.7162853,-12.1400003433228
0.7319103,-14.4899997711182
0.7475353,-15.1700000762939
0.7631603,-14.3900003433228
0.7787853,-12.6000003814697
0.7944103,-10.3999996185303
0.8100353,-8.40999984741211
0.8256603,-7.1100001335144
0.8412853,-6.6399998664856
0.8569103,-6.8899998664856
0.8725353,-7.71000003814697
0.8881603,-8.94999980926514
0.9037853,-10.4799995422363
0.9194103,-12.1599998474121
0.9350353,-13.8100004196167
0.9506603,-15.2700004577637
0.9662853,-16.4300003051758
0.9819103,-17.3099994659424
0.9975353,-18
1.0131603,-18.5200004577637
1.0287853,-18.3400001525879
1.0444103,-16.1299991607666
1.0600353,-10.1499996185303
1.0756603,0.610000014305115
1.0912853,15.289999961853
1.1069103,31.0499992370605
1.1225353,44.439998626709
1.1381603,52.8400001525879
1.1537853,55.2400016784668
1.1694103,52.1300010681152
1.1850353,45.0200004577637
1.2006603,35.7599983215332
1.2162853,26
1.2319103,16.8199996948242
1.2475353,8.57999992370605
1.2631603,1.13999998569489
1.2787853,-5.67999982833862
1.2944103,-11.7200002670288
1.3100353,-16.4099998474121
1.3256603,-19.1800003051758
1.3412853,-19.8500003814697
1.3569103,-18.6900005340576
1.3725353,-16.2900009155273
1.3881603,-13.460000038147
1.4037853,-11.039999961853
1.4194103,-9.68000030517578
1.4350353,-9.73999977111816
1.4506603,-11.1199998855591
1.4662853,-13.25
1.4819103,-15.5
1.4975353,-17.5
1.5131603,-19.25
1.5287853,-20.9500007629395
1.5444103,-22.7000007629395
1.5600353,-24.4099998474121
1.5756603,-25.8500003814697
1.5912853,-26.7000007629395
1.6069103,-26.4599990844727
1.6225353,-23.9599990844727
1.6381603,-17.2000007629395
1.6537853,-4.78000020980835
1.6694103,12.4200000762939
1.6850353,31.2700004577637
1.7006603,47.7599983215332
1.7162853,58.6800003051758
1.7319103,62.6399993896484
1.7475353,60.1100006103516
1.7631603,52.810001373291
1.7787853,42.7599983215332
1.7944103,31.7099990844727
1.8100353,21.0499992370605
1.8256603,11.6099996566772
1.8412853,3.48000001907349
1.8569103,-3.51999998092651
1.8725353,-9.51000022888184
1.8881603,-14.3500003814697
1.9037853,-17.75
1.9194103,-19.5
1.9350353,-19.6700000762939
1.9506603,-18.75
1.9662853,-17.4300003051758
1.9819103,-16.3199996948242
1.9975353,-15.7299995422363
2.0131603,-15.7399997711182
2.0287853,-16.3999996185303
2.0444103,-17.6800003051758
2.0600353,-19.5
2.0756603,-21.7299995422363
2.0912853,-24.2000007629395
2.1069103,-26.75
2.1225353,-29.1800003051758
2.1381603,-31.2999992370605
2.1537853,-32.9300003051758
2.1694103,-33.8499984741211
2.1850353,-33.4799995422363
2.2006603,-30.5
2.2162853,-23.0799999237061
2.2319103,-10.1000003814697
2.2475353,7.73999977111816
2.2631603,27.7299995422363
2.2787853,46.060001373291
2.2944103,59.189998626709
2.3100353,64.9499969482422
2.3256603,63.2700004577637
2.3412853,55.9300003051758
2.3569103,45.5400009155273
2.3725353,34.3400001525879
2.3881603,23.5499992370605
2.4037853,13.5100002288818
2.4194103,4.34999990463257
2.4350353,-3.69000005722046
2.4506603,-10.3000001907349
2.4662853,-15.2600002288818
2.4819103,-18.5
2.4975353,-20.1700000762939
2.5131603,-20.5799999237061
2.5287853,-20.0900001525879
2.5444103,-19.0499992370605
2.5600353,-17.8600006103516
2.5756603,-16.9200000762939
2.5912853,-16.5300006866455
2.6069103,-16.8500003814697
2.6225353,-17.8600006103516
2.6381603,-19.4500007629395
2.6537853,-21.3500003814697
2.6694103,-23.2800006866455
2.6850353,-25.1399993896484
2.7006603,-26.9799995422363
2.7162853,-28.8500003814697
2.7319103,-30.7000007629395
2.7475353,-32.3899993896484
2.7631603,-33.3199996948242
2.7787853,-32.0299987792969
2.7944103,-26.4799995422363
2.8100353,-15.1899995803833
2.8256603,1.52999997138977
2.8412853,21.2099990844727
2.8569103,39.8800010681152
2.8725353,53.75
2.8881603,60.5699996948242
2.9037853,60.1500015258789
2.9194103,53.9199981689453
2.9350353,44.0299987792969
2.9506603,32.6199989318848
2.9662853,21.2800006866455
2.9819103,10.7600002288818
2.9975353,1.26999998092651
3.0131603,-7.07999992370605
3.0287853,-13.9799995422363
3.0444103,-19.0900001525879
3.0600353,-22.3099994659424
3.0756603,-23.9099998474121
3.0912853,-24.2399997711182
3.1069103,-23.5900001525879
3.1225353,-22.2299995422363
3.1381603,-20.4799995422363
3.1537853,-18.7099990844727
3.1694103,-17.2900009155273
3.1850353,-16.5300006866455
3.2006603,-16.5900001525879
3.2162853,-17.3600006103516
3.2319103,-18.6599998474121
3.2475353,-20.2199993133545
3.2631603,-21.7900009155273
3.2787853,-23.1700000762939
3.2944103,-24.3299999237061
3.3100353,-25.3299999237061
3.3256603,-26.1200008392334
3.3412853,-26.5200004577637
3.3569103,-26.0100002288818
3.3725353,-23.4799995422363
3.3881603,-17.0100002288818
3.4037853,-4.59999990463257
3.4194103,13.8999996185303
3.4350353,35.6300010681152
3.4506603,55.7099990844727
3.4662853,69.7399978637695
3.4819103,75.4899978637695
3.4975353,73.3499984741211
3.5131603,65.6800003051758
3.5287853,55.5699996948242
3.5444103,45.4599990844727
3.5600353,36.25
3.5756603,27.7199993133545
3.5912853,19.3799991607666
3.6069103,11.1300001144409
3.6225353,3.33999991416931
3.6381603,-3.34999990463257
3.6537853,-8.35000038146973
3.6694103,-11.25
3.6850353,-12.0500001907349
3.7006603,-11.25
3.7162853,-9.61999988555908
3.7319103,-7.96000003814697
3.7475353,-6.94999980926514
3.7631603,-6.92999982833862
3.7787853,-7.92999982833862
3.7944103,-9.76000022888184
3.8100353,-12.1499996185303
3.8256603,-14.8000001907349
3.8412853,-17.3500003814697
3.8569103,-19.4899997711182
3.8725353,-21.1100006103516
3.8881603,-22.2999992370605
3.9037853,-23.2600002288818
3.9194103,-24.1900005340576
3.9350353,-25.0499992370605
3.9506603,-25.1499996185303
3.9662853,-23.1499996185303
3.9819103,-17.3600006103516
3.9975353,-6.53000020980835
4.0131603,9.09000015258789
4.0287853,27.3799991607666
4.0444103,44.9000015258789
4.0600353,58.310001373291
4.0756603,65.4100036621094
4.0912853,65.6900024414063
4.1069103,60.2400016784668
4.1225353,51.2700004577637
4.1381603,41.1300010681152
4.1537853,31.4300003051758
4.1694103,22.6200008392334
4.1850353,14.4899997711182
4.2006603,6.90000009536743
4.2162853,0.0500000007450581
4.2319103,-5.67999982833862
4.2475353,-9.98999977111816
4.2631603,-12.7200002670288
4.2787853,-13.8999996185303
4.2944103,-13.8100004196167
4.3100353,-13.0500001907349
4.3256603,-12.3400001525879
4.3412853,-12.2299995422363
4.3569103,-12.9499998092651
4.3725353,-14.3699998855591
4.3881603,-16.2199993133545
4.4037853,-18.2000007629395
4.4194103,-20.2199993133545
4.4350353,-22.3099994659424
4.4506603,-24.4400005340576
4.4662853,-26.4099998474121
4.4819103,-27.8999996185303
4.4975353,-28.6399993896484
4.5131603,-28.5799999237061
4.5287853,-27.9300003051758
4.5444103,-26.75
4.5600353,-24.3799991607666
4.5756603,-19.3400001525879
4.5912853,-10.0100002288818
4.6069103,4.23999977111816
4.6225353,22.0400009155273
4.6381603,40.1800003051758
4.6537853,55
4.6694103,64.0100021362305
4.6850353,66.5100021362305
4.7006603,63.3899993896484
4.7162853,56.3199996948242
4.7319103,47.1599998474121
4.7475353,37.3899993896484
4.7631603,27.7999992370605
4.7787853,18.5
4.7944103,9.39000034332275
4.8100353,0.639999985694885
4.8256603,-7.1100001335144
4.8412853,-12.9300003051758
4.8569103,-16.2000007629395
4.8725353,-17.1399993896484
4.8881603,-16.7999992370605
4.9037853,-16.3999996185303
4.9194103,-16.7700004577637
4.9350353,-18.0900001525879
4.9506603,-19.9300003051758
4.9662853,-21.7399997711182
4.9819103,-23.3099994659424
4.9975353,-24.8600006103516
5.0131603,-26.6299991607666
5.0287853,-28.5599994659424
5.0444103,-30.2000007629395
5.0600353,-30.8999996185303
5.0756603,-30.2900009155273
5.0912853,-28.7800006866455
5.1069103,-27.3899993896484
5.1225353,-26.9799995422363
5.1381603,-27.6200008392334
5.1537853,-28.7099990844727
5.1694103,-29.4599990844727
5.1850353,-29.1200008392334
5.2006603,-26.7999992370605
5.2162853,-21.2900009155273
5.2319103,-11.4799995422363
5.2475353,2.73000001907349
5.2631603,19.7000007629395
5.2787853,36.4799995422363
5.2944103,50.0400009155273
5.3100353,58.5299987792969
5.3256603,61.5299987792969
5.3412853,59.1699981689453
5.3569103,51.6100006103516
5.3725353,39.4599990844727
5.3881603,24.4099998474121
5.4037853,9.0600004196167
5.4194103,-3.83999991416931
5.4350353,-12.5200004577637
5.4506603,-16.8400001525879
5.4662853,-18.0599994659424
5.4819103,-17.6100006103516
5.4975353,-16.1000003814697
5.5131603,-13.3599996566772
5.5287853,-9.17000007629395
5.5444103,-4.07000017166138
5.5600353,0.800000011920929
5.5756603,4.5
5.5912853,6.48999977111816
5.6069103,6.71000003814697
5.6225353,5.46000003814697
5.6381603,3.28999996185303
5.6537853,0.769999980926514
5.6694103,-1.89999997615814
5.6850353,-5.11999988555908
5.7006603,-9.46000003814697
5.7162853,-15.0799999237061
5.7319103,-21.4899997711182
5.7475353,-27.7700004577637
5.7631603,-33.0400009155273
5.7787853,-36.8300018310547
5.7944103,-39.2900009155273
5.8100353,-41.0299987792969
5.8256603,-42.310001373291
5.8412853,-42.4599990844727
5.8569103,-39.8800010681152
5.8725353,-32.6599998474121
5.8881603,-19.8299999237061
5.9037853,-2.45000004768372
5.9194103,16.3799991607666
5.9350353,32.7999992370605
5.9506603,43.5
5.9662853,47.0200004577637
5.9819103,44.1100006103516
5.9975353,37
6.0131603,28.25
6.0287853,19.9300003051758
6.0444103,13.2799997329712
6.0600353,8.67000007629395
6.0756603,5.84999990463257
6.0912853,4.25
6.1069103,3.36999988555908
6.1225353,3.09999990463257
6.1381603,3.60999989509583
6.1537853,5.01000022888184
6.1694103,7.17000007629395
6.1850353,9.52999973297119
6.2006603,11.1700000762939
6.2162853,11.1300001144409
6.2319103,9.17000007629395
6.2475353,5.90000009536743
6.2631603,2.26999998092651
6.2787853,-1.02999997138977
6.2944103,-3.79999995231628
6.3100353,-6.1100001335144
6.3256603,-8.15999984741211
6.3412853,-10.1499996185303
6.3569103,-12.2299995422363
6.3725353,-14.3900003433228
6.3881603,-16.4400005340576
6.4037853,-18.2199993133545
6.4194103,-19.6200008392334
6.4350353,-20.3199996948242
6.4506603,-19.25
6.4662853,-14.5500001907349
6.4819103,-4.57000017166138
6.4975353,10.6899995803833
6.5131603,29.0300006866455
6.5287853,46.7000007629395
6.5444103,59.8699989318848
6.5600353,66.2200012207031
6.5756603,65.5100021362305
6.5912853,59.2799987792969
6.6069103,49.7599983215332
6.6225353,39.0900001525879
6.6381603,28.6499996185303
6.6537853,18.9200000762939
6.6694103,9.75
6.6850353,0.810000002384186
6.7006603,-7.78999996185303
6.7162853,-15.3900003433228
6.7319103,-21.1599998474121
6.7475353,-24.6599998474121
6.7631603,-26.0300006866455
6.7787853,-25.8199996948242
6.7944103,-24.8099994659424
6.8100353,-23.6800003051758
6.8256603,-22.8700008392334
6.8412853,-22.7900009155273
6.8569103,-23.7000007629395
6.8725353,-25.5900001525879
6.8881603,-28.1599998474121
6.9037853,-31.0400009155273
6.9194103,-33.8899993896484
6.9350353,-36.5200004577637
6.9506603,-38.8400001525879
6.9662853,-40.7400016784668
6.9819103,-42.0699996948242
6.9975353,-42.7299995422363
7.0131603,-42.7299995422363
7.0287853,-42.0900001525879
7.0444103,-40.5400009155273
7.0600353,-37.2999992370605
7.0756603,-30.7199993133545
7.0912853,-18.8700008392334
7.1069103,-1.16999995708466
7.1225353,20.1399993896484
7.1381603,40.7299995422363
7.1537853,56.2200012207031
7.1694103,64.0400009155273
7.1850353,64
7.2006603,57.6800003051758
7.2162853,47.5499992370605
7.2319103,36.1199989318848
7.2475353,25.2399997711182
7.2631603,15.8299999237061
7.2787853,8.10000038146973
7.2944103,1.83000004291534
7.3100353,-3.36999988555908
7.3256603,-8.02999973297119
7.3412853,-12.6300001144409
7.3569103,-17.1399993896484
7.3725353,-20.4799995422363
7.3881603,-21.1299991607666
7.4037853,-18.4500007629395
7.4194103,-13.3599996566772
7.4350353,-7.88000011444092
7.4506603,-4.03999996185303
7.4662853,-2.8199999332428
7.4819103,-3.82999992370605
7.4975353,-5.80999994277954
7.5131603,-7.30999994277954
7.5287853,-7.53999996185303
7.5444103,-6.90000009536743
7.5600353,-6.57999992370605
7.5756603,-7.55999994277954
7.5912853,-9.90999984741211
7.6069103,-12.8000001907349
7.6225353,-14.5500001907349
7.6381603,-13.039999961853
7.6537853,-6.34000015258789
7.6694103,6.19000005722046
7.6850353,23.0100002288818
7.7006603,40.6599998474121
7.7162853,55.3300018310547
7.7319103,64.2200012207031
7.7475353,66.4100036621094
7.7631603,62.8600006103516
7.7787853,55.5299987792969
7.7944103,46.5400009155273
7.8100353,37.4799995422363
7.8256603,29.1800003051758
7.8412853,21.7000007629395
7.8569103,14.7799997329712
7.8725353,8.3100004196167
7.8881603,2.5
7.9037853,-2.1800000667572
7.9194103,-5.32999992370605
7.9350353,-6.84999990463257
7.9506603,-6.92999982833862
7.9662853,-5.98999977111816
7.9819103,-4.6100001335144
7.9975353,-3.53999996185303
8.0131603,-3.40000009536743
8.0287853,-4.34000015258789
8.0444103,-6.1100001335144
8.0600353,-8.32999992370605
8.0756603,-10.7700004577637
8.0912853,-13.4399995803833
8.1069103,-16.3500003814697
8.1225353,-19.2399997711182
8.1381603,-21.5799999237061
8.1537853,-22.8500003814697
8.1694103,-22.7099990844727
8.1850353,-20.6100006103516
8.2006603,-15.3999996185303
8.2162853,-6.1399998664856
8.2319103,6.44999980926514
8.2475353,19.8199996948242
8.2631603,30.5100002288818
8.2787853,35.8600006103516
8.2944103,35.0200004577637
8.3100353,29
8.3256603,20.0100002288818
8.3412853,10.5699996948242
8.3569103,2.60999989509583
8.3725353,-3.22000002861023
8.3881603,-7.59000015258789
8.4037853,-11.789999961853
8.4194103,-17.0499992370605
8.4350353,-23.8199996948242
8.4506603,-31.3500003814697
8.4662853,-38.0699996948242
8.4819103,-42.3499984741211
8.4975353,-43.6100006103516
8.5131603,-42.6699981689453
8.5287853,-41.1500015258789
8.5444103,-40.2900009155273
8.5600353,-40.3300018310547
8.5756603,-40.7000007629395
8.5912853,-40.5800018310547
8.6069103,-39.4799995422363
8.6225353,-37.4199981689453
8.6381603,-34.9099998474121
8.6537853,-32.8899993896484
8.6694103,-32.2700004577637
8.6850353,-33.3800010681152
8.7006603,-35.7700004577637
8.7162853,-38.2799987792969
8.7319103,-39.2099990844727
8.7475353,-36.8800010681152
8.7631603,-30.1800003051758
8.7787853,-18.9699993133545
8.7944103,-4.23000001907349
8.8100353,12.0500001907349
8.8256603,27.5599994659424
8.8412853,40.2299995422363
8.8569103,48.6800003051758
8.8725353,52.4000015258789
8.8881603,51.7299995422363
8.9037853,47.7000007629395
8.9194103,41.6599998474121
8.9350353,34.9599990844727
8.9506603,28.6399993896484
8.9662853,23.2999992370605
8.9819103,19.2999992370605
8.9975353,16.7900009155273
9.0131603,15.6899995803833
9.0287853,15.7600002288818
9.0444103,16.6000003814697
9.0600353,17.7900009155273
9.0756603,18.8099994659424
9.0912853,19.1299991607666
9.1069103,18.3999996185303
9.1225353,16.7199993133545
9.1381603,14.539999961853
9.1537853,12.4099998474121
9.1694103,10.6800003051758
9.1850353,9.46000003814697
9.2006603,8.52000045776367
9.2162853,7.42000007629395
9.2319103,5.80000019073486
9.2475353,3.72000002861023
9.2631603,1.57000005245209
9.2787853,-0.0799999982118607
9.2944103,-0.620000004768372
9.3100353,0.589999973773956
9.3256603,4.07000017166138
9.3412853,9.82999992370605
9.3569103,17.1000003814697
9.3725353,24.3899993896484
9.3881603,30.0900001525879
9.4037853,33.0900001525879
9.4194103,33.0800018310547
9.4350353,30.4099998474121
9.4506603,25.8700008392334
9.4662853,20.2900009155273
9.4819103,14.3199996948242
9.4975353,8.47000026702881
9.5131603,3.16000008583069
9.5287853,-1.29999995231628
9.5444103,-4.78999996185303
9.5600353,-7.28999996185303
9.5756603,-8.97000026702881
9.5912853,-10
9.6069103,-10.460000038147
9.6225353,-10.4499998092651
9.6381603,-10.1300001144409
9.6537853,-9.6899995803833
9.6694103,-9.3100004196167
9.6850353,-9.22000026702881
9.7006603,-9.5600004196167
9.7162853,-10.289999961853
9.7319103,-11.1999998092651
9.7475353,-12.0699996948242
9.7631603,-12.8699998855591
9.7787853,-13.7399997711182
9.7944103,-14.8699998855591
9.8100353,-16.3099994659424
9.8256603,-17.8899993896484
9.8412853,-19.3099994659424
9.8569103,-20.0300006866455
9.8725353,-19.2299995422363
9.8881603,-16.0900001525879
9.9037853,-10.25
9.9194103,-2.29999995231628
9.9350353,6.28999996185303
9.9506603,13.9099998474121
9.9662853,19.3500003814697
9.9819103,22.1399993896484
9.9975353,22.3700008392334
10.0131603,20.6499996185303
10.0287853,17.7000007629395
10.0444103,14
10.0600353,9.75
10.0756603,5.28000020980835
10.0912853,1.1599999666214
10.1069103,-2.16000008583069
10.1225353,-4.76000022888184
10.1381603,-6.90999984741211
10.1537853,-8.78999996185303
10.1694103,-10.3199996948242
10.1850353,-11.3199996948242
10.2006603,-11.6499996185303
10.2162853,-11.3900003433228
10.2319103,-10.7600002288818
10.2475353,-9.97999954223633
10.2631603,-9.22000026702881
10.2787853,-8.59000015258789
10.2944103,-8.1899995803833
10.3100353,-8.19999980926514
10.3256603,-8.72000026702881
10.3412853,-9.64000034332275
10.3569103,-10.7399997711182
10.3725353,-11.8800001144409
10.3881603,-13
10.4037853,-14.1099996566772
10.4194103,-15.25
10.4350353,-16.1599998474121
10.4506603,-16.1700000762939
10.4662853,-14.1800003051758
10.4819103,-9.23999977111816
10.4975353,-1.27999997138977
10.5131603,8.51000022888184
10.5287853,18.1499996185303
10.5444103,25.7600002288818
10.5600353,30.3400001525879
10.5756603,31.8799991607666
10.5912853,30.9599990844727
10.6069103,28.2800006866455
10.6225353,24.4200000762939
10.6381603,19.8099994659424
10.6537853,14.8400001525879
10.6694103,9.85999965667725
10.6850353,5.1399998664856
10.7006603,0.829999983310699
10.7162853,-2.91000008583069
10.7319103,-5.84999990463257
10.7475353,-7.75
10.7631603,-8.59000015258789
10.7787853,-8.64000034332275
10.7944103,-8.30000019073486
10.8100353,-7.98000001907349
10.8256603,-7.94999980926514
10.8412853,-8.34000015258789
10.8569103,-9.18000030517578
10.8725353,-10.4300003051758
10.8881603,-11.9399995803833
10.9037853,-13.5100002288818
10.9194103,-14.9300003051758
10.9350353,-16.1299991607666
10.9506603,-17.1100006103516
10.9662853,-17.9300003051758
10.9819103,-18.6800003051758
10.9975353,-19.4599990844727
11.0131603,-20.1800003051758
11.0287853,-20.3199996948242
11.0444103,-18.8799991607666
11.0600353,-14.9399995803833
11.0756603,-8.1899995803833
11.0912853,0.779999971389771
11.1069103,10.789999961853
11.1225353,20.3899993896484
11.1381603,28.25
11.1537853,33.4099998474121
11.1694103,35.3899993896484
11.1850353,34.310001373291
11.2006603,30.7800006866455
11.2162853,25.7299995422363
11.2319103,19.9899997711182
11.2475353,14.1099996566772
11.2631603,8.46000003814697
11.2787853,3.27999997138977
11.2944103,-1.25
11.3100353,-4.98999977111816
11.3256603,-7.78000020980835
11.3412853,-9.60999965667725
11.3569103,-10.6099996566772
11.3725353,-11.0900001525879
11.3881603,-11.3400001525879
11.4037853,-11.5299997329712
11.4194103,-11.7600002288818
11.4350353,-12.0600004196167
11.4506603,-12.4799995422363
11.4662853,-13.0900001525879
11.4819103,-14
11.4975353,-15.25
11.5131603,-16.7700004577637
11.5287853,-18.4200000762939
11.5444103,-20.0599994659424
11.5600353,-21.4899997711182
11.5756603,-22.5599994659424
11.5912853,-23.2099990844727
11.6069103,-23.4899997711182
