Time(s),Value(%)
1055.0030072,-10.4799995422363
1055.0186322,-16.2199993133545
1055.0342572,-21.0499992370605
1055.0498822,-24.7199993133545
1055.0655072,-27.3600006103516
1055.0811322,-29.2299995422363
1055.0967572,-30.4799995422363
1055.1123822,-31.1000003814697
1055.1280072,-31.1700000762939
1055.1436322,-30.4699993133545
1055.1592572,-28.7399997711182
1055.1748822,-25.7800006866455
1055.1905072,-21.6100006103516
1055.2061322,-16.4300003051758
1055.2217572,-10.4200000762939
1055.2373822,-3.72000002861023
1055.2530072,3.25999999046326
1055.2686322,9.85000038146973
1055.2842572,15.1499996185303
1055.2998822,18.3199996948242
1055.3155072,18.9200000762939
1055.3311322,17.0599994659424
1055.3467572,13.4700002670288
1055.3623822,9.22000026702881
1055.3780072,5.32999992370605
1055.3936322,2.17000007629395
1055.4092572,-0.600000023841858
1055.4248822,-3.53999996185303
1055.4405072,-6.65000009536743
1055.4561322,-9.40999984741211
1055.4717572,-11.2799997329712
1055.4873822,-12.0500001907349
1055.5030072,-12.0500001907349
1055.5186322,-12.0
1055.5342572,-12.9499998092651
1055.5498822,-15.6599998474121
1055.5655072,-20.2999992370605
1055.5811322,-26.6700000762939
1055.5967572,-34.7099990844727
1055.6123822,-44.4500007629395
1055.6280072,-55.5099983215332
1055.6436322,-66.5500030517578
1055.6592572,-75.5599975585938
1055.6748822,-81.1100006103516
1055.6905072,-83.370002746582
1055.7061322,-83.5599975585938
1055.7217572,-82.5699996948242
1055.7373822,-80.5
1055.7530072,-77.1699981689453
1055.7686322,-72.620002746582
1055.7842572,-67.1800003051758
1055.7998822,-61.1199989318848
1055.8155072,-54.3600006103516
1055.8311322,-46.6399993896484
1055.8467572,-37.9500007629395
1055.8623822,-28.9099998474121
1055.8780072,-20.6499996185303
1055.8936322,-14.1999998092651
1055.9092572,-9.88000011444092
1055.9248822,-7.13000011444092
1055.9405072,-4.96999979019165
1055.9561322,-2.77999997138977
1055.9717572,-0.779999971389771
1055.9873822,0.519999980926514
1056.0030072,1.22000002861023
1056.0186322,2.01999998092651
1056.0342572,3.63000011444092
1056.0498822,6.32000017166138
1056.0655072,9.8100004196167
1056.0811322,13.3500003814697
1056.0967572,16.0599994659424
1056.1123822,17.2900009155273
1056.1280072,16.9699993133545
1056.1436322,15.1099996566772
1056.1592572,11.6000003814697
1056.1748822,6.23000001907349
1056.1905072,-0.670000016689301
1056.2061322,-7.84999990463257
1056.2217572,-13.3100004196167
1056.2373822,-15.6800003051758
1056.2530072,-15.3699998855591
1056.2686322,-13.8699998855591
1056.2842572,-12.1800003051758
1056.2998822,-10.2600002288818
1056.3155072,-7.59000015258789
1056.3311322,-3.88000011444092
1056.3467572,0.740000009536743
1056.3623822,5.94999980926514
1056.3780072,11.5
1056.3936322,17.3199996948242
1056.4092572,23.3099994659424
1056.4248822,29.1299991607666
1056.4405072,34.1199989318848
1056.4561322,37.6699981689453
1056.4717572,39.7000007629395
1056.4873822,40.9900016784668
1056.5030072,42.8499984741211
1056.5186322,46.2099990844727
1056.5342572,50.7900009155273
1056.5498822,55.5699996948242
1056.5655072,59.8499984741211
1056.5811322,63.689998626709
1056.5967572,67.5100021362305
1056.6123822,71.6500015258789
1056.6280072,76.0999984741211
1056.6436322,80.4800033569336
1056.6592572,84.2099990844727
1056.6748822,86.8000030517578
1056.6905072,88.0899963378906
1056.7061322,88.0100021362305
1056.7217572,86.2900009155273
1056.7373822,82.6699981689453
1056.7530072,77.3899993896484
1056.7686322,71.6100006103516
1056.7842572,67.0999984741211
1056.7998822,65.120002746582
1056.8155072,65.379997253418
1056.8311322,66.6900024414063
1056.8467572,68.1999969482422
1056.8623822,69.9100036621094
1056.8780072,72.1999969482422
1056.8936322,75.25
1056.9092572,78.8399963378906
1056.9248822,82.5
1056.9405072,85.6900024414063
1056.9561322,88.0599975585938
1056.9717572,89.5500030517578
1056.9873822,90.25
1057.0030072,90.25
1057.0186322,89.5699996948242
1057.0342572,88.4100036621094
1057.0498822,87.4100036621094
1057.0655072,87.6699981689453
1057.0811322,89.9800033569336
1057.0967572,94.0500030517578
1057.1123822,98.7799987792969
1057.1280072,103.559997558594
1057.1436322,107.519996643066
1057.1592572,110.73999786377
1057.1748822,113.559997558594
1057.1905072,116.180000305176
1057.2061322,118.51000213623
1057.2217572,120.099998474121
1057.2373822,120.5
1057.2530072,119.519996643066
1057.2686322,117.139999389648
1057.2842572,113.309997558594
1057.2998822,107.98999786377
1057.3155072,101.449996948242
1057.3311322,94.6500015258789
1057.3467572,89.0299987792969
1057.3623822,85.5599975585938
1057.3780072,83.9899978637695
1057.3936322,83.2600021362305
1057.4092572,82.5199966430664
1057.4248822,81.379997253418
1057.4405072,79.4800033569336
1057.4561322,76.4300003051758
1057.4717572,72.1600036621094
1057.4873822,67.2799987792969
1057.5030072,62.9000015258789
1057.5186322,59.8699989318848
1057.5342572,58.0999984741211
1057.5498822,56.9300003051758
1057.5655072,56.0299987792969
1057.5811322,55.6100006103516
1057.5967572,55.9599990844727
1057.6123822,57.0800018310547
1057.6280072,58.7000007629395
1057.6436322,60.5099983215332
1057.6592572,62.4599990844727
1057.6748822,64.6900024414063
1057.6905072,67.2099990844727
1057.7061322,69.6999969482422
1057.7217572,71.5299987792969
1057.7373822,72.0899963378906
1057.7530072,71.2200012207031
1057.7686322,69.3399963378906
1057.7842572,67.1999969482422
1057.7998822,65.3099975585938
1057.8155072,63.560001373291
1057.8311322,61.5400009155273
1057.8467572,59.1500015258789
1057.8623822,56.7200012207031
1057.8780072,54.6199989318848
1057.8936322,53.0099983215332
1057.9092572,51.7599983215332
1057.9248822,50.4700012207031
1057.9405072,48.689998626709
1057.9561322,46.0900001525879
1057.9717572,42.5900001525879
1057.9873822,38.2000007629395
1058.0030072,32.7900009155273
1058.0186322,26.2000007629395
1058.0342572,18.5699996948242
1058.0498822,10.6700000762939
1058.0655072,3.67000007629395
1058.0811322,-1.61000001430511
1058.0967572,-5.38000011444092
1058.1123822,-8.4399995803833
1058.1280072,-11.3299999237061
1058.1436322,-14.0100002288818
1058.1592572,-16.2099990844727
1058.1748822,-17.7800006866455
1058.1905072,-18.8199996948242
1058.2061322,-19.4899997711182
1058.2217572,-19.8400001525879
1058.2373822,-19.7999992370605
1058.2530072,-19.3600006103516
1058.2686322,-18.6200008392334
1058.2842572,-17.7000007629395
1058.2998822,-16.7299995422363
1058.3155072,-15.8000001907349
1058.3311322,-14.8100004196167
1058.3467572,-13.5299997329712
1058.3623822,-11.7399997711182
1058.3780072,-9.53999996185303
1058.3936322,-7.30999994277954
1058.4092572,-5.51000022888184
1058.4248822,-4.44999980926514
1058.4405072,-4.1399998664856
1058.4561322,-4.40999984741211
1058.4717572,-4.98999977111816
1058.4873822,-5.76999998092651
1058.5030072,-6.82999992370605
1058.5186322,-8.32999992370605
1058.5342572,-10.3599996566772
1058.5498822,-12.9799995422363
1058.5655072,-16.2199993133545
1058.5811322,-20.1299991607666
1058.5967572,-24.5699996948242
1058.6123822,-29.1700000762939
1058.6280072,-33.4000015258789
1058.6436322,-36.9700012207031
1058.6592572,-40.0299987792969
1058.6748822,-43.0200004577637
1058.6905072,-46.1500015258789
1058.7061322,-49.2700004577637
1058.7217572,-52.1300010681152
1058.7373822,-54.5900001525879
1058.7530072,-56.7099990844727
1058.7686322,-58.7299995422363
1058.7842572,-61.0499992370605
1058.7998822,-63.9599990844727
1058.8155072,-67.5100021362305
1058.8311322,-71.5100021362305
1058.8467572,-75.6699981689453
1058.8623822,-79.75
1058.8780072,-83.5699996948242
1058.8936322,-86.8000030517578
1058.9092572,-88.879997253418
1058.9248822,-89.129997253418
1058.9405072,-87.0999984741211
1058.9561322,-82.9000015258789
1058.9717572,-77.1399993896484
1058.9873822,-70.7099990844727
1059.0030072,-64.4400024414063
1059.0186322,-58.810001373291
1059.0342572,-53.9700012207031
1059.0498822,-49.9199981689453
1059.0655072,-46.6399993896484
1059.0811322,-44.1699981689453
1059.0967572,-42.439998626709
1059.1123822,-41.2599983215332
1059.1280072,-40.3699989318848
1059.1436322,-39.4500007629395
1059.1592572,-38.4099998474121
1059.1748822,-37.3899993896484
1059.1905072,-36.7099990844727
1059.2061322,-36.6500015258789
1059.2217572,-37.2900009155273
1059.2373822,-38.4500007629395
1059.2530072,-39.939998626709
1059.2686322,-41.6100006103516
1059.2842572,-43.4000015258789
1059.2998822,-45.3199996948242
1059.3155072,-47.3499984741211
1059.3311322,-49.4599990844727
1059.3467572,-51.6300010681152
1059.3623822,-53.8699989318848
1059.3780072,-56.2299995422363
1059.3936322,-58.7200012207031
1059.4092572,-61.2799987792969
1059.4248822,-63.7799987792969
1059.4405072,-66.0999984741211
1059.4561322,-68.1999969482422
1059.4717572,-70.0899963378906
1059.4873822,-71.7699966430664
1059.5030072,-73.2300033569336
1059.5186322,-74.4199981689453
1059.5342572,-75.25
1059.5498822,-75.3899993896484
1059.5655072,-74.1800003051758
1059.5811322,-70.9899978637695
1059.5967572,-65.8000030517578
1059.6123822,-59.2700004577637
1059.6280072,-52.2999992370605
1059.6436322,-45.4099998474121
1059.6592572,-38.4500007629395
1059.6748822,-31.2399997711182
1059.6905072,-24.25
1059.7061322,-18.4699993133545
1059.7217572,-14.5900001525879
1059.7373822,-12.6099996566772
1059.7530072,-11.9399995803833
1059.7686322,-11.8199996948242
1059.7842572,-11.710000038147
1059.7998822,-11.4200000762939
1059.8155072,-10.9799995422363
1059.8311322,-10.3299999237061
1059.8467572,-9.14000034332275
1059.8623822,-7.03000020980835
1059.8780072,-3.99000000953674
1059.8936322,-0.629999995231628
1059.9092572,1.95000004768372
1059.9248822,2.88000011444092
1059.9405072,2.08999991416931
1059.9561322,0.0900000035762787
1059.9717572,-2.66000008583069
1059.9873822,-6.01999998092651
1060.0030072,-9.96000003814697
1060.0186322,-14.3400001525879
1060.0342572,-18.9300003051758
1060.0498822,-23.5
1060.0655072,-27.9200000762939
1060.0811322,-32.1800003051758
1060.0967572,-36.2900009155273
1060.1123822,-40.1199989318848
1060.1280072,-43.4099998474121
1060.1436322,-45.8600006103516
1060.1592572,-47.4500007629395
1060.1748822,-48.5
1060.1905072,-49.4300003051758
1060.2061322,-50.1100006103516
1060.2217572,-49.5200004577637
1060.2373822,-46.4900016784668
1060.2530072,-40.7999992370605
1060.2686322,-33.439998626709
1060.2842572,-25.8500003814697
1060.2998822,-19.1800003051758
1060.3155072,-13.789999961853
1060.3311322,-9.26000022888184
1060.3467572,-4.6399998664856
1060.3623822,0.939999997615814
1060.3780072,7.82999992370605
1060.3936322,15.960000038147
1060.4092572,25.2999992370605
1060.4248822,35.8499984741211
1060.4405072,47.1599998474121
1060.4561322,57.7299995422363
1060.4717572,65.1699981689453
1060.4873822,67.7399978637695
1060.5030072,65.7200012207031
1060.5186322,61.0099983215332
1060.5342572,55.4000015258789
1060.5498822,49.6699981689453
1060.5655072,43.8400001525879
1060.5811322,37.7200012207031
1060.5967572,31.25
1060.6123822,24.6200008392334
1060.6280072,18.1000003814697
1060.6436322,11.9200000762939
1060.6592572,6.21000003814697
1060.6748822,1.12000000476837
1060.6905072,-3.11999988555908
1060.7061322,-6.28999996185303
1060.7217572,-8.51000022888184
1060.7373822,-10.4899997711182
1060.7530072,-13.4499998092651
1060.7686322,-18.3500003814697
1060.7842572,-25.2299995422363
1060.7998822,-33.3400001525879
1060.8155072,-41.8499984741211
1060.8311322,-50.2799987792969
1060.8467572,-58.4900016784668
1060.8623822,-66.4199981689453
1060.8780072,-73.8199996948242
1060.8936322,-79.5899963378906
1060.9092572,-81.6399993896484
1060.9248822,-78.0500030517578
1060.9405072,-68.4800033569336
1060.9561322,-53.8800010681152
1060.9717572,-35.3400001525879
1060.9873822,-13.6800003051758
1061.0030072,9.84000015258789
1061.0186322,32.7000007629395
1061.0342572,51.2599983215332
1061.0498822,62.9000015258789
1061.0655072,67.8600006103516
1061.0811322,68.3199996948242
1061.0967572,66.120002746582
1061.1123822,61.7999992370605
1061.1280072,55.3699989318848
1061.1436322,47.1100006103516
1061.1592572,37.8400001525879
1061.1748822,28.6499996185303
1061.1905072,20.6499996185303
1061.2061322,14.4899997711182
1061.2217572,10.210000038147
1061.2373822,7.53999996185303
1061.2530072,6.28999996185303
1061.2686322,6.42000007629395
1061.2842572,7.6100001335144
1061.2998822,8.65999984741211
1061.3155072,7.59999990463257
1061.3311322,2.84999990463257
1061.3467572,-5.57000017166138
1061.3623822,-16.3400001525879
1061.3780072,-27.9500007629395
1061.3936322,-39.4799995422363
1061.4092572,-50.4599990844727
1061.4248822,-60.6599998474121
1061.4405072,-70.0599975585938
1061.4561322,-78.9400024414063
1061.4717572,-87.7699966430664
1061.4873822,-96.7799987792969
1061.5030072,-105.519996643066
1061.5186322,-113.230003356934
1061.5342572,-119.470001220703
1061.5498822,-124.389999389648
1061.5655072,-128.520004272461
1061.5811322,-132.330001831055
1061.5967572,-135.820007324219
1061.6123822,-137.759994506836
1061.6280072,-135.550003051758
1061.6436322,-126.839996337891
1061.6592572,-111.319999694824
1061.6748822,-91.0699996948242
1061.6905072,-69.2799987792969
1061.7061322,-48.7099990844727
1061.7217572,-30.8899993896484
1061.7373822,-16.6100006103516
1061.7530072,-6.57999992370605
1061.7686322,-1.27999997138977
1061.7842572,-0.219999998807907
1061.7998822,-1.62000000476837
1061.8155072,-2.91000008583069
1061.8311322,-1.99000000953674
1061.8467572,1.72000002861023
1061.8623822,6.76000022888184
1061.8780072,10.25
1061.8936322,9.75
1061.9092572,4.86999988555908
1061.9248822,-3.02999997138977
1061.9405072,-12.3900003433228
1061.9561322,-22.2000007629395
1061.9717572,-31.8999996185303
1061.9873822,-41.1300010681152
1062.0030072,-49.7400016784668
1062.0186322,-57.8899993896484
1062.0342572,-66.1399993896484
1062.0498822,-75.0899963378906
1062.0655072,-85.0100021362305
1062.0811322,-95.6999969482422
1062.0967572,-106.690002441406
1062.1123822,-117.51000213623
1062.1280072,-127.76000213623
1062.1436322,-137.190002441406
1062.1592572,-145.610000610352
1062.1748822,-152.559997558594
1062.1905072,-157.199996948242
1062.2061322,-158.740005493164
1062.2217572,-156.990005493164
1062.2373822,-151.779998779297
1062.2530072,-142.410003662109
1062.2686322,-128.169998168945
1062.2842572,-109.480003356934
1062.2998822,-88.4599990844727
1062.3155072,-68.0400009155273
1062.3311322,-50.3800010681152
1062.3467572,-35.7000007629395
1062.3623822,-23.4200000762939
1062.3780072,-13.7700004577637
1062.3936322,-7.78999996185303
1062.4092572,-6.01000022888184
1062.4248822,-7.71000003814697
1062.4405072,-11.289999961853
1062.4561322,-15.210000038147
1062.4717572,-18.6900005340576
1062.4873822,-21.6900005340576
1062.5030072,-24.5
1062.5186322,-27.25
1062.5342572,-29.75
1062.5498822,-31.6399993896484
1062.5655072,-32.7799987792969
1062.5811322,-33.5299987792969
1062.5967572,-34.7799987792969
1062.6123822,-37.5
1062.6280072,-42.1199989318848
1062.6436322,-48.4300003051758
1062.6592572,-55.7900009155273
1062.6748822,-63.4700012207031
1062.6905072,-70.8600006103516
1062.7061322,-77.5599975585938
1062.7217572,-83.4700012207031
1062.7373822,-88.7699966430664
1062.7530072,-93.9599990844727
1062.7686322,-99.4800033569336
1062.7842572,-105.389999389648
1062.7998822,-111.169998168945
1062.8155072,-115.900001525879
1062.8311322,-118.730003356934
1062.8467572,-119.389999389648
1062.8623822,-118.0
1062.8780072,-114.559997558594
1062.8936322,-108.419998168945
1062.9092572,-98.25
1062.9248822,-83.2900009155273
1062.9405072,-64.4000015258789
1062.9561322,-43.8400001525879
1062.9717572,-24.0
1062.9873822,-6.30999994277954
1063.0030072,8.89999961853027
1063.0186322,21.7900009155273
1063.0342572,32.310001373291
1063.0498822,40.2299995422363
1063.0655072,45.6699981689453
1063.0811322,49.3400001525879
1063.0967572,52.2599983215332
1063.1123822,55.3400001525879
1063.1280072,58.6300010681152
1063.1436322,61.9799995422363
1063.1592572,64.3199996948242
1063.1748822,64.6100006103516
1063.1905072,62.5699996948242
1063.2061322,58.7799987792969
1063.2217572,54.1699981689453
1063.2373822,49.6300010681152
1063.2530072,45.6399993896484
1063.2686322,42.3600006103516
1063.2842572,39.5800018310547
1063.2998822,36.7900009155273
1063.3155072,33.1500015258789
1063.3311322,27.9899997711182
1063.3467572,21.2000007629395
1063.3623822,13.0600004196167
1063.3780072,3.80999994277954
1063.3936322,-6.44000005722046
1063.4092572,-17.3099994659424
1063.4248822,-27.8899993896484
1063.4405072,-36.8400001525879
1063.4561322,-43.060001373291
1063.4717572,-46.2599983215332
1063.4873822,-46.7999992370605
1063.5030072,-44.9599990844727
1063.5186322,-40.3899993896484
1063.5342572,-32.2099990844727
1063.5498822,-19.8400001525879
1063.5655072,-3.78999996185303
1063.5811322,14.3599996566772
1063.5967572,32.8699989318848
1063.6123822,50.5900001525879
1063.6280072,67.25
1063.6436322,82.7099990844727
1063.6592572,96.1399993896484
1063.6748822,106.419998168945
1063.6905072,113.080001831055
1063.7061322,116.75
1063.7217572,118.669998168945
1063.7373822,119.75
1063.7530072,120.069999694824
1063.7686322,119.129997253418
1063.7842572,116.620002746582
1063.7998822,112.639999389648
1063.8155072,107.599998474121
1063.8311322,101.980003356934
1063.8467572,96.2300033569336
1063.8623822,90.8399963378906
1063.8780072,86.2300033569336
1063.8936322,82.4400024414063
1063.9092572,78.9000015258789
1063.9248822,74.9100036621094
1063.9405072,70.2699966430664
1063.9561322,65.3499984741211
1063.9717572,60.7599983215332
1063.9873822,56.939998626709
1064.0030072,53.8899993896484
1064.0186322,51.1199989318848
1064.0342572,47.7999992370605
1064.0498822,43.1800003051758
1064.0655072,37.0800018310547
1064.0811322,29.7299995422363
1064.0967572,21.4200000762939
1064.1123822,12.3500003814697
1064.1280072,2.92000007629395
1064.1436322,-5.71999979019165
1064.1592572,-11.8800001144409
1064.1748822,-13.8100004196167
1064.1905072,-10.4099998474121
1064.2061322,-1.73000001907349
1064.2217572,11.1599998474121
1064.2373822,26.6299991607666
1064.2530072,42.9199981689453
1064.2686322,58.6199989318848
1064.2842572,72.9199981689453
1064.2998822,85.4499969482422
1064.3155072,95.9700012207031
1064.3311322,104.400001525879
1064.3467572,110.949996948242
1064.3623822,115.959999084473
1064.3780072,119.730003356934
1064.3936322,122.410003662109
1064.4092572,124.169998168945
1064.4248822,125.069999694824
1064.4405072,125.019996643066
1064.4561322,123.839996337891
1064.4717572,121.449996948242
1064.4873822,118.120002746582
1064.5030072,114.550003051758
1064.5186322,111.5
1064.5342572,109.389999389648
1064.5498822,108.169998168945
1064.5655072,107.400001525879
1064.5811322,106.379997253418
1064.5967572,104.230003356934
1064.6123822,100.360000610352
1064.6280072,94.7300033569336
1064.6436322,87.620002746582
1064.6592572,79.2300033569336
1064.6748822,69.6500015258789
1064.6905072,59.189998626709
1064.7061322,48.7700004577637
1064.7217572,39.7099990844727
1064.7373822,32.9099998474121
1064.7530072,28.1399993896484
1064.7686322,24.5400009155273
1064.7842572,21.5499992370605
1064.7998822,19.25
1064.8155072,17.9200000762939
1064.8311322,17.6000003814697
1064.8467572,18.2000007629395
1064.8623822,20.0900001525879
1064.8780072,24.4699993133545
1064.8936322,32.6100006103516
1064.9092572,44.6500015258789
1064.9248822,59.4599990844727
1064.9405072,75.3000030517578
1064.9561322,90.6800003051758
1064.9717572,104.680000305176
1064.9873822,116.580001831055
1065.0030072,125.559997558594
1065.0186322,130.919998168945
1065.0342572,132.539993286133
1065.0498822,131.039993286133
1065.0655072,127.449996948242
1065.0811322,122.830001831055
1065.0967572,117.959999084473
1065.1123822,113.279998779297
1065.1280072,108.190002441406
1065.1436322,103.400001525879
1065.1592572,98.7099990844727
1065.1748822,93.9700012207031
1065.1905072,89.1399993896484
1065.2061322,84.2799987792969
1065.2217572,79.5
1065.2373822,74.8899993896484
1065.2530072,70.4599990844727
1065.2686322,66.0100021362305
1065.2842572,61.1599998474121
1065.2998822,55.5499992370605
1065.3155072,49.0999984741211
1065.3311322,41.810001373291
1065.3467572,33.5800018310547
1065.3623822,24.2399997711182
1065.3780072,13.8299999237061
1065.3936322,3.01999998092651
