Time(s),Value(%)
724.0085057,8.47999954223633
724.0241307,6.69000005722046
724.0397557,4.96000003814697
724.0553807,3.28999996185303
724.0710057,1.64999997615814
724.0866307,0.0700000002980232
724.1022557,-1.27999997138977
724.1178807,-2.3199999332428
724.1335057,-3.08999991416931
724.1491307,-3.78999996185303
724.1647557,-4.48999977111816
724.1803807,-5.11999988555908
724.1960057,-5.6399998664856
724.2116307,-6.11999988555908
724.2272557,-6.69000005722046
724.2428807,-7.42999982833862
724.2585057,-8.28999996185303
724.2741307,-9.19999980926514
724.2897557,-10.1899995803833
724.3053807,-11.2799997329712
724.3210057,-12.3199996948242
724.3366307,-13.1199998855591
724.3522557,-13.5900001525879
724.3678807,-13.8500003814697
724.3835057,-14.0699996948242
724.3991307,-14.3699998855591
724.4147557,-14.7200002670288
724.4303807,-15.0799999237061
724.4460057,-15.3400001525879
724.4616307,-15.3100004196167
724.4772557,-14.8100004196167
724.4928807,-13.6400003433228
724.5085057,-11.6300001144409
724.5241307,-8.85999965667725
724.5397557,-5.67000007629395
724.5553807,-2.63000011444092
724.5710057,-0.28999999165535
724.5866307,1.00999999046326
724.6022557,1.24000000953674
724.6178807,0.560000002384186
724.6335057,-0.639999985694885
724.6491307,-1.96000003814697
724.6647557,-3.15000009536743
724.6803807,-4.21000003814697
724.6960057,-5.21000003814697
724.7116307,-6.11999988555908
724.7272557,-6.88000011444092
724.7428807,-7.44999980926514
724.7585057,-7.84999990463257
724.7741307,-8.14999961853027
724.7897557,-8.40999984741211
724.8053807,-8.5600004196167
724.8210057,-8.53999996185303
724.8366307,-8.35999965667725
724.8522557,-8.11999988555908
724.8678807,-7.96000003814697
724.8835057,-7.94999980926514
724.8991307,-8.17000007629395
724.9147557,-8.57999992370605
724.9303807,-8.98999977111816
724.9460057,-9.14000034332275
724.9616307,-8.94999980926514
724.9772557,-8.53999996185303
724.9928807,-8.02999973297119
725.0085057,-7.53000020980835
725.0241307,-7.1399998664856
725.0397557,-6.8600001335144
725.0553807,-6.63000011444092
725.0710057,-6.32000017166138
725.0866307,-5.76999998092651
725.1022557,-4.76999998092651
725.1178807,-3.21000003814697
725.1335057,-1.02999997138977
725.1491307,1.64999997615814
725.1647557,4.55000019073486
725.1803807,7.19999980926514
725.1960057,9.15999984741211
725.2116307,10.2200002670288
725.2272557,10.4799995422363
725.2428807,10.1800003051758
725.2585057,9.5600004196167
725.2741307,8.85000038146973
725.2897557,8.18000030517578
725.3053807,7.5
725.3210057,6.65999984741211
725.3366307,5.6100001335144
725.3522557,4.40000009536743
725.3678807,3.21000003814697
725.3835057,2.21000003814697
725.3991307,1.53999996185303
725.4147557,1.23000001907349
725.4303807,1.23000001907349
725.4460057,1.36000001430511
725.4616307,1.41999995708466
725.4772557,1.25
725.4928807,0.910000026226044
725.5085057,0.490000009536743
725.5241307,0.0399999991059303
725.5397557,-0.379999995231628
725.5553807,-0.709999978542328
725.5710057,-0.910000026226044
725.5866307,-1.04999995231628
725.6022557,-1.22000002861023
725.6178807,-1.41999995708466
725.6335057,-1.55999994277954
725.6491307,-1.62999999523163
725.6647557,-1.71000003814697
725.6803807,-1.85000002384186
725.6960057,-2.0
725.7116307,-1.92999994754791
725.7272557,-1.37999999523163
725.7428807,-0.150000005960464
725.7585057,1.82000005245209
725.7741307,4.34999990463257
725.7897557,7.03000020980835
725.8053807,9.39000034332275
725.8210057,11.039999961853
725.8366307,11.7799997329712
725.8522557,11.710000038147
725.8678807,11.0500001907349
725.8835057,10.039999961853
725.8991307,8.94999980926514
725.9147557,7.92999982833862
725.9303807,6.98999977111816
725.9460057,6.01000022888184
725.9616307,4.84999990463257
725.9772557,3.50999999046326
725.9928807,2.15000009536743
726.0085057,1.04999995231628
726.0241307,0.409999996423721
726.0397557,0.280000001192093
726.0553807,0.430000007152557
726.0710057,0.600000023841858
726.0866307,0.600000023841858
726.1022557,0.389999985694885
726.1178807,-0.0700000002980232
726.1335057,-0.720000028610229
726.1491307,-1.41999995708466
726.1647557,-2.04999995231628
726.1803807,-2.55999994277954
726.1960057,-2.97000002861023
726.2116307,-3.27999997138977
726.2272557,-3.54999995231628
726.2428807,-3.90000009536743
726.2585057,-4.30999994277954
726.2741307,-4.67000007629395
726.2897557,-4.78999996185303
726.3053807,-4.57000017166138
726.3210057,-4.0
726.3366307,-3.16000008583069
726.3522557,-2.10999989509583
726.3678807,-0.660000026226044
726.3835057,1.4099999666214
726.3991307,4.15000009536743
726.4147557,7.05999994277954
726.4303807,9.32999992370605
726.4460057,10.3900003433228
726.4616307,10.25
726.4772557,9.35999965667725
726.4928807,8.27999973297119
726.5085057,7.21999979019165
726.5241307,6.11999988555908
726.5397557,4.84999990463257
726.5553807,3.48000001907349
726.5710057,2.15000009536743
726.5866307,0.939999997615814
726.6022557,-0.100000001490116
726.6178807,-0.959999978542328
726.6335057,-1.54999995231628
726.6491307,-1.86000001430511
726.6647557,-1.95000004768372
726.6803807,-1.95000004768372
726.6960057,-2.0699999332428
726.7116307,-2.48000001907349
726.7272557,-3.13000011444092
726.7428807,-3.79999995231628
726.7585057,-4.26000022888184
726.7741307,-4.46999979019165
726.7897557,-4.59000015258789
726.8053807,-4.80999994277954
726.8210057,-5.15000009536743
726.8366307,-5.51999998092651
726.8522557,-5.84999990463257
726.8678807,-6.15000009536743
726.8835057,-6.42000007629395
726.8991307,-6.65000009536743
726.9147557,-6.82999992370605
726.9303807,-6.88000011444092
726.9460057,-6.59000015258789
726.9616307,-5.76000022888184
726.9772557,-4.21000003814697
726.9928807,-1.94000005722046
727.0085057,0.790000021457672
727.0241307,3.54999995231628
727.0397557,5.90999984741211
727.0553807,7.63000011444092
727.0710057,8.64999961853027
727.0866307,8.98999977111816
727.1022557,8.77999973297119
727.1178807,8.11999988555908
727.1335057,7.11999988555908
727.1491307,5.8600001335144
727.1647557,4.44999980926514
727.1803807,3.0
727.1960057,1.60000002384186
727.2116307,0.349999994039536
727.2272557,-0.610000014305115
727.2428807,-1.16999995708466
727.2585057,-1.37000000476837
727.2741307,-1.39999997615814
727.2897557,-1.48000001907349
727.3053807,-1.79999995231628
727.3210057,-2.34999990463257
727.3366307,-2.98000001907349
727.3522557,-3.5
727.3678807,-3.75
727.3835057,-3.75
727.3991307,-3.74000000953674
727.4147557,-4.01000022888184
727.4303807,-4.69000005722046
727.4460057,-5.61999988555908
727.4616307,-6.55999994277954
727.4772557,-7.28999996185303
727.4928807,-7.73999977111816
727.5085057,-7.88000011444092
727.5241307,-7.67999982833862
727.5397557,-7.07999992370605
727.5553807,-6.01999998092651
727.5710057,-4.44999980926514
727.5866307,-2.32999992370605
727.6022557,0.239999994635582
727.6178807,2.96000003814697
727.6335057,5.3600001335144
727.6491307,7.05000019073486
727.6647557,7.8600001335144
727.6803807,7.8899998664856
727.6960057,7.42999982833862
727.7116307,6.73999977111816
727.7272557,5.98000001907349
727.7428807,5.17000007629395
727.7585057,4.26999998092651
727.7741307,3.29999995231628
727.7897557,2.23000001907349
727.8053807,1.07000005245209
727.8210057,-0.0399999991059303
727.8366307,-0.970000028610229
727.8522557,-1.60000002384186
727.8678807,-1.95000004768372
727.8835057,-2.15000009536743
727.8991307,-2.32999992370605
727.9147557,-2.58999991416931
727.9303807,-2.99000000953674
727.9460057,-3.48000001907349
727.9616307,-3.84999990463257
727.9772557,-3.97000002861023
727.9928807,-3.92000007629395
728.0085057,-3.9300000667572
728.0241307,-4.17000007629395
728.0397557,-4.69000005722046
728.0553807,-5.36999988555908
728.0710057,-6.01000022888184
728.0866307,-6.44999980926514
728.1022557,-6.61999988555908
728.1178807,-6.48999977111816
728.1335057,-6.05000019073486
728.1491307,-5.17999982833862
728.1647557,-3.74000000953674
728.1803807,-1.67999994754791
728.1960057,0.779999971389771
728.2116307,3.25999999046326
728.2272557,5.36999988555908
728.2428807,6.84999990463257
728.2585057,7.57999992370605
728.2741307,7.69000005722046
728.2897557,7.48000001907349
728.3053807,7.17999982833862
728.3210057,6.84000015258789
728.3366307,6.34000015258789
728.3522557,5.59000015258789
728.3678807,4.59999990463257
728.3835057,3.5
728.3991307,2.44000005722046
728.4147557,1.57000005245209
728.4303807,0.980000019073486
728.4460057,0.649999976158142
728.4616307,0.479999989271164
728.4772557,0.349999994039536
728.4928807,0.200000002980232
728.5085057,0.0199999995529652
728.5241307,-0.129999995231628
728.5397557,-0.280000001192093
728.5553807,-0.469999998807907
728.5710057,-0.759999990463257
728.5866307,-1.1599999666214
728.6022557,-1.58000004291534
728.6178807,-1.94000005722046
728.6335057,-2.26999998092651
728.6491307,-2.63000011444092
728.6647557,-3.00999999046326
728.6803807,-3.34999990463257
728.6960057,-3.5699999332428
728.7116307,-3.59999990463257
728.7272557,-3.38000011444092
728.7428807,-2.8199999332428
728.7585057,-1.79999995231628
728.7741307,-0.239999994635582
728.7897557,1.83000004291534
728.8053807,4.21000003814697
728.8210057,6.48999977111816
728.8366307,8.23999977111816
728.8522557,9.21000003814697
728.8678807,9.34000015258789
728.8835057,8.80000019073486
728.8991307,7.84999990463257
728.9147557,6.76999998092651
728.9303807,5.71000003814697
728.9460057,4.63000011444092
728.9616307,3.4300000667572
728.9772557,2.09999990463257
728.9928807,0.800000011920929
729.0085057,-0.239999994635582
729.0241307,-0.980000019073486
729.0397557,-1.49000000953674
729.0553807,-1.86000001430511
729.0710057,-2.11999988555908
729.0866307,-2.25
729.1022557,-2.33999991416931
729.1178807,-2.58999991416931
729.1335057,-3.03999996185303
729.1491307,-3.58999991416931
729.1647557,-4.05000019073486
729.1803807,-4.38000011444092
729.1960057,-4.65999984741211
729.2116307,-5.01000022888184
729.2272557,-5.42000007629395
729.2428807,-5.71999979019165
729.2585057,-5.76999998092651
729.2741307,-5.55000019073486
729.2897557,-5.17000007629395
729.3053807,-4.71999979019165
729.3210057,-4.1100001335144
729.3366307,-3.15000009536743
729.3522557,-1.75
729.3678807,0.0
729.3835057,1.92999994754791
729.3991307,3.8199999332428
729.4147557,5.42000007629395
729.4303807,6.53999996185303
729.4460057,7.09000015258789
729.4616307,7.09000015258789
729.4772557,6.65000009536743
729.4928807,5.84999990463257
729.5085057,4.80000019073486
729.5241307,3.64000010490417
729.5397557,2.53999996185303
729.5553807,1.60000002384186
729.5710057,0.870000004768372
729.5866307,0.349999994039536
729.6022557,0.0
729.6178807,-0.259999990463257
729.6335057,-0.490000009536743
729.6491307,-0.709999978542328
729.6647557,-0.949999988079071
729.6803807,-1.20000004768372
729.6960057,-1.46000003814697
729.7116307,-1.69000005722046
729.7272557,-1.87999999523163
729.7428807,-2.01999998092651
729.7585057,-2.1800000667572
729.7741307,-2.3199999332428
729.7897557,-2.42000007629395
729.8053807,-2.55999994277954
729.8210057,-2.85999989509583
729.8366307,-3.34999990463257
729.8522557,-3.91000008583069
729.8678807,-4.34999990463257
729.8835057,-4.46999979019165
729.8991307,-4.15999984741211
729.9147557,-3.40000009536743
729.9303807,-2.1800000667572
729.9460057,-0.509999990463257
729.9616307,1.5
729.9772557,3.60999989509583
729.9928807,5.51000022888184
730.0085057,6.92999982833862
730.0241307,7.69000005722046
730.0397557,7.75
730.0553807,7.28999996185303
730.0710057,6.59999990463257
730.0866307,5.92000007629395
730.1022557,5.32999992370605
730.1178807,4.78000020980835
730.1335057,4.19000005722046
730.1491307,3.49000000953674
730.1647557,2.59999990463257
730.1803807,1.58000004291534
730.1960057,0.569999992847443
730.2116307,-0.300000011920929
730.2272557,-1.0
730.2428807,-1.52999997138977
730.2585057,-1.86000001430511
730.2741307,-2.0
730.2897557,-2.01999998092651
730.3053807,-2.03999996185303
730.3210057,-2.16000008583069
730.3366307,-2.39000010490417
730.3522557,-2.67000007629395
730.3678807,-3.03999996185303
730.3835057,-3.53999996185303
730.3991307,-4.01999998092651
730.4147557,-4.25
730.4303807,-4.19000005722046
730.4460057,-4.03999996185303
730.4616307,-4.01999998092651
730.4772557,-4.23999977111816
730.4928807,-4.63000011444092
730.5085057,-4.90999984741211
730.5241307,-4.69000005722046
730.5397557,-3.64000010490417
730.5553807,-1.77999997138977
730.5710057,0.540000021457672
730.5866307,2.83999991416931
730.6022557,4.71999979019165
730.6178807,5.98999977111816
730.6335057,6.65999984741211
730.6491307,6.82000017166138
730.6647557,6.55999994277954
730.6803807,6.01000022888184
730.6960057,5.28999996185303
730.7116307,4.5
730.7272557,3.65000009536743
730.7428807,2.6800000667572
730.7585057,1.55999994277954
730.7741307,0.409999996423721
730.7897557,-0.529999971389771
730.8053807,-1.12000000476837
730.8210057,-1.3400000333786
730.8366307,-1.30999994277954
730.8522557,-1.12999999523163
730.8678807,-0.870000004768372
730.8835057,-0.600000023841858
730.8991307,-0.439999997615814
730.9147557,-0.540000021457672
730.9303807,-0.899999976158142
730.9460057,-1.37000000476837
730.9616307,-1.83000004291534
730.9772557,-2.1800000667572
730.9928807,-2.45000004768372
731.0085057,-2.74000000953674
731.0241307,-3.1800000667572
731.0397557,-3.75999999046326
731.0553807,-4.3600001335144
731.0710057,-4.78999996185303
731.0866307,-4.92999982833862
731.1022557,-4.76999998092651
731.1178807,-4.30000019073486
731.1335057,-3.57999992370605
731.1491307,-2.61999988555908
731.1647557,-1.4099999666214
731.1803807,0.100000001490116
731.1960057,1.9099999666214
731.2116307,3.77999997138977
731.2272557,5.28999996185303
731.2428807,6.05000019073486
731.2585057,6.0
731.2741307,5.3899998664856
731.2897557,4.59000015258789
731.3053807,3.84999990463257
731.3210057,3.16000008583069
731.3366307,2.39000010490417
731.3522557,1.55999994277954
731.3678807,0.790000021457672
731.3835057,0.219999998807907
731.3991307,-0.150000005960464
731.4147557,-0.409999996423721
731.4303807,-0.680000007152557
731.4460057,-1.00999999046326
731.4616307,-1.39999997615814
731.4772557,-1.75
731.4928807,-2.0
731.5085057,-2.17000007629395
731.5241307,-2.35999989509583
731.5397557,-2.6800000667572
731.5553807,-3.10999989509583
731.5710057,-3.60999989509583
731.5866307,-4.05000019073486
731.6022557,-4.32999992370605
731.6178807,-4.40000009536743
731.6335057,-4.3600001335144
731.6491307,-4.36999988555908
731.6647557,-4.46000003814697
731.6803807,-4.59000015258789
731.6960057,-4.71000003814697
731.7116307,-4.69000005722046
731.7272557,-4.40000009536743
731.7428807,-3.69000005722046
731.7585057,-2.4300000667572
731.7741307,-0.589999973773956
731.7897557,1.63999998569489
731.8053807,3.88000011444092
731.8210057,5.71999979019165
731.8366307,6.88000011444092
731.8522557,7.30000019073486
731.8678807,7.15999984741211
731.8835057,6.69999980926514
731.8991307,6.0
731.9147557,5.03000020980835
731.9303807,3.8199999332428
731.9460057,2.54999995231628
731.9616307,1.41999995708466
731.9772557,0.449999988079071
731.9928807,-0.330000013113022
732.0085057,-0.910000026226044
732.0241307,-1.19000005722046
732.0397557,-1.20000004768372
732.0553807,-1.10000002384186
732.0710057,-1.08000004291534
732.0866307,-1.24000000953674
732.1022557,-1.51999998092651
732.1178807,-1.75999999046326
732.1335057,-1.91999995708466
732.1491307,-2.05999994277954
732.1647557,-2.33999991416931
732.1803807,-2.84999990463257
732.1960057,-3.51999998092651
732.2116307,-4.13000011444092
732.2272557,-4.53999996185303
732.2428807,-4.78000020980835
732.2585057,-5.01999998092651
732.2741307,-5.32999992370605
732.2897557,-5.6100001335144
732.3053807,-5.73000001907349
732.3210057,-5.65999984741211
732.3366307,-5.32000017166138
732.3522557,-4.51000022888184
732.3678807,-2.98000001907349
732.3835057,-0.730000019073486
732.3991307,1.89999997615814
732.4147557,4.28999996185303
732.4303807,5.84999990463257
732.4460057,6.30999994277954
732.4616307,5.88000011444092
732.4772557,5.01999998092651
732.4928807,4.19999980926514
732.5085057,3.66000008583069
732.5241307,3.35999989509583
732.5397557,3.0699999332428
732.5553807,2.58999991416931
732.5710057,1.89999997615814
732.5866307,1.1599999666214
732.6022557,0.519999980926514
732.6178807,0.109999999403954
732.6335057,-0.0199999995529652
732.6491307,0.100000001490116
732.6647557,0.400000005960464
732.6803807,0.670000016689301
732.6960057,0.709999978542328
732.7116307,0.479999989271164
732.7272557,0.109999999403954
732.7428807,-0.209999993443489
732.7585057,-0.419999986886978
732.7741307,-0.569999992847443
732.7897557,-0.759999990463257
732.8053807,-1.05999994277954
732.8210057,-1.41999995708466
732.8366307,-1.69000005722046
732.8522557,-1.6599999666214
732.8678807,-1.28999996185303
732.8835057,-0.839999973773956
732.8991307,-0.610000014305115
732.9147557,-0.689999997615814
732.9303807,-0.769999980926514
732.9460057,-0.360000014305115
732.9616307,0.910000026226044
732.9772557,3.01999998092651
732.9928807,5.53000020980835
733.0085057,7.8600001335144
733.0241307,9.52000045776367
733.0397557,10.289999961853
733.0553807,10.210000038147
733.0710057,9.5600004196167
733.0866307,8.65999984741211
733.1022557,7.76000022888184
733.1178807,6.96999979019165
733.1335057,6.21999979019165
733.1491307,5.34999990463257
733.1647557,4.25
733.1803807,2.98000001907349
733.1960057,1.69000005722046
733.2116307,0.540000021457672
733.2272557,-0.330000013113022
733.2428807,-0.810000002384186
733.2585057,-0.949999988079071
733.2741307,-0.910000026226044
733.2897557,-0.819999992847443
733.3053807,-0.720000028610229
733.3210057,-0.620000004768372
733.3366307,-0.620000004768372
733.3522557,-0.759999990463257
733.3678807,-1.00999999046326
733.3835057,-1.1599999666214
733.3991307,-1.01999998092651
733.4147557,-0.600000023841858
733.4303807,-0.109999999403954
733.4460057,0.100000001490116
733.4616307,-0.300000011920929
733.4772557,-1.41999995708466
733.4928807,-2.9300000667572
733.5085057,-4.32000017166138
733.5241307,-5.25
733.5397557,-5.71999979019165
733.5553807,-5.92999982833862
733.5710057,-5.96999979019165
733.5866307,-5.76000022888184
733.6022557,-5.05999994277954
733.6178807,-3.71000003814697
733.6335057,-1.76999998092651
733.6491307,0.409999996423721
733.6647557,2.41000008583069
733.6803807,3.84999990463257
733.6960057,4.48999977111816
733.7116307,4.30999994277954
733.7272557,3.51999998092651
733.7428807,2.41000008583069
733.7585057,1.24000000953674
733.7741307,0.230000004172325
733.7897557,-0.439999997615814
733.8053807,-0.800000011920929
733.8210057,-1.04999995231628
733.8366307,-1.47000002861023
733.8522557,-2.1800000667572
733.8678807,-3.01999998092651
733.8835057,-3.65000009536743
733.8991307,-3.80999994277954
733.9147557,-3.5
733.9303807,-2.98000001907349
733.9460057,-2.5
733.9616307,-2.25999999046326
733.9772557,-2.36999988555908
733.9928807,-2.73000001907349
734.0085057,-3.11999988555908
734.0241307,-3.39000010490417
734.0397557,-3.50999999046326
734.0553807,-3.50999999046326
734.0710057,-3.47000002861023
734.0866307,-3.47000002861023
734.1022557,-3.53999996185303
734.1178807,-3.5699999332428
734.1335057,-3.40000009536743
734.1491307,-2.94000005722046
734.1647557,-2.28999996185303
734.1803807,-1.70000004768372
734.1960057,-1.25999999046326
734.2116307,-0.769999980926514
734.2272557,0.0799999982118607
734.2428807,1.48000001907349
734.2585057,3.27999997138977
734.2741307,4.98000001907349
734.2897557,6.03000020980835
734.3053807,6.03999996185303
734.3210057,5.07999992370605
734.3366307,3.5699999332428
734.3522557,2.0699999332428
734.3678807,0.879999995231628
734.3835057,0.0299999993294477
734.3991307,-0.649999976158142
734.4147557,-1.3400000333786
734.4303807,-2.00999999046326
734.4460057,-2.54999995231628
734.4616307,-2.84999990463257
734.4772557,-2.88000011444092
734.4928807,-2.69000005722046
734.5085057,-2.40000009536743
734.5241307,-2.13000011444092
734.5397557,-1.91999995708466
734.5553807,-1.75
734.5710057,-1.62000000476837
734.5866307,-1.61000001430511
734.6022557,-1.75999999046326
734.6178807,-2.05999994277954
734.6335057,-2.49000000953674
734.6491307,-2.94000005722046
734.6647557,-3.25
734.6803807,-3.32999992370605
734.6960057,-3.21000003814697
