Time(s),Value(%)
724.0085057,-48.2400016784668
724.0241307,-42.4799995422363
724.0397557,-37.3699989318848
724.0553807,-33.1100006103516
724.0710057,-29.9899997711182
724.0866307,-28.1299991607666
724.1022557,-27.2900009155273
724.1178807,-26.9599990844727
724.1335057,-26.6200008392334
724.1491307,-25.9599990844727
724.1647557,-24.9400005340576
724.1803807,-23.7600002288818
724.1960057,-22.7199993133545
724.2116307,-22.0499992370605
724.2272557,-21.7399997711182
724.2428807,-21.3099994659424
724.2585057,-19.8999996185303
724.2741307,-16.7299995422363
724.2897557,-11.6199998855591
724.3053807,-4.88000011444092
724.3210057,3.09999990463257
724.3366307,12.4399995803833
724.3522557,23.5699996948242
724.3678807,36.560001373291
724.3835057,50.4700012207031
724.3991307,63.7599983215332
724.4147557,75.3300018310547
724.4303807,84.9599990844727
724.4460057,93.0400009155273
724.4616307,99.7900009155273
724.4772557,104.769996643066
724.4928807,107.25
724.5085057,106.930000305176
724.5241307,104.180000305176
724.5397557,99.8199996948242
724.5553807,94.6900024414063
724.5710057,89.4300003051758
724.5866307,84.4000015258789
724.6022557,79.6800003051758
724.6178807,75.0800018310547
724.6335057,70.25
724.6491307,64.8899993896484
724.6647557,58.9099998474121
724.6803807,52.310001373291
724.6960057,45.0400009155273
724.7116307,37.0099983215332
724.7272557,28.3400001525879
724.7428807,19.5799999237061
724.7585057,11.4499998092651
724.7741307,4.3600001335144
724.7897557,-1.91999995708466
724.8053807,-7.90000009536743
724.8210057,-13.75
724.8366307,-19.1399993896484
724.8522557,-23.7000007629395
724.8678807,-27.2800006866455
724.8835057,-29.9300003051758
724.8991307,-31.5100002288818
724.9147557,-31.4300003051758
724.9303807,-29.0499992370605
724.9460057,-24.2800006866455
724.9616307,-17.5699996948242
724.9772557,-9.46000003814697
724.9928807,-0.400000005960464
725.0085057,9.10999965667725
725.0241307,18.4099998474121
725.0397557,26.6000003814697
725.0553807,33.0099983215332
725.0710057,37.439998626709
725.0866307,40.0299987792969
725.1022557,40.8899993896484
725.1178807,40.1300010681152
725.1335057,38.0099983215332
725.1491307,35.0299987792969
725.1647557,31.7299995422363
725.1803807,28.3999996185303
725.1960057,25.0100002288818
725.2116307,21.3099994659424
725.2272557,17.1499996185303
725.2428807,12.4799995422363
725.2585057,7.32000017166138
725.2741307,1.69000005722046
725.2897557,-4.21999979019165
725.3053807,-10.039999961853
725.3210057,-15.3000001907349
725.3366307,-19.7600002288818
725.3522557,-23.6900005340576
725.3678807,-27.5799999237061
725.3835057,-31.6000003814697
725.3991307,-35.560001373291
725.4147557,-39.1100006103516
725.4303807,-42.0499992370605
725.4460057,-44.4199981689453
725.4616307,-46.4300003051758
725.4772557,-48.4199981689453
725.4928807,-50.6300010681152
725.5085057,-53.0499992370605
725.5241307,-55.310001373291
725.5397557,-56.7299995422363
725.5553807,-56.7000007629395
725.5710057,-55.0499992370605
725.5866307,-51.9500007629395
725.6022557,-47.5299987792969
725.6178807,-41.7700004577637
725.6335057,-34.6800003051758
725.6491307,-26.6900005340576
725.6647557,-18.7299995422363
725.6803807,-11.8800001144409
725.6960057,-6.71999979019165
725.7116307,-3.15000009536743
725.7272557,-0.660000026226044
725.7428807,1.08000004291534
725.7585057,1.9099999666214
725.7741307,1.4099999666214
725.7897557,-0.600000023841858
725.8053807,-3.89000010490417
725.8210057,-8.02999973297119
725.8366307,-12.6400003433228
725.8522557,-17.3600006103516
725.8678807,-21.7600002288818
725.8835057,-25.3999996185303
725.8991307,-28.1399993896484
725.9147557,-30.2999992370605
725.9303807,-32.4099998474121
725.9460057,-34.6800003051758
725.9616307,-36.9099998474121
725.9772557,-38.7900009155273
725.9928807,-40.1100006103516
726.0085057,-40.9500007629395
726.0241307,-41.6199989318848
726.0397557,-42.5900001525879
726.0553807,-44.2599983215332
726.0710057,-46.6599998474121
726.0866307,-49.4700012207031
726.1022557,-52.2000007629395
726.1178807,-54.4300003051758
726.1335057,-55.9300003051758
726.1491307,-56.439998626709
726.1647557,-55.5
726.1803807,-52.5299987792969
726.1960057,-47.189998626709
726.2116307,-39.7000007629395
726.2272557,-30.8899993896484
726.2428807,-21.8199996948242
726.2585057,-13.3699998855591
726.2741307,-5.92999982833862
726.2897557,0.5
726.3053807,6.03000020980835
726.3210057,10.5799999237061
726.3366307,13.9899997711182
726.3522557,16.2399997711182
726.3678807,17.5400009155273
726.3835057,18.1599998474121
726.3991307,18.3199996948242
726.4147557,18.2099990844727
726.4303807,17.9599990844727
726.4460057,17.5799999237061
726.4616307,17.0100002288818
726.4772557,16.0699996948242
726.4928807,14.7200002670288
726.5085057,13.0900001525879
726.5241307,11.5200004577637
726.5397557,10.25
726.5553807,9.36999988555908
726.5710057,8.77000045776367
726.5866307,8.13000011444092
726.6022557,7.01999998092651
726.6178807,5.09000015258789
726.6335057,2.29999995231628
726.6491307,-1.12999999523163
726.6647557,-5.01000022888184
726.6803807,-9.14000034332275
726.6960057,-13.3400001525879
726.7116307,-17.1900005340576
726.7272557,-20.0100002288818
726.7428807,-21.0300006866455
726.7585057,-19.6800003051758
726.7741307,-15.8299999237061
726.7897557,-9.85999965667725
726.8053807,-2.30999994277954
726.8210057,6.46999979019165
726.8366307,16.2299995422363
726.8522557,26.5900001525879
726.8678807,36.810001373291
726.8835057,45.9099998474121
726.8991307,53.1300010681152
726.9147557,58.2900009155273
726.9303807,61.6399993896484
726.9460057,63.439998626709
726.9616307,63.810001373291
726.9772557,62.9700012207031
726.9928807,61.2799987792969
727.0085057,59.189998626709
727.0241307,56.9700012207031
727.0397557,54.6399993896484
727.0553807,52.0400009155273
727.0710057,49.060001373291
727.0866307,45.6800003051758
727.1022557,41.9300003051758
727.1178807,37.8499984741211
727.1335057,33.5900001525879
727.1491307,29.3400001525879
727.1647557,25.3600006103516
727.1803807,21.7299995422363
727.1960057,18.25
727.2116307,14.6800003051758
727.2272557,10.9399995803833
727.2428807,7.23999977111816
727.2585057,3.8199999332428
727.2741307,0.810000002384186
727.2897557,-1.74000000953674
727.3053807,-3.83999991416931
727.3210057,-5.32999992370605
727.3366307,-6.03000020980835
727.3522557,-5.8899998664856
727.3678807,-4.82000017166138
727.3835057,-2.57999992370605
727.3991307,1.0900000333786
727.4147557,6.1100001335144
727.4303807,11.9200000762939
727.4460057,17.8299999237061
727.4616307,23.3899993896484
727.4772557,28.5300006866455
727.4928807,33.25
727.5085057,37.189998626709
727.5241307,39.810001373291
727.5397557,40.8300018310547
727.5553807,40.4799995422363
727.5710057,39.2999992370605
727.5866307,37.6699981689453
727.6022557,35.5999984741211
727.6178807,32.8499984741211
727.6335057,29.25
727.6491307,24.9200000762939
727.6647557,20.1000003814697
727.6803807,15.0500001907349
727.6960057,10.0100002288818
727.7116307,5.19999980926514
727.7272557,0.800000011920929
727.7428807,-3.20000004768372
727.7585057,-7.05999994277954
727.7741307,-11.0699996948242
727.7897557,-15.289999961853
727.8053807,-19.8899993896484
727.8210057,-24.3299999237061
727.8366307,-28.4099998474121
727.8522557,-32.0800018310547
727.8678807,-35.4799995422363
727.8835057,-38.8499984741211
727.8991307,-42.3899993896484
727.9147557,-46.0800018310547
727.9303807,-49.4799995422363
727.9460057,-51.7900009155273
727.9616307,-52.2099990844727
727.9772557,-50.5400009155273
727.9928807,-47.0900001525879
728.0085057,-42.2400016784668
728.0241307,-36.0900001525879
728.0397557,-28.5200004577637
728.0553807,-19.7399997711182
728.0710057,-10.710000038147
728.0866307,-2.75
728.1022557,3.24000000953674
728.1178807,7.23999977111816
728.1335057,9.8100004196167
728.1491307,11.4399995803833
728.1647557,12.0900001525879
728.1803807,11.4099998474121
728.1960057,9.19999980926514
728.2116307,5.71000003814697
728.2272557,1.42999994754791
728.2428807,-3.14000010490417
728.2585057,-7.65999984741211
728.2741307,-11.8699998855591
728.2897557,-15.6899995803833
728.3053807,-19.2399997711182
728.3210057,-22.8600006103516
728.3366307,-26.8600006103516
728.3522557,-31.2299995422363
728.3678807,-35.6699981689453
728.3835057,-39.7799987792969
728.3991307,-43.3400001525879
728.4147557,-46.3800010681152
728.4303807,-49.2299995422363
728.4460057,-52.4300003051758
728.4616307,-56.4599990844727
728.4772557,-61.3699989318848
728.4928807,-66.6500015258789
728.5085057,-71.4599990844727
728.5241307,-75.0899963378906
728.5397557,-77.2099990844727
728.5553807,-77.7099990844727
728.5710057,-76.3499984741211
728.5866307,-72.5699996948242
728.6022557,-65.870002746582
728.6178807,-56.3199996948242
728.6335057,-44.9500007629395
728.6491307,-33.2900009155273
728.6647557,-22.6599998474121
728.6803807,-13.6199998855591
728.6960057,-6.09999990463257
728.7116307,0.0799999982118607
728.7272557,4.80000019073486
728.7428807,7.73000001907349
728.7585057,8.86999988555908
728.7741307,8.64999961853027
728.7897557,7.75
728.8053807,6.92999982833862
728.8210057,6.34999990463257
728.8366307,5.90000009536743
728.8522557,5.09000015258789
728.8678807,3.35999989509583
728.8835057,0.5
728.8991307,-3.39000010490417
728.9147557,-8.13000011444092
728.9303807,-13.539999961853
728.9460057,-19.3799991607666
728.9616307,-25.1900005340576
728.9772557,-30.4300003051758
728.9928807,-34.8899993896484
729.0085057,-38.9099998474121
729.0241307,-43.0200004577637
729.0397557,-47.3899993896484
729.0553807,-51.6599998474121
729.0710057,-55.3400001525879
729.0866307,-58.2000007629395
729.1022557,-60.2200012207031
729.1178807,-61.3899993896484
729.1335057,-61.3600006103516
729.1491307,-59.2900009155273
729.1647557,-54.189998626709
729.1803807,-45.5499992370605
729.1960057,-33.7900009155273
729.2116307,-20.0
729.2272557,-5.23000001907349
729.2428807,9.84000015258789
729.2585057,24.7600002288818
729.2741307,38.6800003051758
729.2897557,50.3600006103516
729.3053807,58.5999984741211
729.3210057,63.0400009155273
729.3366307,64.120002746582
729.3522557,62.6800003051758
729.3678807,59.5200004577637
729.3835057,55.3800010681152
729.3991307,50.9000015258789
729.4147557,46.5
729.4303807,42.3400001525879
729.4460057,38.3199996948242
729.4616307,34.2099990844727
729.4772557,29.8600006103516
729.4928807,25.0599994659424
729.5085057,19.4699993133545
729.5241307,12.8100004196167
729.5397557,5.17999982833862
729.5553807,-2.82999992370605
729.5710057,-10.4099998474121
729.5866307,-17.0900001525879
729.6022557,-23.1700000762939
729.6178807,-29.2199993133545
729.6335057,-35.2999992370605
729.6491307,-40.9000015258789
729.6647557,-45.4500007629395
729.6803807,-48.7400016784668
729.6960057,-50.8300018310547
729.7116307,-51.3699989318848
729.7272557,-49.2700004577637
729.7428807,-43.3800010681152
729.7585057,-33.5800018310547
729.7741307,-21.0499992370605
729.7897557,-7.63000011444092
729.8053807,5.15000009536743
729.8210057,16.5799999237061
729.8366307,26.6000003814697
729.8522557,35.6100006103516
729.8678807,44.1100006103516
729.8835057,52.3899993896484
729.8991307,60.4099998474121
729.9147557,67.8099975585938
729.9303807,74.2399978637695
729.9460057,79.4499969482422
729.9616307,83.0899963378906
729.9772557,84.4599990844727
729.9928807,82.8399963378906
730.0085057,78.0299987792969
730.0241307,70.7600021362305
730.0397557,62.3499984741211
730.0553807,53.9700012207031
730.0710057,46.0
730.0866307,38.0900001525879
730.1022557,29.8400001525879
730.1178807,21.2800006866455
730.1335057,12.8699998855591
730.1491307,4.92000007629395
730.1647557,-2.8199999332428
730.1803807,-10.8199996948242
730.1960057,-19.0
730.2116307,-26.75
730.2272557,-33.3800010681152
730.2428807,-38.6399993896484
730.2585057,-42.6599998474121
730.2741307,-45.5699996948242
730.2897557,-47.1300010681152
730.3053807,-47.0099983215332
730.3210057,-45.0400009155273
730.3366307,-41.1100006103516
730.3522557,-34.7700004577637
730.3678807,-25.6299991607666
730.3835057,-13.9300003051758
730.3991307,-0.620000004768372
730.4147557,13.0500001907349
730.4303807,26.2999992370605
730.4460057,38.8699989318848
730.4616307,50.4700012207031
730.4772557,60.2400016784668
730.4928807,67.0800018310547
730.5085057,70.5800018310547
730.5241307,71.3399963378906
730.5397557,70.5199966430664
730.5553807,68.9000015258789
730.5710057,66.3600006103516
730.5866307,62.3199996948242
730.6022557,56.4199981689453
730.6178807,48.7999992370605
730.6335057,39.8899993896484
730.6491307,30.1299991607666
730.6647557,20.0400009155273
730.6803807,10.3199996948242
730.6960057,1.74000000953674
730.7116307,-5.42000007629395
730.7272557,-11.6800003051758
730.7428807,-17.8500003814697
730.7585057,-24.2600002288818
730.7741307,-30.5699996948242
730.7897557,-36.1800003051758
730.8053807,-40.810001373291
730.8210057,-44.4799995422363
730.8366307,-47.6399993896484
730.8522557,-50.9799995422363
730.8678807,-54.9900016784668
730.8835057,-59.7099990844727
730.8991307,-64.4000015258789
730.9147557,-67.7799987792969
730.9303807,-68.7099990844727
730.9460057,-66.8099975585938
730.9616307,-62.2799987792969
730.9772557,-55.1800003051758
730.9928807,-45.1199989318848
731.0085057,-31.6299991607666
731.0241307,-15.0500001907349
731.0397557,2.91000008583069
731.0553807,19.9300003051758
731.0710057,34.2900009155273
731.0866307,45.5800018310547
731.1022557,54.4000015258789
731.1178807,61.3499984741211
731.1335057,66.3300018310547
731.1491307,68.8600006103516
731.1647557,68.75
731.1803807,66.4499969482422
731.1960057,62.7400016784668
731.2116307,58.3899993896484
731.2272557,53.9300003051758
731.2428807,49.6399993896484
731.2585057,45.5699996948242
731.2741307,41.4599990844727
731.2897557,36.8300018310547
731.3053807,31.3899993896484
731.3210057,25.3099994659424
731.3366307,19.1700000762939
731.3522557,13.5799999237061
731.3678807,8.8100004196167
731.3835057,4.75
731.3991307,0.829999983310699
731.4147557,-3.79999995231628
731.4303807,-9.86999988555908
731.4460057,-17.5
731.4616307,-26.2800006866455
731.4772557,-35.6399993896484
731.4928807,-45.1800003051758
731.5085057,-54.4599990844727
731.5241307,-62.7200012207031
731.5397557,-68.6399993896484
731.5553807,-70.6600036621094
731.5710057,-67.620002746582
731.5866307,-59.3300018310547
731.6022557,-46.7200012207031
731.6178807,-31.2000007629395
731.6335057,-13.9399995803833
731.6491307,4.28000020980835
731.6647557,22.7800006866455
731.6803807,40.4099998474121
731.6960057,55.5800018310547
731.7116307,66.9499969482422
731.7272557,74.129997253418
731.7428807,77.629997253418
731.7585057,78.1999969482422
731.7741307,76.5199966430664
731.7897557,73.2600021362305
731.8053807,69.0800018310547
731.8210057,64.6800003051758
731.8366307,60.3199996948242
731.8522557,55.810001373291
731.8678807,50.810001373291
731.8835057,45.1100006103516
731.8991307,38.5900001525879
731.9147557,31.1299991607666
731.9303807,22.6200008392334
731.9460057,13.2600002288818
731.9616307,3.73000001907349
731.9772557,-5.03999996185303
731.9928807,-12.6499996185303
732.0085057,-19.4899997711182
732.0241307,-26.3199996948242
732.0397557,-33.3499984741211
732.0553807,-40.0699996948242
732.0710057,-45.8400001525879
732.0866307,-50.3600006103516
732.1022557,-53.6599998474121
732.1178807,-55.7700004577637
732.1335057,-56.2799987792969
732.1491307,-54.7299995422363
732.1647557,-51.0
732.1803807,-45.189998626709
732.1960057,-37.2599983215332
732.2116307,-27.1299991607666
732.2272557,-15.1599998474121
732.2428807,-2.23000001907349
732.2585057,10.5299997329712
732.2741307,22.3999996185303
732.2897557,33.1100006103516
732.3053807,42.4900016784668
732.3210057,49.9799995422363
732.3366307,54.8600006103516
732.3522557,56.9500007629395
732.3678807,56.8600006103516
732.3835057,55.5400009155273
732.3991307,53.6500015258789
732.4147557,51.0699996948242
732.4303807,47.310001373291
732.4460057,42.0400009155273
732.4616307,35.3600006103516
732.4772557,27.5100002288818
732.4928807,18.7700004577637
732.5085057,9.5600004196167
732.5241307,0.569999992847443
732.5397557,-7.44000005722046
732.5553807,-14.1499996185303
732.5710057,-19.9799995422363
732.5866307,-25.7000007629395
732.6022557,-31.5900001525879
732.6178807,-37.3199996948242
732.6335057,-42.3400001525879
732.6491307,-46.3400001525879
732.6647557,-49.4300003051758
732.6803807,-52.0
732.6960057,-54.560001373291
732.7116307,-57.5
732.7272557,-60.7799987792969
732.7428807,-63.7400016784668
732.7585057,-65.1100006103516
732.7741307,-63.7900009155273
732.7897557,-59.5
732.8053807,-52.6800003051758
732.8210057,-43.689998626709
732.8366307,-32.5699996948242
732.8522557,-19.1900005340576
732.8678807,-4.07999992370605
732.8835057,11.1599998474121
732.8991307,24.5699996948242
732.9147557,34.8899993896484
732.9303807,42.1800003051758
732.9460057,47.2999992370605
732.9616307,51.0099983215332
732.9772557,53.2299995422363
732.9928807,53.439998626709
733.0085057,51.3800010681152
733.0241307,47.3300018310547
733.0397557,41.9000015258789
733.0553807,35.6800003051758
733.0710057,29.2299995422363
733.0866307,23.0
733.1022557,17.3700008392334
733.1178807,12.3599996566772
733.1335057,7.53999996185303
733.1491307,2.4300000667572
733.1647557,-2.99000000953674
733.1803807,-8.32999992370605
733.1960057,-13.0500001907349
733.2116307,-16.9200000762939
733.2272557,-20.0499992370605
733.2428807,-22.8899993896484
733.2585057,-26.0599994659424
733.2741307,-30.0599994659424
733.2897557,-34.9500007629395
733.3053807,-40.4500007629395
733.3210057,-46.1300010681152
733.3366307,-51.689998626709
733.3522557,-56.8300018310547
733.3678807,-61.0699996948242
733.3835057,-63.5
733.3991307,-63.0400009155273
733.4147557,-58.9000015258789
733.4303807,-51.0800018310547
733.4460057,-40.4599990844727
733.4616307,-28.4400005340576
733.4772557,-16.4099998474121
733.4928807,-5.26999998092651
733.5085057,4.59000015258789
733.5241307,13.1099996566772
733.5397557,20.1800003051758
733.5553807,25.6900005340576
733.5710057,29.7199993133545
733.5866307,32.4599990844727
733.6022557,34.0699996948242
733.6178807,34.6800003051758
733.6335057,34.4199981689453
733.6491307,33.4300003051758
733.6647557,31.7000007629395
733.6803807,29.0100002288818
733.6960057,25.1000003814697
733.7116307,20.0100002288818
733.7272557,14.3599996566772
733.7428807,9.01000022888184
733.7585057,4.6100001335144
733.7741307,1.33000004291534
733.7897557,-1.1599999666214
733.8053807,-3.5699999332428
733.8210057,-6.73999977111816
733.8366307,-11.3100004196167
733.8522557,-17.3600006103516
733.8678807,-24.7000007629395
733.8835057,-33.2400016784668
733.8991307,-43.0
733.9147557,-53.6500015258789
733.9303807,-64.1800003051758
733.9460057,-72.9899978637695
733.9616307,-78.7099990844727
733.9772557,-80.9899978637695
733.9928807,-80.3199996948242
734.0085057,-77.3099975585938
734.0241307,-72.2300033569336
734.0397557,-65.0800018310547
734.0553807,-55.9900016784668
734.0710057,-45.5
734.0866307,-34.4000015258789
734.1022557,-23.4599990844727
734.1178807,-13.1499996185303
734.1335057,-3.65000009536743
734.1491307,4.8600001335144
734.1647557,12.0699996948242
734.1803807,17.6200008392334
734.1960057,21.4899997711182
734.2116307,24.1000003814697
734.2272557,25.9699993133545
734.2428807,27.3299999237061
734.2585057,27.8700008392334
734.2741307,27.0799999237061
734.2897557,24.75
734.3053807,20.9400005340576
734.3210057,15.789999961853
734.3366307,9.42000007629395
734.3522557,2.21000003814697
734.3678807,-5.03000020980835
734.3835057,-11.2700004577637
734.3991307,-15.9300003051758
734.4147557,-19.4099998474121
734.4303807,-22.5799999237061
734.4460057,-25.8500003814697
734.4616307,-28.8899993896484
734.4772557,-31.1900005340576
734.4928807,-32.4599990844727
734.5085057,-32.8600006103516
734.5241307,-32.9199981689453
734.5397557,-33.2999992370605
734.5553807,-34.4900016784668
734.5710057,-36.5200004577637
734.5866307,-38.8899993896484
734.6022557,-40.7299995422363
734.6178807,-41.310001373291
734.6335057,-40.3199996948242
734.6491307,-37.5999984741211
734.6647557,-32.7599983215332
734.6803807,-25.3099994659424
734.6960057,-15.25
734.7116307,-3.40000009536743
734.7272557,8.75
734.7428807,19.7700004577637
734.7585057,28.8700008392334
734.7741307,36.0900001525879
