Time(s),Value(%)
1017.0065617,-28.3500003814697
1017.0221867,-30.8700008392334
1017.0378117,-33.4300003051758
1017.0534367,-36.2200012207031
1017.0690617,-39.2000007629395
1017.0846867,-42.1500015258789
1017.1003117,-44.8300018310547
1017.1159367,-47.1500015258789
1017.1315617,-49.1300010681152
1017.1471867,-50.8499984741211
1017.1628117,-52.2599983215332
1017.1784367,-52.8300018310547
1017.1940617,-51.4000015258789
1017.2096867,-46.9199981689453
1017.2253117,-39.2000007629395
1017.2409367,-28.7800006866455
1017.2565617,-16.3500003814697
1017.2721867,-2.4300000667572
1017.2878117,12.2600002288818
1017.3034367,26.3899993896484
1017.3190617,38.0699996948242
1017.3346867,45.8699989318848
1017.3503117,49.8600006103516
1017.3659367,51.1599998474121
1017.3815617,50.7799987792969
1017.3971867,49.1500015258789
1017.4128117,46.4000015258789
1017.4284367,42.7799987792969
1017.4440617,38.6699981689453
1017.4596867,34.3699989318848
1017.4753117,29.9699993133545
1017.4909367,25.3799991607666
1017.5065617,20.5200004577637
1017.5221867,15.4499998092651
1017.5378117,10.3400001525879
1017.5534367,5.32000017166138
1017.5690617,0.509999990463257
1017.5846867,-4.11999988555908
1017.6003117,-8.82999992370605
1017.6159367,-13.9300003051758
1017.6315617,-19.7199993133545
1017.6471867,-26.2299995422363
1017.6628117,-33.189998626709
1017.6784367,-40.0800018310547
1017.6940617,-46.4500007629395
1017.7096867,-52.0800018310547
1017.7253117,-56.9900016784668
1017.7409367,-61.4300003051758
1017.7565617,-65.7699966430664
1017.7721867,-70.3300018310547
1017.7878117,-75.1800003051758
1017.8034367,-80.2200012207031
1017.8190617,-85.3600006103516
1017.8346867,-90.5100021362305
1017.8503117,-95.5299987792969
1017.8659367,-100.029998779297
1017.8815617,-103.309997558594
1017.8971867,-104.550003051758
1017.9128117,-103.120002746582
1017.9284367,-98.8600006103516
1017.9440617,-92.1800003051758
1017.9596867,-83.9199981689453
1017.9753117,-75.0299987792969
1017.9909367,-66.3099975585938
1018.0065617,-58.1300010681152
1018.0221867,-50.4700012207031
1018.0378117,-42.9700012207031
1018.0534367,-35.2299995422363
1018.0690617,-27.0900001525879
1018.0846867,-18.6299991607666
1018.1003117,-10.0500001907349
1018.1159367,-1.52999997138977
1018.1315617,6.69999980926514
1018.1471867,14.1700000762939
1018.1628117,20.0499992370605
1018.1784367,23.5799999237061
1018.1940617,24.6200008392334
1018.2096867,23.6599998474121
1018.2253117,21.5900001525879
1018.2409367,19.1800003051758
1018.2565617,16.9599990844727
1018.2721867,15.1400003433228
1018.2878117,13.6599998474121
1018.3034367,12.2299995422363
1018.3190617,10.3900003433228
1018.3346867,7.78999996185303
1018.3503117,4.32000017166138
1018.3659367,0.0599999986588955
1018.3815617,-5.03999996185303
1018.3971867,-11.0799999237061
1018.4128117,-17.8799991607666
1018.4284367,-24.7999992370605
1018.4440617,-30.9400005340576
1018.4596867,-35.8899993896484
1018.4753117,-40.1500015258789
1018.4909367,-44.560001373291
1018.5065617,-49.3600006103516
1018.5221867,-54.0200004577637
1018.5378117,-57.7900009155273
1018.5534367,-60.2599983215332
1018.5690617,-61.5699996948242
1018.5846867,-62.3600006103516
1018.6003117,-63.4900016784668
1018.6159367,-65.6399993896484
1018.6315617,-68.9599990844727
1018.6471867,-73.1399993896484
1018.6628117,-77.7399978637695
1018.6784367,-82.4499969482422
1018.6940617,-86.9100036621094
1018.7096867,-90.2699966430664
1018.7253117,-91.1500015258789
1018.7409367,-88.4499969482422
1018.7565617,-82.2900009155273
1018.7721867,-73.9100036621094
1018.7878117,-64.7900009155273
1018.8034367,-56.1399993896484
1018.8190617,-48.8600006103516
1018.8346867,-43.4300003051758
1018.8503117,-39.689998626709
1018.8659367,-36.8699989318848
1018.8815617,-34.0
1018.8971867,-30.5699996948242
1018.9128117,-26.8899993896484
1018.9284367,-23.5799999237061
1018.9440617,-20.7000007629395
1018.9596867,-17.6599998474121
1018.9753117,-13.8400001525879
1018.9909367,-9.01000022888184
1019.0065617,-3.45000004768372
1019.0221867,2.22000002861023
1019.0378117,7.32999992370605
1019.0534367,11.3999996185303
1019.0690617,14.3400001525879
1019.0846867,16.1700000762939
1019.1003117,16.75
1019.1159367,15.8800001144409
1019.1315617,13.7600002288818
1019.1471867,11.3699998855591
1019.1628117,10.2399997711182
1019.1784367,11.4499998092651
1019.1940617,14.7799997329712
1019.2096867,19.1499996185303
1019.2253117,23.7600002288818
1019.2409367,28.5400009155273
1019.2565617,33.7700004577637
1019.2721867,39.5900001525879
1019.2878117,45.8300018310547
1019.3034367,52.0400009155273
1019.3190617,57.6300010681152
1019.3346867,62.1800003051758
1019.3503117,65.6399993896484
1019.3659367,68.2799987792969
1019.3815617,70.5100021362305
1019.3971867,72.6600036621094
1019.4128117,74.9899978637695
1019.4284367,77.9599990844727
1019.4440617,82.4300003051758
1019.4596867,89.1900024414063
1019.4753117,98.3499984741211
1019.4909367,109.099998474121
1019.5065617,120.389999389648
1019.5221867,131.199996948242
1019.5378117,140.960006713867
1019.5534367,149.570007324219
1019.5690617,157.199996948242
1019.5846867,163.929992675781
1019.6003117,169.610000610352
1019.6159367,173.979995727539
1019.6315617,176.919998168945
1019.6471867,178.529998779297
1019.6628117,178.860000610352
1019.6784367,178.009994506836
1019.6940617,176.190002441406
1019.7096867,173.899993896484
1019.7253117,171.779998779297
1019.7409367,170.169998168945
1019.7565617,168.820007324219
1019.7721867,167.270004272461
1019.7878117,165.339996337891
1019.8034367,163.320007324219
1019.8190617,161.589996337891
1019.8346867,160.309997558594
1019.8503117,159.339996337891
1019.8659367,158.289993286133
1019.8815617,156.600006103516
1019.8971867,153.860000610352
1019.9128117,149.990005493164
1019.9284367,145.039993286133
1019.9440617,138.990005493164
1019.9596867,131.740005493164
1019.9753117,123.519996643066
1019.9909367,115.139999389648
1020.0065617,107.830001831055
1020.0221867,102.48999786377
1020.0378117,99.0299987792969
1020.0534367,96.6600036621094
1020.0690617,94.7900009155273
1020.0846867,93.3000030517578
1020.1003117,92.3199996948242
1020.1159367,91.870002746582
1020.1315617,91.8399963378906
1020.1471867,92.379997253418
1020.1628117,94.0199966430664
1020.1784367,97.3899993896484
1020.1940617,102.589996337891
1020.2096867,109.129997253418
1020.2253117,116.319999694824
1020.2409367,123.580001831055
1020.2565617,130.460006713867
1020.2721867,136.539993286133
1020.2878117,141.369995117188
1020.3034367,144.669998168945
1020.3190617,146.559997558594
1020.3346867,147.410003662109
1020.3503117,147.479995727539
1020.3659367,146.809997558594
1020.3815617,145.419998168945
1020.3971867,143.389999389648
1020.4128117,140.860000610352
1020.4284367,137.970001220703
1020.4440617,134.779998779297
1020.4596867,131.259994506836
1020.4753117,127.379997253418
1020.4909367,123.099998474121
1020.5065617,118.330001831055
1020.5221867,113.0
1020.5378117,107.169998168945
1020.5534367,100.959999084473
1020.5690617,94.5100021362305
1020.5846867,87.7900009155273
1020.6003117,80.629997253418
1020.6159367,72.9300003051758
1020.6315617,64.870002746582
1020.6471867,56.8499984741211
1020.6628117,49.25
1020.6784367,42.2200012207031
1020.6940617,35.6500015258789
1020.7096867,29.2000007629395
1020.7253117,22.3400001525879
1020.7409367,14.6899995803833
1020.7565617,6.21000003814697
1020.7721867,-2.75999999046326
1020.7878117,-11.7399997711182
1020.8034367,-20.3199996948242
1020.8190617,-28.2600002288818
1020.8346867,-35.2700004577637
1020.8503117,-40.8400001525879
1020.8659367,-44.3800010681152
1020.8815617,-45.6199989318848
1020.8971867,-44.7999992370605
1020.9128117,-42.6300010681152
1020.9284367,-40.0299987792969
1020.9440617,-37.7000007629395
1020.9596867,-36.0099983215332
1020.9753117,-34.9500007629395
1020.9909367,-34.3300018310547
1021.0065617,-33.9199981689453
1021.0221867,-33.5900001525879
1021.0378117,-33.310001373291
1021.0534367,-33.1500015258789
1021.0690617,-33.2200012207031
1021.0846867,-33.5999984741211
1021.1003117,-34.3300018310547
1021.1159367,-35.5299987792969
1021.1315617,-37.4199981689453
1021.1471867,-40.3300018310547
1021.1628117,-44.4199981689453
1021.1784367,-49.5699996948242
1021.1940617,-55.4199981689453
1021.2096867,-61.75
1021.2253117,-68.8300018310547
1021.2409367,-77.1100006103516
1021.2565617,-86.6600036621094
1021.2721867,-96.9599990844727
1021.2878117,-107.23999786377
1021.3034367,-117.48999786377
1021.3190617,-128.869995117188
1021.3346867,-142.669998168945
1021.3503117,-158.770004272461
1021.3659367,-175.559997558594
1021.3815617,-191.119995117188
1021.3971867,-204.270004272461
1021.4128117,-215.059997558594
1021.4284367,-224.869995117188
1021.4440617,-236.009994506836
1021.4596867,-250.399993896484
1021.4753117,-268.579986572266
1021.4909367,-287.670013427734
1021.5065617,-309.630004882813
1021.5221867,-327.679992675781
1021.5378117,-327.679992675781
1021.5534367,-327.679992675781
1021.5690617,-327.679992675781
1021.5846867,-327.679992675781
1021.6003117,-327.679992675781
1021.6159367,-327.679992675781
1021.6315617,-327.679992675781
1021.6471867,-327.679992675781
1021.6628117,-327.679992675781
1021.6784367,-327.679992675781
1021.6940617,-327.679992675781
1021.7096867,-327.679992675781
1021.7253117,-327.679992675781
1021.7409367,-327.679992675781
1021.7565617,-327.679992675781
1021.7721867,-327.679992675781
1021.7878117,-327.679992675781
1021.8034367,-327.679992675781
1021.8190617,-327.679992675781
1021.8346867,-327.679992675781
1021.8503117,-327.679992675781
1021.8659367,-327.679992675781
1021.8815617,-327.679992675781
1021.8971867,-321.309997558594
1021.9128117,-297.619995117188
1021.9284367,-271.369995117188
1021.9440617,-243.600006103516
1021.9596867,-215.240005493164
1021.9753117,-187.229995727539
1021.9909367,-160.380004882813
1022.0065617,-135.279998779297
1022.0221867,-112.180000305176
1022.0378117,-90.9800033569336
1022.0534367,-71.4400024414063
1022.0690617,-53.4500007629395
1022.0846867,-37.0299987792969
1022.1003117,-22.0200004577637
1022.1159367,-7.80000019073486
1022.1315617,6.63000011444092
1022.1471867,22.0900001525879
1022.1628117,38.560001373291
1022.1784367,55.4700012207031
1022.1940617,72.1999969482422
1022.2096867,88.4899978637695
1022.2253117,104.279998779297
1022.2409367,119.540000915527
1022.2565617,134.240005493164
1022.2721867,148.529998779297
1022.2878117,162.860000610352
1022.3034367,177.660003662109
1022.3190617,193.080001831055
1022.3346867,209.020004272461
1022.3503117,225.460006713867
1022.3659367,242.429992675781
1022.3815617,259.679992675781
1022.3971867,276.540008544922
1022.4128117,292.170013427734
1022.4284367,306.130004882813
1022.4440617,318.75
1022.4596867,327.670013427734
1022.4753117,327.670013427734
1022.4909367,327.670013427734
1022.5065617,327.670013427734
1022.5221867,327.670013427734
1022.5378117,327.670013427734
1022.5534367,327.670013427734
1022.5690617,327.670013427734
1022.5846867,327.670013427734
1022.6003117,327.670013427734
1022.6159367,327.670013427734
1022.6315617,327.670013427734
1022.6471867,327.670013427734
1022.6628117,327.670013427734
1022.6784367,327.670013427734
1022.6940617,325.970001220703
1022.7096867,320.880004882813
1022.7253117,313.910003662109
1022.7409367,305.619995117188
1022.7565617,296.649993896484
1022.7721867,287.390014648438
1022.7878117,277.980010986328
1022.8034367,268.510009765625
1022.8190617,259.019989013672
1022.8346867,249.570007324219
1022.8503117,240.220001220703
1022.8659367,230.979995727539
1022.8815617,221.880004882813
1022.8971867,212.919998168945
1022.9128117,204.160003662109
1022.9284367,195.660003662109
1022.9440617,187.380004882813
1022.9596867,179.210006713867
1022.9753117,170.970001220703
1022.9909367,162.660003662109
1023.0065617,154.619995117188
1023.0221867,147.309997558594
1023.0378117,140.910003662109
1023.0534367,135.199996948242
1023.0690617,129.759994506836
1023.0846867,124.220001220703
1023.1003117,118.440002441406
1023.1159367,112.620002746582
1023.1315617,107.25
1023.1471867,102.800003051758
1023.1628117,99.4300003051758
1023.1784367,97.0299987792969
1023.1940617,95.4700012207031
1023.2096867,94.6500015258789
1023.2253117,94.3099975585938
1023.2409367,93.7200012207031
1023.2565617,91.7799987792969
1023.2721867,87.6999969482422
1023.2878117,81.5699996948242
1023.3034367,74.1699981689453
1023.3190617,66.2300033569336
1023.3346867,58.060001373291
1023.3503117,49.7000007629395
1023.3659367,41.1500015258789
1023.3815617,32.4799995422363
1023.3971867,23.8299999237061
1023.4128117,15.289999961853
1023.4284367,6.92000007629395
1023.4440617,-1.24000000953674
1023.4596867,-9.10000038146973
1023.4753117,-16.4300003051758
1023.4909367,-22.4599990844727
1023.5065617,-27.5100002288818
1023.5221867,-31.9500007629395
1023.5378117,-36.2999992370605
1023.5534367,-40.9000015258789
1023.5690617,-45.7200012207031
1023.5846867,-50.4700012207031
1023.6003117,-54.939998626709
1023.6159367,-59.0299987792969
1023.6315617,-62.6199989318848
1023.6471867,-65.5899963378906
1023.6628117,-67.9199981689453
1023.6784367,-69.8300018310547
1023.6940617,-71.6399993896484
1023.7096867,-73.4400024414063
1023.7253117,-74.9000015258789
1023.7409367,-75.6100006103516
1023.7565617,-75.5100021362305
1023.7721867,-74.9899978637695
1023.7878117,-74.5299987792969
1023.8034367,-74.4599990844727
1023.8190617,-74.7799987792969
1023.8346867,-75.1999969482422
1023.8503117,-75.2300033569336
1023.8659367,-74.4800033569336
1023.8815617,-72.8600006103516
1023.8971867,-70.4499969482422
1023.9128117,-67.3000030517578
1023.9284367,-63.4199981689453
1023.9440617,-59.0299987792969
1023.9596867,-54.7900009155273
1023.9753117,-51.7299995422363
1023.9909367,-50.5699996948242
1024.0065617,-51.2000007629395
1024.0221867,-52.8699989318848
1024.0378117,-54.9500007629395
1024.0534367,-57.2000007629395
1024.0690617,-59.6399993896484
1024.0846867,-62.310001373291
1024.1003117,-65.129997253418
1024.1159367,-67.9800033569336
1024.1315617,-70.7699966430664
1024.1471867,-73.4400024414063
1024.1628117,-75.9800033569336
1024.1784367,-78.3199996948242
1024.1940617,-80.3499984741211
1024.2096867,-81.9599990844727
1024.2253117,-83.1399993896484
1024.2409367,-84.129997253418
1024.2565617,-85.3499984741211
1024.2721867,-87.120002746582
1024.2878117,-89.4700012207031
1024.3034367,-92.129997253418
1024.3190617,-94.8300018310547
1024.3346867,-97.4000015258789
1024.3503117,-99.8000030517578
1024.3659367,-102.019996643066
1024.3815617,-104.029998779297
1024.3971867,-105.73999786377
1024.4128117,-106.959999084473
1024.4284367,-107.5
1024.4440617,-107.319999694824
1024.4596867,-106.410003662109
1024.4753117,-104.660003662109
1024.4909367,-100.139999389648
1024.5065617,-95.0299987792969
1024.5221867,-89.7699966430664
1024.5378117,-84.9400024414063
1024.5534367,-80.9000015258789
1024.5690617,-77.5800018310547
1024.5846867,-74.6600036621094
1024.6003117,-72.0299987792969
1024.6159367,-69.8000030517578
1024.6315617,-68.1100006103516
1024.6471867,-66.9300003051758
1024.6628117,-66.0599975585938
1024.6784367,-65.2699966430664
1024.6940617,-64.4000015258789
1024.7096867,-63.3600006103516
1024.7253117,-62.1699981689453
1024.7409367,-60.8499984741211
1024.7565617,-59.3699989318848
1024.7721867,-57.689998626709
1024.7878117,-55.8199996948242
1024.8034367,-53.9599990844727
1024.8190617,-52.3899993896484
1024.8346867,-51.3800010681152
1024.8503117,-50.9700012207031
1024.8659367,-50.9700012207031
1024.8815617,-51.1699981689453
1024.8971867,-51.4199981689453
1024.9128117,-51.6399993896484
1024.9284367,-51.7799987792969
1024.9440617,-51.8300018310547
1024.9596867,-51.75
1024.9753117,-51.5299987792969
1024.9909367,-51.1399993896484
1025.0065617,-50.5900001525879
1025.0221867,-49.8699989318848
1025.0378117,-48.9900016784668
1025.0534367,-47.9099998474121
1025.0690617,-46.6699981689453
1025.0846867,-45.3300018310547
1025.1003117,-43.9900016784668
1025.1159367,-42.6199989318848
1025.1315617,-41.0499992370605
1025.1471867,-39.060001373291
1025.1628117,-36.6100006103516
1025.1784367,-33.8600006103516
1025.1940617,-31.0400009155273
1025.2096867,-28.3500003814697
1025.2253117,-25.8600006103516
1025.2409367,-23.4799995422363
1025.2565617,-21.0
1025.2721867,-18.2399997711182
1025.2878117,-15.1300001144409
1025.3034367,-11.7200002670288
1025.3190617,-8.03999996185303
1025.3346867,-4.13000011444092
1025.3503117,-0.100000001490116
1025.3659367,3.74000000953674
1025.3815617,6.96999979019165
1025.3971867,9.21000003814697
1025.4128117,10.539999961853
1025.4284367,11.3199996948242
1025.4440617,11.8800001144409
1025.4596867,12.3800001144409
1025.4753117,12.8199996948242
1025.4909367,13.289999961853
1025.5065617,13.6700000762939
1025.5221867,13.9899997711182
1025.5378117,14.3199996948242
1025.5534367,14.6999998092651
1025.5690617,15.1499996185303
1025.5846867,15.6499996185303
1025.6003117,16.1800003051758
1025.6159367,16.7199993133545
1025.6315617,17.2399997711182
1025.6471867,17.7199993133545
1025.6628117,18.0699996948242
1025.6784367,18.2399997711182
1025.6940617,18.2199993133545
1025.7096867,18.0799999237061
1025.7253117,17.8999996185303
1025.7409367,17.7800006866455
1025.7565617,17.7299995422363
1025.7721867,17.7199993133545
1025.7878117,17.6299991607666
1025.8034367,17.3999996185303
1025.8190617,17.1000003814697
1025.8346867,16.8999996185303
1025.8503117,16.9500007629395
1025.8659367,17.3400001525879
1025.8815617,18.1800003051758
1025.8971867,19.5100002288818
1025.9128117,21.2399997711182
1025.9284367,23.1399993896484
1025.9440617,24.9300003051758
1025.9596867,26.3999996185303
1025.9753117,27.5400009155273
1025.9909367,28.4500007629395
1026.0065617,29.1499996185303
1026.0221867,29.5799999237061
1026.0378117,29.6900005340576
1026.0534367,29.5400009155273
1026.0690617,29.25
1026.0846867,28.8899993896484
1026.1003117,28.4699993133545
1026.1159367,27.9099998474121
1026.1315617,27.1499996185303
1026.1471867,26.2000007629395
1026.1628117,25.1399993896484
1026.1784367,24.0699996948242
1026.1940617,23.0699996948242
1026.2096867,22.1900005340576
1026.2253117,21.4300003051758
1026.2409367,20.7199993133545
1026.2565617,19.9699993133545
1026.2721867,19.1100006103516
1026.2878117,18.1100006103516
1026.3034367,16.9899997711182
1026.3190617,15.789999961853
1026.3346867,14.5
1026.3503117,13.1700000762939
1026.3659367,11.8999996185303
1026.3815617,10.8500003814697
1026.3971867,10.1000003814697
1026.4128117,9.61999988555908
1026.4284367,9.27999973297119
1026.4440617,9.0
1026.4596867,8.78999996185303
1026.4753117,8.69999980926514
1026.4909367,9.03999996185303
1026.5065617,9.52000045776367
1026.5221867,10.2299995422363
1026.5378117,11.3599996566772
1026.5534367,13.1300001144409
1026.5690617,15.5799999237061
1026.5846867,18.5400009155273
1026.6003117,21.7199993133545
1026.6159367,24.8299999237061
1026.6315617,27.7399997711182
1026.6471867,30.4599990844727
1026.6628117,33.1699981689453
1026.6784367,36.0299987792969
1026.6940617,39.1399993896484
1026.7096867,42.439998626709
1026.7253117,45.8800010681152
1026.7409367,49.3899993896484
1026.7565617,52.8699989318848
1026.7721867,56.0900001525879
1026.7878117,58.7000007629395
1026.8034367,60.3899993896484
1026.8190617,61.1100006103516
1026.8346867,61.0800018310547
1026.8503117,60.5999984741211
1026.8659367,59.8699989318848
1026.8815617,58.9900016784668
1026.8971867,57.9599990844727
1026.9128117,56.810001373291
1026.9284367,55.560001373291
1026.9440617,54.2200012207031
1026.9596867,52.810001373291
1026.9753117,51.2799987792969
1026.9909367,49.6199989318848
1027.0065617,47.9000015258789
1027.0221867,46.2299995422363
1027.0378117,44.689998626709
1027.0534367,43.310001373291
1027.0690617,42.060001373291
1027.0846867,40.8499984741211
1027.1003117,39.5900001525879
1027.1159367,38.2099990844727
1027.1315617,36.689998626709
1027.1471867,35.1399993896484
1027.1628117,33.6800003051758
1027.1784367,32.4099998474121
1027.1940617,31.3999996185303
1027.2096867,30.6499996185303
1027.2253117,30.2099990844727
1027.2409367,30.2399997711182
1027.2565617,30.9599990844727
1027.2721867,32.4500007629395
1027.2878117,34.560001373291
1027.3034367,36.9199981689453
1027.3190617,39.1699981689453
