Time(s),Value(%)
9.0017972,14.7700004577637
9.0174222,14.9700002670288
9.0330472,14.3100004196167
9.0486722,12.960000038147
9.0642972,11.2200002670288
9.0799222,9.4399995803833
9.0955472,7.80999994277954
9.1111722,6.42999982833862
9.1267972,5.23000001907349
9.1424222,4.1100001335144
9.1580472,2.94000005722046
9.1736722,1.62999999523163
9.1892972,0.180000007152557
9.2049222,-1.32000005245209
9.2205472,-2.79999995231628
9.2361722,-4.17000007629395
9.2517972,-5.40000009536743
9.2674222,-6.51999998092651
9.2830472,-7.55999994277954
9.2986722,-8.56999969482422
9.3142972,-9.56999969482422
9.3299222,-10.6199998855591
9.3455472,-11.789999961853
9.3611722,-13.1599998474121
9.3767972,-14.710000038147
9.3924222,-16.2700004577637
9.4080472,-17.5900001525879
9.4236722,-18.4799995422363
9.4392972,-18.9799995422363
9.4549222,-19.2900009155273
9.4705472,-19.4899997711182
9.4861722,-19.5400009155273
9.5017972,-19.2600002288818
9.5174222,-18.5200004577637
9.5330472,-17.3400001525879
9.5486722,-15.8100004196167
9.5642972,-13.9899997711182
9.5799222,-11.8199996948242
9.5955472,-9.13000011444092
9.6111722,-5.8899998664856
9.6267972,-2.26999998092651
9.6424222,1.41999995708466
9.6580472,4.94999980926514
9.6736722,8.27999973297119
9.6892972,11.4200000762939
9.7049222,14.3299999237061
9.7205472,16.7700004577637
9.7361722,18.5100002288818
9.7517972,19.3999996185303
9.7674222,19.5200004577637
9.7830472,19.0400009155273
9.7986722,18.1399993896484
9.8142972,17.0300006866455
9.8299222,15.8500003814697
9.8455472,14.7200002670288
9.8611722,13.6599998474121
9.8767972,12.6300001144409
9.8924222,11.5799999237061
9.9080472,10.4799995422363
9.9236722,9.28999996185303
9.9392972,7.98999977111816
9.9549222,6.55999994277954
9.9705472,5.01999998092651
9.9861722,3.48000001907349
10.0017972,2.08999991416931
10.0174222,0.920000016689301
10.0330472,-0.0700000002980232
10.0486722,-1.05999994277954
10.0642972,-2.08999991416931
10.0799222,-3.09999990463257
10.0955472,-4.01000022888184
10.1111722,-4.73999977111816
10.1267972,-5.30000019073486
10.1424222,-5.75
10.1580472,-6.15999984741211
10.1736722,-6.55000019073486
10.1892972,-6.96000003814697
10.2049222,-7.34999990463257
10.2205472,-7.71999979019165
10.2361722,-8.02999973297119
10.2517972,-8.28999996185303
10.2674222,-8.48999977111816
10.2830472,-8.61999988555908
10.2986722,-8.6899995803833
10.3142972,-8.68000030517578
10.3299222,-8.47999954223633
10.3455472,-7.8899998664856
10.3611722,-6.71999979019165
10.3767972,-4.94999980926514
10.3924222,-2.70000004768372
10.4080472,-0.140000000596046
10.4236722,2.70000004768372
10.4392972,5.90000009536743
10.4549222,9.46000003814697
10.4705472,13.0900001525879
10.4861722,16.3999996185303
10.5017972,19.1299991607666
10.5174222,21.2999992370605
10.5330472,23.0799999237061
10.5486722,24.5699996948242
10.5642972,25.6700000762939
10.5799222,26.2000007629395
10.5955472,26.0400009155273
10.6111722,25.2199993133545
10.6267972,23.9400005340576
10.6424222,22.3999996185303
10.6580472,20.7900009155273
10.6736722,19.2299995422363
10.6892972,17.7800006866455
10.7049222,16.4200000762939
10.7205472,15.1099996566772
10.7361722,13.8199996948242
10.7517972,12.5299997329712
10.7674222,11.1999998092651
10.7830472,9.80000019073486
10.7986722,8.30000019073486
10.8142972,6.71999979019165
10.8299222,5.13000011444092
10.8455472,3.64000010490417
10.8611722,2.30999994277954
10.8767972,1.03999996185303
10.8924222,-0.28999999165535
10.9080472,-1.74000000953674
10.9236722,-3.22000002861023
10.9392972,-4.6100001335144
10.9549222,-5.82000017166138
10.9705472,-6.8600001335144
10.9861722,-7.92999982833862
11.0017972,-9.32999992370605
11.0174222,-11.3500003814697
11.0330472,-14.0100002288818
11.0486722,-17.0100002288818
11.0642972,-19.8799991607666
11.0799222,-22.1700000762939
11.0955472,-23.7000007629395
11.1111722,-24.3700008392334
11.1267972,-23.9799995422363
11.1424222,-22.0
11.1580472,-17.7099990844727
11.1736722,-10.75
11.1892972,-1.63999998569489
11.2049222,8.43000030517578
11.2205472,18.1900005340576
11.2361722,26.8400001525879
11.2517972,34.1599998474121
11.2674222,40.2700004577637
11.2830472,45.3300018310547
11.2986722,49.4099998474121
11.3142972,52.6100006103516
11.3299222,55.0900001525879
11.3455472,57.0
11.3611722,58.4900016784668
11.3767972,59.5800018310547
11.3924222,60.0800018310547
11.4080472,59.4099998474121
11.4236722,56.9900016784668
11.4392972,52.6399993896484
11.4549222,46.7700004577637
11.4705472,40.189998626709
11.4861722,33.7299995422363
11.5017972,27.9200000762939
11.5174222,22.8700008392334
11.5330472,18.4300003051758
11.5486722,14.4200000762939
11.5642972,10.8199996948242
11.5799222,7.69000005722046
11.5955472,5.05000019073486
11.6111722,2.65000009536743
11.6267972,-0.0199999995529652
11.6424222,-3.45000004768372
11.6580472,-7.76999998092651
11.6736722,-12.7200002670288
11.6892972,-17.8600006103516
11.7049222,-22.7700004577637
11.7205472,-27.1499996185303
11.7361722,-30.7700004577637
11.7517972,-33.3499984741211
11.7674222,-34.7299995422363
11.7830472,-35.0299987792969
11.7986722,-34.6100006103516
11.8142972,-33.9500007629395
11.8299222,-33.3899993896484
11.8455472,-33.0900001525879
11.8611722,-32.9199981689453
11.8767972,-32.5499992370605
11.8924222,-31.6499996185303
11.9080472,-30.0599994659424
11.9236722,-27.9200000762939
11.9392972,-25.5200004577637
11.9549222,-23.1599998474121
11.9705472,-21.0100002288818
11.9861722,-19.0699996948242
12.0017972,-17.1900005340576
12.0174222,-15.1999998092651
12.0330472,-13.0200004577637
12.0486722,-10.6599998474121
12.0642972,-8.13000011444092
12.0799222,-5.46000003814697
12.0955472,-2.75
12.1111722,-0.25
12.1267972,1.62999999523163
12.1424222,2.52999997138977
12.1580472,2.40000009536743
12.1736722,1.42999994754791
12.1892972,-0.0399999991059303
12.2049222,-1.75
12.2205472,-3.5
12.2361722,-5.17999982833862
12.2517972,-6.75
12.2674222,-8.17000007629395
12.2830472,-9.39000034332275
12.2986722,-10.3599996566772
12.3142972,-11.0900001525879
12.3299222,-11.6499996185303
12.3455472,-12.1899995803833
12.3611722,-12.8000001907349
12.3767972,-13.539999961853
12.3924222,-14.3900003433228
12.4080472,-15.3400001525879
12.4236722,-16.3899993896484
12.4392972,-17.5100002288818
12.4549222,-18.6499996185303
12.4705472,-19.7199993133545
12.4861722,-20.6000003814697
12.5017972,-21.2700004577637
12.5174222,-21.75
12.5330472,-22.0900001525879
12.5486722,-22.3700008392334
12.5642972,-22.6100006103516
12.5799222,-22.8199996948242
12.5955472,-22.9500007629395
12.6111722,-22.8299999237061
12.6267972,-22.0900001525879
12.6424222,-20.4400005340576
12.6580472,-17.8400001525879
12.6736722,-14.6000003814697
12.6892972,-11.1199998855591
12.7049222,-7.67999982833862
12.7205472,-4.26999998092651
12.7361722,-0.889999985694885
12.7517972,2.22000002861023
12.7674222,4.69999980926514
12.7830472,6.28999996185303
12.7986722,7.05000019073486
12.8142972,7.28999996185303
12.8299222,7.19999980926514
12.8455472,6.76999998092651
12.8611722,5.84999990463257
12.8767972,4.3600001335144
12.8924222,2.36999988555908
12.9080472,0.0700000002980232
12.9236722,-2.36999988555908
12.9392972,-4.80999994277954
12.9549222,-7.11999988555908
12.9705472,-9.19999980926514
12.9861722,-11.0699996948242
13.0017972,-12.8000001907349
13.0174222,-14.5200004577637
13.0330472,-16.2099990844727
13.0486722,-17.7700004577637
13.0642972,-19.0900001525879
13.0799222,-20.1399993896484
13.0955472,-20.9400005340576
13.1111722,-21.6000003814697
13.1267972,-22.2000007629395
13.1424222,-22.7900009155273
13.1580472,-23.3999996185303
13.1736722,-24.0300006866455
13.1892972,-24.7600002288818
13.2049222,-25.6700000762939
13.2205472,-26.7399997711182
13.2361722,-27.8199996948242
13.2517972,-28.6499996185303
13.2674222,-28.8500003814697
13.2830472,-28.0400009155273
13.2986722,-25.9599990844727
13.3142972,-22.6599998474121
13.3299222,-18.4799995422363
13.3455472,-13.9300003051758
13.3611722,-9.46000003814697
13.3767972,-5.30000019073486
13.3924222,-1.33000004291534
13.4080472,2.88000011444092
13.4236722,7.82999992370605
13.4392972,13.6599998474121
13.4549222,20.1900005340576
13.4705472,27.1499996185303
13.4861722,34.2999992370605
13.5017972,41.3499984741211
13.5174222,47.7400016784668
13.5330472,52.5699996948242
13.5486722,55.060001373291
13.5642972,55.0200004577637
13.5799222,52.8899993896484
13.5955472,49.4099998474121
13.6111722,45.25
13.6267972,40.9199981689453
13.6424222,36.7000007629395
13.6580472,32.689998626709
13.6736722,28.6599998474121
13.6892972,24.1000003814697
13.7049222,18.5300006866455
13.7205472,11.8800001144409
13.7361722,4.46000003814697
13.7517972,-3.25999999046326
13.7674222,-10.8999996185303
13.7830472,-18.1399993896484
13.7986722,-24.6000003814697
13.8142972,-29.7199993133545
13.8299222,-33.1199989318848
13.8455472,-34.9799995422363
13.8611722,-35.9000015258789
13.8767972,-36.4700012207031
13.8924222,-36.9900016784668
13.9080472,-37.4799995422363
13.9236722,-37.8600006103516
13.9392972,-38.060001373291
13.9549222,-38.0900001525879
13.9705472,-38.060001373291
13.9861722,-38.0999984741211
14.0017972,-38.2599983215332
14.0174222,-38.5299987792969
14.0330472,-38.8899993896484
14.0486722,-39.3300018310547
14.0642972,-39.7799987792969
14.0799222,-40.0200004577637
14.0955472,-39.7299995422363
14.1111722,-38.5400009155273
14.1267972,-36.2799987792969
14.1424222,-33.0400009155273
14.1580472,-29.0200004577637
14.1736722,-24.1499996185303
14.1892972,-17.8500003814697
14.2049222,-9.53999996185303
14.2205472,0.769999980926514
14.2361722,12.3000001907349
14.2517972,23.8600006103516
14.2674222,34.5900001525879
14.2830472,44.2700004577637
14.2986722,52.8499984741211
14.3142972,59.9199981689453
14.3299222,64.8199996948242
14.3455472,67.2900009155273
14.3611722,67.7699966430664
14.3767972,67.1800003051758
14.3924222,66.5400009155273
14.4080472,66.75
14.4236722,68.2300033569336
14.4392972,70.9199981689453
14.4549222,74.4899978637695
14.4705472,78.7300033569336
14.4861722,83.5999984741211
14.5017972,88.9100036621094
14.5174222,94.0100021362305
14.5330472,97.7699966430664
14.5486722,99.0199966430664
14.5642972,97.0699996948242
14.5799222,91.9300003051758
14.5955472,84.1100006103516
14.6111722,74.4599990844727
14.6267972,63.939998626709
14.6424222,53.4199981689453
14.6580472,42.9599990844727
14.6736722,30.2900009155273
14.6892972,10.4399995803833
14.7049222,-21.2600002288818
14.7205472,-65.6399993896484
14.7361722,-119.580001831055
14.7517972,-178.699996948242
14.7674222,-239.360000610352
14.7830472,-298.420013427734
14.7986722,-327.679992675781
14.8142972,-327.679992675781
14.8299222,-327.679992675781
14.8455472,-327.679992675781
14.8611722,-327.679992675781
14.8767972,-327.679992675781
14.8924222,-327.679992675781
14.9080472,-327.679992675781
14.9236722,-299.700012207031
14.9392972,-271.429992675781
14.9549222,-244.289993286133
14.9705472,-217.779998779297
14.9861722,-191.25
15.0017972,-164.410003662109
15.0174222,-137.470001220703
15.0330472,-110.849998474121
15.0486722,-84.9599990844727
15.0642972,-60.1599998474121
15.0799222,-36.9500007629395
15.0955472,-16.1100006103516
15.1111722,1.52999997138977
15.1267972,15.4799995422363
15.1424222,25.8600006103516
15.1580472,33.3800010681152
15.1736722,39.0800018310547
15.1892972,43.9500007629395
15.2049222,48.6699981689453
15.2205472,53.6800003051758
15.2361722,59.5900001525879
15.2517972,67.5100021362305
15.2674222,78.4300003051758
15.2830472,92.4100036621094
15.2986722,108.419998168945
15.3142972,125.0
15.3299222,140.949996948242
15.3455472,155.509994506836
15.3611722,168.139999389648
15.3767972,178.229995727539
15.3924222,185.309997558594
15.4080472,189.490005493164
15.4236722,191.479995727539
15.4392972,192.160003662109
15.4549222,192.220001220703
15.4705472,192.039993286133
15.4861722,191.729995727539
15.5017972,191.289993286133
15.5174222,190.639999389648
15.5330472,189.75
15.5486722,188.600006103516
15.5642972,187.259994506836
15.5799222,185.869995117188
15.5955472,184.679992675781
15.6111722,183.919998168945
15.6267972,183.610000610352
15.6424222,183.550003051758
15.6580472,183.449996948242
15.6736722,183.190002441406
15.6892972,182.949996948242
15.7049222,182.910003662109
15.7205472,182.970001220703
15.7361722,180.720001220703
15.7517972,178.0
15.7674222,174.710006713867
15.7830472,170.860000610352
15.7986722,166.179992675781
15.8142972,159.929992675781
15.8299222,151.360000610352
15.8455472,140.419998168945
15.8611722,127.870002746582
15.8767972,114.76000213623
15.8924222,101.980003356934
15.9080472,90.0899963378906
15.9236722,79.5199966430664
15.9392972,70.7799987792969
15.9549222,64.3399963378906
15.9705472,60.2000007629395
15.9861722,57.9199981689453
16.0017972,56.810001373291
16.0174222,56.1800003051758
16.0330472,55.5900001525879
16.0486722,54.7799987792969
16.0642972,53.7299995422363
16.0799222,52.5200004577637
16.0955472,51.3300018310547
16.1111722,50.2599983215332
16.1267972,49.3499984741211
16.1424222,48.6100006103516
16.1580472,48.0900001525879
16.1736722,47.8499984741211
16.1892972,47.8300018310547
16.2049222,47.810001373291
16.2205472,47.4900016784668
16.2361722,46.7400016784668
16.2517972,45.810001373291
16.2674222,45.1100006103516
16.2830472,44.8400001525879
16.2986722,44.9300003051758
16.3142972,45.3300018310547
16.3299222,46.0499992370605
16.3455472,47.0299987792969
16.3611722,47.9500007629395
16.3767972,48.2400016784668
16.3924222,47.3400001525879
16.4080472,44.9700012207031
16.4236722,41.189998626709
16.4392972,36.2200012207031
16.4549222,30.3500003814697
16.4705472,23.9400005340576
16.4861722,17.3799991607666
16.5017972,10.9399995803833
16.5174222,4.69000005722046
16.5330472,-1.55999994277954
16.5486722,-8.10000038146973
16.5642972,-15.0299997329712
16.5799222,-22.2800006866455
16.5955472,-29.7299995422363
16.6111722,-37.2200012207031
16.6267972,-44.5999984741211
16.6424222,-51.5400009155273
16.6580472,-57.5900001525879
16.6736722,-62.4099998474121
16.6892972,-66.0599975585938
16.7049222,-68.870002746582
16.7205472,-71.1999969482422
16.7361722,-72.0800018310547
16.7517972,-72.7300033569336
16.7674222,-73.1800003051758
16.7830472,-73.4300003051758
16.7986722,-73.3899993896484
16.8142972,-72.8600006103516
16.8299222,-71.6399993896484
16.8455472,-69.7699966430664
16.8611722,-67.6900024414063
16.8767972,-66.0599975585938
16.8924222,-65.4700012207031
16.9080472,-66.0599975585938
16.9236722,-67.5999984741211
16.9392972,-69.7300033569336
16.9549222,-72.3499984741211
16.9705472,-75.629997253418
16.9861722,-79.6699981689453
17.0017972,-84.0899963378906
17.0174222,-88.1699981689453
17.0330472,-91.3300018310547
17.0486722,-93.4100036621094
17.0642972,-94.5500030517578
17.0799222,-94.8000030517578
17.0955472,-93.8099975585938
17.1111722,-91.1500015258789
17.1267972,-86.75
17.1424222,-80.9899978637695
17.1580472,-74.4100036621094
17.1736722,-67.4700012207031
17.1892972,-60.560001373291
17.2049222,-54.0299987792969
17.2205472,-48.2400016784668
17.2361722,-43.4799995422363
17.2517972,-39.8400001525879
17.2674222,-37.2299995422363
17.2830472,-35.5499992370605
17.2986722,-34.6800003051758
17.3142972,-34.4199981689453
17.3299222,-34.5099983215332
17.3455472,-34.7000007629395
17.3611722,-34.8499984741211
17.3767972,-34.9300003051758
17.3924222,-35.0400009155273
17.4080472,-35.2200012207031
17.4236722,-35.4500007629395
17.4392972,-35.6199989318848
17.4549222,-35.6100006103516
17.4705472,-35.3400001525879
17.4861722,-34.810001373291
17.5017972,-33.9599990844727
17.5174222,-32.7299995422363
17.5330472,-31.0400009155273
17.5486722,-28.9200000762939
17.5642972,-26.5499992370605
17.5799222,-24.1700000762939
17.5955472,-22.0100002288818
17.6111722,-20.1299991607666
17.6267972,-18.4899997711182
17.6424222,-16.9899997711182
17.6580472,-15.5100002288818
17.6736722,-13.9899997711182
17.6892972,-12.4399995803833
17.7049222,-10.960000038147
17.7205472,-9.69999980926514
17.7361722,-8.61999988555908
17.7517972,-7.98000001907349
17.7674222,-7.69999980926514
17.7830472,-7.76000022888184
17.7986722,-8.07999992370605
17.8142972,-8.5
17.8299222,-8.77999973297119
17.8455472,-8.6899995803833
17.8611722,-8.14000034332275
17.8767972,-7.21000003814697
17.8924222,-6.09000015258789
17.9080472,-4.96000003814697
17.9236722,-3.96000003814697
17.9392972,-3.11999988555908
17.9549222,-2.40000009536743
17.9705472,-1.75
17.9861722,-1.10000002384186
18.0017972,-0.419999986886978
18.0174222,0.319999992847443
18.0330472,1.12000000476837
18.0486722,1.88999998569489
18.0642972,2.49000000953674
18.0799222,2.82999992370605
18.0955472,2.86999988555908
18.1111722,2.66000008583069
18.1267972,2.28999996185303
18.1424222,1.8400000333786
18.1580472,1.37000000476837
18.1736722,0.910000026226044
18.1892972,0.5
18.2049222,0.140000000596046
18.2205472,-0.150000005960464
18.2361722,-0.370000004768372
18.2517972,-0.529999971389771
18.2674222,-0.629999995231628
18.2830472,-0.689999997615814
18.2986722,-0.730000019073486
18.3142972,-0.759999990463257
18.3299222,-0.779999971389771
18.3455472,-0.800000011920929
18.3611722,-0.790000021457672
18.3767972,-0.720000028610229
18.3924222,-0.550000011920929
18.4080472,-0.259999990463257
18.4236722,0.0900000035762787
18.4392972,0.469999998807907
18.4549222,0.839999973773956
18.4705472,1.16999995708466
18.4861722,1.53999996185303
18.5017972,2.0699999332428
18.5174222,2.91000008583069
18.5330472,4.05999994277954
18.5486722,5.46999979019165
18.5642972,7.05999994277954
18.5799222,8.76000022888184
18.5955472,10.5
18.6111722,12.1099996566772
18.6267972,13.3900003433228
18.6424222,14.1499996185303
18.6580472,14.4099998474121
18.6736722,14.3400001525879
18.6892972,14.0799999237061
18.7049222,13.710000038147
18.7205472,13.2700004577637
18.7361722,13.0600004196167
18.7517972,12.7600002288818
18.7674222,12.4200000762939
18.7830472,12.0500001907349
18.7986722,11.6700000762939
18.8142972,11.2799997329712
18.8299222,10.8900003433228
18.8455472,10.5200004577637
18.8611722,10.1800003051758
18.8767972,9.86999988555908
18.8924222,9.53999996185303
18.9080472,9.13000011444092
18.9236722,8.57999992370605
18.9392972,7.86999988555908
18.9549222,7.05999994277954
18.9705472,6.21000003814697
18.9861722,5.40000009536743
19.0017972,4.65000009536743
19.0174222,4.0
19.0330472,3.42000007629395
19.0486722,2.90000009536743
19.0642972,2.40000009536743
19.0799222,1.94000005722046
19.0955472,1.55999994277954
19.1111722,1.36000001430511
19.1267972,1.33000004291534
19.1424222,1.41999995708466
19.1580472,1.53999996185303
19.1736722,1.62000000476837
19.1892972,1.64999997615814
19.2049222,1.72000002861023
19.2205472,1.98000001907349
19.2361722,2.57999992370605
19.2517972,3.5699999332428
19.2674222,4.88000011444092
19.2830472,6.3899998664856
19.2986722,8.05000019073486
19.3142972,9.75
19.3299222,11.3100004196167
19.3455472,12.4499998092651
19.3611722,12.9399995803833
19.3767972,12.8100004196167
19.3924222,12.25
19.4080472,11.4700002670288
19.4236722,10.6000003814697
19.4392972,9.68000030517578
19.4549222,8.73999977111816
19.4705472,7.80000019073486
19.4861722,6.90999984741211
19.5017972,6.15000009536743
19.5174222,5.59000015258789
19.5330472,5.23999977111816
19.5486722,5.07999992370605
19.5642972,5.05000019073486
19.5799222,5.13000011444092
19.5955472,5.26999998092651
19.6111722,5.36999988555908
19.6267972,5.28000020980835
19.6424222,4.8899998664856
19.6580472,4.25
19.6736722,3.49000000953674
19.6892972,2.74000000953674
19.7049222,2.04999995231628
19.7205472,1.39999997615814
19.7361722,0.779999971389771
19.7517972,0.119999997317791
19.7674222,-0.569999992847443
19.7830472,-1.29999995231628
19.7986722,-2.0699999332428
19.8142972,-2.84999990463257
19.8299222,-3.55999994277954
19.8455472,-4.09000015258789
19.8611722,-4.28999996185303
19.8767972,-4.15999984741211
19.8924222,-3.80999994277954
19.9080472,-3.41000008583069
19.9236722,-3.0699999332428
19.9392972,-2.67000007629395
19.9549222,-2.05999994277954
19.9705472,-1.20000004768372
19.9861722,-0.280000001192093
20.0017972,0.5
20.0174222,1.04999995231628
20.0330472,1.36000001430511
20.0486722,1.58000004291534
20.0642972,1.89999997615814
20.0799222,2.46000003814697
20.0955472,3.29999995231628
20.1111722,4.36999988555908
20.1267972,5.59999990463257
20.1424222,6.96000003814697
