Time(s),Value(%)
981.006776,0.769999980926514
981.022401,1.00999999046326
981.038026,1.05999994277954
981.053651,0.959999978542328
981.069276,0.769999980926514
981.084901,0.560000002384186
981.100526,0.349999994039536
981.116151,0.170000001788139
981.131776,0.0199999995529652
981.147401,-0.0900000035762787
981.163026,-0.189999997615814
981.178651,-0.300000011920929
981.194276,-0.419999986886978
981.209901,-0.550000011920929
981.225526,-0.639999985694885
981.241151,-0.670000016689301
981.256776,-0.620000004768372
981.272401,-0.560000002384186
981.288026,-0.490000009536743
981.303651,-0.419999986886978
981.319276,-0.330000013113022
981.334901,-0.209999993443489
981.350526,-0.0900000035762787
981.366151,-0.0099999997764825
981.381776,0.0099999997764825
981.397401,0.0199999995529652
981.413026,0.0099999997764825
981.428651,-0.0199999995529652
981.444276,-0.0799999982118607
981.459901,-0.100000001490116
981.475526,0.0
981.491151,0.219999998807907
981.506776,0.490000009536743
981.522401,0.720000028610229
981.538026,0.819999992847443
981.553651,0.790000021457672
981.569276,0.670000016689301
981.584901,0.550000011920929
981.600526,0.490000009536743
981.616151,0.529999971389771
981.631776,0.620000004768372
981.647401,0.649999976158142
981.663026,0.610000014305115
981.678651,0.509999990463257
981.694276,0.360000014305115
981.709901,0.140000000596046
981.725526,-0.109999999403954
981.741151,-0.379999995231628
981.756776,-0.589999973773956
981.772401,-0.670000016689301
981.788026,-0.629999995231628
981.803651,-0.540000021457672
981.819276,-0.490000009536743
981.834901,-0.579999983310699
981.850526,-0.879999995231628
981.866151,-1.32000005245209
981.881776,-1.69000005722046
981.897401,-1.77999997138977
981.913026,-1.51999998092651
981.928651,-1.0
981.944276,-0.409999996423721
981.959901,0.0900000035762787
981.975526,0.469999998807907
981.991151,0.740000009536743
982.006776,0.939999997615814
982.022401,1.08000004291534
982.038026,1.16999995708466
982.053651,1.21000003814697
982.069276,1.19000005722046
982.084901,1.0900000333786
982.100526,0.920000016689301
982.116151,0.689999997615814
982.131776,0.400000005960464
982.147401,0.100000001490116
982.163026,-0.0900000035762787
982.178651,-0.170000001788139
982.194276,-0.209999993443489
982.209901,-0.28999999165535
982.225526,-0.379999995231628
982.241151,-0.449999988079071
982.256776,-0.449999988079071
982.272401,-0.419999986886978
982.288026,-0.370000004768372
982.303651,-0.319999992847443
982.319276,-0.310000002384186
982.334901,-0.370000004768372
982.350526,-0.540000021457672
982.366151,-0.790000021457672
982.381776,-1.04999995231628
982.397401,-1.24000000953674
982.413026,-1.25999999046326
982.428651,-1.00999999046326
982.444276,-0.509999990463257
982.459901,0.109999999403954
982.475526,0.660000026226044
982.491151,0.980000019073486
982.506776,1.05999994277954
982.522401,1.0
982.538026,0.879999995231628
982.553651,0.730000019073486
982.569276,0.560000002384186
982.584901,0.360000014305115
982.600526,0.189999997615814
982.616151,0.0500000007450581
982.631776,-0.0399999991059303
982.647401,-0.119999997317791
982.663026,-0.25
982.678651,-0.430000007152557
982.694276,-0.639999985694885
982.709901,-0.850000023841858
982.725526,-1.00999999046326
982.741151,-1.10000002384186
982.756776,-1.10000002384186
982.772401,-1.00999999046326
982.788026,-0.870000004768372
982.803651,-0.649999976158142
982.819276,-0.389999985694885
982.834901,-0.150000005960464
982.850526,-0.0299999993294477
982.866151,-0.0900000035762787
982.881776,-0.330000013113022
982.897401,-0.660000026226044
982.913026,-0.930000007152557
982.928651,-0.980000019073486
982.944276,-0.759999990463257
982.959901,-0.319999992847443
982.975526,0.180000007152557
982.991151,0.610000014305115
983.006776,0.870000004768372
983.022401,0.959999978542328
983.038026,0.899999976158142
983.053651,0.740000009536743
983.069276,0.550000011920929
983.084901,0.360000014305115
983.100526,0.200000002980232
983.116151,0.0599999986588955
983.131776,-0.0299999993294477
983.147401,-0.0700000002980232
983.163026,-0.0700000002980232
983.178651,-0.0399999991059303
983.194276,-0.0399999991059303
983.209901,-0.129999995231628
983.225526,-0.28999999165535
983.241151,-0.430000007152557
983.256776,-0.469999998807907
983.272401,-0.349999994039536
983.288026,-0.119999997317791
983.303651,0.109999999403954
983.319276,0.239999994635582
983.334901,0.219999998807907
983.350526,0.0700000002980232
983.366151,-0.0799999982118607
983.381776,-0.159999996423721
983.397401,-0.100000001490116
983.413026,0.0199999995529652
983.428651,0.180000007152557
983.444276,0.349999994039536
983.459901,0.560000002384186
983.475526,0.790000021457672
983.491151,0.970000028610229
983.506776,1.02999997138977
983.522401,0.949999988079071
983.538026,0.800000011920929
983.553651,0.639999985694885
983.569276,0.519999980926514
983.584901,0.449999988079071
983.600526,0.419999986886978
983.616151,0.430000007152557
983.631776,0.419999986886978
983.647401,0.319999992847443
983.663026,0.0700000002980232
983.678651,-0.28999999165535
983.694276,-0.720000028610229
983.709901,-1.0900000333786
983.725526,-1.36000001430511
983.741151,-1.52999997138977
983.756776,-1.60000002384186
983.772401,-1.55999994277954
983.788026,-1.44000005722046
983.803651,-1.27999997138977
983.819276,-1.14999997615814
983.834901,-1.10000002384186
983.850526,-1.17999994754791
983.866151,-1.39999997615814
983.881776,-1.63999998569489
983.897401,-1.74000000953674
983.913026,-1.54999995231628
983.928651,-1.00999999046326
983.944276,-0.189999997615814
983.959901,0.709999978542328
983.975526,1.48000001907349
983.991151,1.94000005722046
984.006776,2.0
984.022401,1.70000004768372
984.038026,1.24000000953674
984.053651,0.839999973773956
984.069276,0.610000014305115
984.084901,0.5
984.100526,0.360000014305115
984.116151,0.129999995231628
984.131776,-0.129999995231628
984.147401,-0.330000013113022
984.163026,-0.370000004768372
984.178651,-0.28999999165535
984.194276,-0.189999997615814
984.209901,-0.150000005960464
984.225526,-0.200000002980232
984.241151,-0.319999992847443
984.256776,-0.430000007152557
984.272401,-0.409999996423721
984.288026,-0.200000002980232
984.303651,0.109999999403954
984.319276,0.370000004768372
984.334901,0.469999998807907
984.350526,0.439999997615814
984.366151,0.360000014305115
984.381776,0.319999992847443
984.397401,0.370000004768372
984.413026,0.560000002384186
984.428651,0.839999973773956
984.444276,1.12000000476837
984.459901,1.26999998092651
984.475526,1.25
984.491151,1.05999994277954
984.506776,0.759999990463257
984.522401,0.400000005960464
984.538026,0.0900000035762787
984.553651,-0.0900000035762787
984.569276,-0.150000005960464
984.584901,-0.150000005960464
984.600526,-0.159999996423721
984.616151,-0.239999994635582
984.631776,-0.430000007152557
984.647401,-0.680000007152557
984.663026,-0.870000004768372
984.678651,-0.870000004768372
984.694276,-0.649999976158142
984.709901,-0.310000002384186
984.725526,-0.0299999993294477
984.741151,0.0700000002980232
984.756776,0.0
984.772401,-0.189999997615814
984.788026,-0.389999985694885
984.803651,-0.550000011920929
984.819276,-0.689999997615814
984.834901,-0.839999973773956
984.850526,-1.00999999046326
984.866151,-1.12999999523163
984.881776,-1.08000004291534
984.897401,-0.779999971389771
984.913026,-0.259999990463257
984.928651,0.360000014305115
984.944276,0.889999985694885
984.959901,1.20000004768372
984.975526,1.23000001907349
984.991151,1.07000005245209
985.006776,0.870000004768372
985.022401,0.759999990463257
985.038026,0.850000023841858
985.053651,1.12000000476837
985.069276,1.37999999523163
985.084901,1.42999994754791
985.100526,1.20000004768372
985.116151,0.779999971389771
985.131776,0.340000003576279
985.147401,0.0199999995529652
985.163026,-0.109999999403954
985.178651,-0.109999999403954
985.194276,-0.0199999995529652
985.209901,0.0500000007450581
985.225526,0.0199999995529652
985.241151,-0.119999997317791
985.256776,-0.370000004768372
985.272401,-0.629999995231628
985.288026,-0.790000021457672
985.303651,-0.790000021457672
985.319276,-0.629999995231628
985.334901,-0.379999995231628
985.350526,-0.170000001788139
985.366151,-0.0599999986588955
985.381776,-0.0099999997764825
985.397401,0.109999999403954
985.413026,0.400000005960464
985.428651,0.850000023841858
985.444276,1.28999996185303
985.459901,1.57000005245209
985.475526,1.62999999523163
985.491151,1.48000001907349
985.506776,1.22000002861023
985.522401,0.899999976158142
985.538026,0.589999973773956
985.553651,0.360000014305115
985.569276,0.230000004172325
985.584901,0.209999993443489
985.600526,0.28999999165535
985.616151,0.430000007152557
985.631776,0.540000021457672
985.647401,0.509999990463257
985.663026,0.300000011920929
985.678651,-0.0500000007450581
985.694276,-0.469999998807907
985.709901,-0.829999983310699
985.725526,-1.02999997138977
985.741151,-1.0
985.756776,-0.819999992847443
985.772401,-0.610000014305115
985.788026,-0.449999988079071
985.803651,-0.370000004768372
985.819276,-0.360000014305115
985.834901,-0.490000009536743
985.850526,-0.779999971389771
985.866151,-1.12999999523163
985.881776,-1.36000001430511
985.897401,-1.32000005245209
985.913026,-0.980000019073486
985.928651,-0.430000007152557
985.944276,0.159999996423721
985.959901,0.670000016689301
985.975526,0.959999978542328
985.991151,0.980000019073486
986.006776,0.779999971389771
986.022401,0.479999989271164
986.038026,0.209999993443489
986.053651,0.0599999986588955
986.069276,0.0099999997764825
986.084901,-0.0199999995529652
986.100526,-0.100000001490116
986.116151,-0.219999998807907
986.131776,-0.330000013113022
986.147401,-0.389999985694885
986.163026,-0.349999994039536
986.178651,-0.239999994635582
986.194276,-0.180000007152557
986.209901,-0.219999998807907
986.225526,-0.349999994039536
986.241151,-0.5
986.256776,-0.620000004768372
986.272401,-0.699999988079071
986.288026,-0.730000019073486
986.303651,-0.730000019073486
986.319276,-0.680000007152557
986.334901,-0.629999995231628
986.350526,-0.579999983310699
986.366151,-0.519999980926514
986.381776,-0.439999997615814
986.397401,-0.300000011920929
986.413026,-0.0599999986588955
986.428651,0.25
986.444276,0.639999985694885
986.459901,1.02999997138977
986.475526,1.37000000476837
986.491151,1.55999994277954
986.506776,1.55999994277954
986.522401,1.41999995708466
986.538026,1.24000000953674
986.553651,1.0900000333786
986.569276,0.970000028610229
986.584901,0.829999983310699
986.600526,0.620000004768372
986.616151,0.330000013113022
986.631776,0.0099999997764825
986.647401,-0.270000010728836
986.663026,-0.46000000834465
986.678651,-0.529999971389771
986.694276,-0.509999990463257
986.709901,-0.469999998807907
986.725526,-0.449999988079071
986.741151,-0.479999989271164
986.756776,-0.569999992847443
986.772401,-0.699999988079071
986.788026,-0.829999983310699
986.803651,-0.930000007152557
986.819276,-0.990000009536743
986.834901,-1.00999999046326
986.850526,-1.02999997138977
986.866151,-1.05999994277954
986.881776,-1.01999998092651
986.897401,-0.850000023841858
986.913026,-0.469999998807907
986.928651,0.0599999986588955
986.944276,0.639999985694885
986.959901,1.0900000333786
986.975526,1.28999996185303
986.991151,1.21000003814697
987.006776,0.959999978542328
987.022401,0.709999978542328
987.038026,0.579999983310699
987.053651,0.589999973773956
987.069276,0.660000026226044
987.084901,0.670000016689301
987.100526,0.550000011920929
987.116151,0.310000002384186
987.131776,0.0099999997764825
987.147401,-0.259999990463257
987.163026,-0.46000000834465
987.178651,-0.569999992847443
987.194276,-0.649999976158142
987.209901,-0.75
987.225526,-0.899999976158142
987.241151,-1.03999996185303
987.256776,-1.0900000333786
987.272401,-0.980000019073486
987.288026,-0.699999988079071
987.303651,-0.319999992847443
987.319276,-0.0099999997764825
987.334901,0.0900000035762787
987.350526,0.0299999993294477
987.366151,-0.0599999986588955
987.381776,-0.140000000596046
987.397401,-0.129999995231628
987.413026,-0.0099999997764825
987.428651,0.219999998807907
987.444276,0.5
987.459901,0.720000028610229
987.475526,0.800000011920929
987.491151,0.740000009536743
987.506776,0.589999973773956
987.522401,0.430000007152557
987.538026,0.310000002384186
987.553651,0.25
987.569276,0.209999993443489
987.584901,0.209999993443489
987.600526,0.270000010728836
987.616151,0.419999986886978
987.631776,0.579999983310699
987.647401,0.649999976158142
987.663026,0.579999983310699
987.678651,0.400000005960464
987.694276,0.219999998807907
987.709901,0.140000000596046
987.725526,0.140000000596046
987.741151,0.170000001788139
987.756776,0.150000005960464
987.772401,0.0299999993294477
987.788026,-0.159999996423721
987.803651,-0.409999996423721
987.819276,-0.649999976158142
987.834901,-0.860000014305115
987.850526,-1.04999995231628
987.866151,-1.22000002861023
987.881776,-1.36000001430511
987.897401,-1.4099999666214
987.913026,-1.28999996185303
987.928651,-0.980000019073486
987.944276,-0.5
987.959901,0.0399999991059303
987.975526,0.529999971389771
987.991151,0.850000023841858
988.006776,0.939999997615814
988.022401,0.800000011920929
988.038026,0.509999990463257
988.053651,0.219999998807907
988.069276,0.0599999986588955
988.084901,0.0700000002980232
988.100526,0.189999997615814
988.116151,0.310000002384186
988.131776,0.349999994039536
988.147401,0.28999999165535
988.163026,0.170000001788139
988.178651,0.0199999995529652
988.194276,-0.0900000035762787
988.209901,-0.180000007152557
988.225526,-0.230000004172325
988.241151,-0.259999990463257
988.256776,-0.319999992847443
988.272401,-0.400000005960464
988.288026,-0.5
988.303651,-0.550000011920929
988.319276,-0.529999971389771
988.334901,-0.46000000834465
988.350526,-0.389999985694885
988.366151,-0.360000014305115
988.381776,-0.319999992847443
988.397401,-0.209999993443489
988.413026,0.0399999991059303
988.428651,0.449999988079071
988.444276,0.939999997615814
988.459901,1.36000001430511
988.475526,1.60000002384186
988.491151,1.61000001430511
988.506776,1.38999998569489
988.522401,1.03999996185303
988.538026,0.709999978542328
988.553651,0.5
988.569276,0.400000005960464
988.584901,0.319999992847443
988.600526,0.159999996423721
988.616151,-0.0799999982118607
988.631776,-0.319999992847443
988.647401,-0.479999989271164
988.663026,-0.529999971389771
988.678651,-0.490000009536743
988.694276,-0.389999985694885
988.709901,-0.270000010728836
988.725526,-0.180000007152557
988.741151,-0.180000007152557
988.756776,-0.300000011920929
988.772401,-0.449999988079071
988.788026,-0.529999971389771
988.803651,-0.490000009536743
988.819276,-0.360000014305115
988.834901,-0.200000002980232
988.850526,-0.100000001490116
988.866151,-0.0900000035762787
988.881776,-0.150000005960464
988.897401,-0.200000002980232
988.913026,-0.129999995231628
988.928651,0.109999999403954
988.944276,0.5
988.959901,0.939999997615814
988.975526,1.25
988.991151,1.3400000333786
989.006776,1.21000003814697
989.022401,0.949999988079071
989.038026,0.680000007152557
989.053651,0.449999988079071
989.069276,0.310000002384186
989.084901,0.230000004172325
989.100526,0.189999997615814
989.116151,0.170000001788139
989.131776,0.189999997615814
989.147401,0.180000007152557
989.163026,0.119999997317791
989.178651,0.0
989.194276,-0.129999995231628
989.209901,-0.230000004172325
989.225526,-0.319999992847443
989.241151,-0.419999986886978
989.256776,-0.560000002384186
989.272401,-0.740000009536743
989.288026,-0.899999976158142
989.303651,-1.04999995231628
989.319276,-1.19000005722046
989.334901,-1.35000002384186
989.350526,-1.50999999046326
989.366151,-1.62999999523163
989.381776,-1.60000002384186
989.397401,-1.37999999523163
989.413026,-0.930000007152557
989.428651,-0.280000001192093
989.444276,0.400000005960464
989.459901,0.939999997615814
989.475526,1.21000003814697
989.491151,1.20000004768372
989.506776,1.02999997138977
989.522401,0.850000023841858
989.538026,0.779999971389771
989.553651,0.790000021457672
989.569276,0.819999992847443
989.584901,0.839999973773956
989.600526,0.879999995231628
989.616151,0.910000026226044
989.631776,0.829999983310699
989.647401,0.589999973773956
989.663026,0.209999993443489
989.678651,-0.170000001788139
989.694276,-0.490000009536743
989.709901,-0.689999997615814
989.725526,-0.790000021457672
989.741151,-0.819999992847443
989.756776,-0.800000011920929
989.772401,-0.769999980926514
989.788026,-0.759999990463257
989.803651,-0.800000011920929
989.819276,-0.910000026226044
989.834901,-1.0900000333786
989.850526,-1.3400000333786
989.866151,-1.62000000476837
989.881776,-1.82000005245209
989.897401,-1.82000005245209
989.913026,-1.52999997138977
989.928651,-0.959999978542328
989.944276,-0.239999994635582
989.959901,0.430000007152557
989.975526,0.939999997615814
989.991151,1.24000000953674
990.006776,1.33000004291534
990.022401,1.29999995231628
990.038026,1.20000004768372
990.053651,1.0900000333786
990.069276,0.920000016689301
990.084901,0.649999976158142
990.100526,0.300000011920929
990.116151,-0.0799999982118607
990.131776,-0.439999997615814
990.147401,-0.680000007152557
990.163026,-0.759999990463257
990.178651,-0.699999988079071
990.194276,-0.569999992847443
990.209901,-0.490000009536743
990.225526,-0.5
990.241151,-0.579999983310699
990.256776,-0.660000026226044
990.272401,-0.649999976158142
990.288026,-0.550000011920929
990.303651,-0.400000005960464
990.319276,-0.25
990.334901,-0.159999996423721
990.350526,-0.119999997317791
990.366151,-0.140000000596046
990.381776,-0.189999997615814
990.397401,-0.219999998807907
990.413026,-0.129999995231628
990.428651,0.0799999982118607
990.444276,0.379999995231628
990.459901,0.670000016689301
990.475526,0.879999995231628
990.491151,1.00999999046326
990.506776,1.04999995231628
990.522401,1.00999999046326
990.538026,0.870000004768372
990.553651,0.649999976158142
990.569276,0.400000005960464
990.584901,0.180000007152557
990.600526,0.0399999991059303
990.616151,-0.0099999997764825
990.631776,0.0
990.647401,0.0599999986588955
990.663026,0.159999996423721
990.678651,0.28999999165535
990.694276,0.360000014305115
990.709901,0.330000013113022
990.725526,0.180000007152557
990.741151,-0.0500000007450581
990.756776,-0.330000013113022
990.772401,-0.589999973773956
990.788026,-0.75
990.803651,-0.779999971389771
990.819276,-0.649999976158142
990.834901,-0.449999988079071
990.850526,-0.270000010728836
990.866151,-0.170000001788139
990.881776,-0.129999995231628
990.897401,-0.129999995231628
990.913026,-0.100000001490116
990.928651,0.0
990.944276,0.219999998807907
990.959901,0.529999971389771
990.975526,0.860000014305115
990.991151,1.11000001430511
991.006776,1.20000004768372
991.022401,1.17999994754791
991.038026,1.12999999523163
991.053651,1.07000005245209
991.069276,0.980000019073486
991.084901,0.800000011920929
991.100526,0.579999983310699
991.116151,0.360000014305115
991.131776,0.209999993443489
991.147401,0.109999999403954
991.163026,0.0599999986588955
991.178651,0.0599999986588955
991.194276,0.0900000035762787
991.209901,0.100000001490116
991.225526,0.0399999991059303
991.241151,-0.0599999986588955
991.256776,-0.239999994635582
991.272401,-0.5
991.288026,-0.800000011920929
991.303651,-1.07000005245209
991.319276,-1.24000000953674
991.334901,-1.28999996185303
991.350526,-1.25
991.366151,-1.14999997615814
991.381776,-1.03999996185303
991.397401,-0.910000026226044
991.413026,-0.720000028610229
991.428651,-0.409999996423721
991.444276,-0.0199999995529652
991.459901,0.370000004768372
991.475526,0.709999978542328
991.491151,0.990000009536743
991.506776,1.16999995708466
991.522401,1.21000003814697
991.538026,1.12000000476837
991.553651,0.899999976158142
991.569276,0.629999995231628
991.584901,0.409999996423721
991.600526,0.340000003576279
991.616151,0.419999986886978
991.631776,0.589999973773956
991.647401,0.720000028610229
991.663026,0.769999980926514
991.678651,0.730000019073486
991.694276,0.629999995231628
991.709901,0.469999998807907
991.725526,0.219999998807907
991.741151,-0.0799999982118607
991.756776,-0.360000014305115
991.772401,-0.46000000834465
991.788026,-0.330000013113022
991.803651,-0.0500000007450581
