Time(s),Value(℃)
1009.0011142,69.5299987792969
1009.0167392,69.5400009155273
1009.0323642,69.5400009155273
1009.0479892,69.5400009155273
1009.0636142,69.5400009155273
1009.0792392,69.5400009155273
1009.0948642,69.5299987792969
1009.1104892,69.5199966430664
1009.1261142,69.5199966430664
1009.1417392,69.5100021362305
1009.1573642,69.5
1009.1729892,69.5
1009.1886142,69.5
1009.2042392,69.5
1009.2198642,69.5
1009.2354892,69.5
1009.2511142,69.5100021362305
1009.2667392,69.5100021362305
1009.2823642,69.5199966430664
1009.2979892,69.5299987792969
1009.3136142,69.5400009155273
1009.3292392,69.5500030517578
1009.3448642,69.5599975585938
1009.3604892,69.5699996948242
1009.3761142,69.5899963378906
1009.3917392,69.6100006103516
1009.4073642,69.629997253418
1009.4229892,69.6500015258789
1009.4386142,69.6699981689453
1009.4542392,69.6900024414063
1009.4698642,69.7099990844727
1009.4854892,69.7300033569336
1009.5011142,69.7399978637695
1009.5167392,69.75
1009.5323642,69.7600021362305
1009.5479892,69.7699966430664
1009.5636142,69.7799987792969
1009.5792392,69.7900009155273
1009.5948642,69.8000030517578
1009.6104892,69.8000030517578
1009.6261142,69.8099975585938
1009.6417392,69.8099975585938
1009.6573642,69.8199996948242
1009.6729892,69.8199996948242
1009.6886142,69.8199996948242
1009.7042392,69.8300018310547
1009.7198642,69.8399963378906
1009.7354892,69.8499984741211
1009.7511142,69.8600006103516
1009.7667392,69.870002746582
1009.7823642,69.8899993896484
1009.7979892,69.9100036621094
1009.8136142,69.9300003051758
1009.8292392,69.9499969482422
1009.8448642,69.9700012207031
1009.8604892,69.9800033569336
1009.8761142,69.9899978637695
1009.8917392,70.0
1009.9073642,70.0
1009.9229892,70.0
1009.9386142,70.0
1009.9542392,70.0
1009.9698642,70.0
1009.9854892,70.0100021362305
1010.0011142,70.0100021362305
1010.0167392,70.0100021362305
1010.0323642,70.0199966430664
1010.0479892,70.0199966430664
1010.0636142,70.0299987792969
1010.0792392,70.0299987792969
1010.0948642,70.0299987792969
1010.1104892,70.0299987792969
1010.1261142,70.0299987792969
1010.1417392,70.0299987792969
1010.1573642,70.0299987792969
1010.1729892,70.0299987792969
1010.1886142,70.0299987792969
1010.2042392,70.0299987792969
1010.2198642,70.0299987792969
1010.2354892,70.0400009155273
1010.2511142,70.0400009155273
1010.2667392,70.0400009155273
1010.2823642,70.0400009155273
1010.2979892,70.0400009155273
1010.3136142,70.0400009155273
1010.3292392,70.0400009155273
1010.3448642,70.0500030517578
1010.3604892,70.0500030517578
1010.3761142,70.0500030517578
1010.3917392,70.0500030517578
1010.4073642,70.0500030517578
1010.4229892,70.0599975585938
1010.4386142,70.0599975585938
1010.4542392,70.0599975585938
1010.4698642,70.0599975585938
1010.4854892,70.0699996948242
1010.5011142,70.0800018310547
1010.5167392,70.0899963378906
1010.5323642,70.0999984741211
1010.5479892,70.1100006103516
1010.5636142,70.129997253418
1010.5792392,70.1399993896484
1010.5948642,70.1600036621094
1010.6104892,70.1699981689453
1010.6261142,70.1900024414063
1010.6417392,70.1999969482422
1010.6573642,70.2099990844727
1010.6729892,70.2200012207031
1010.6886142,70.2200012207031
1010.7042392,70.2300033569336
1010.7198642,70.2300033569336
1010.7354892,70.2200012207031
1010.7511142,70.2200012207031
1010.7667392,70.2200012207031
1010.7823642,70.2200012207031
1010.7979892,70.2200012207031
1010.8136142,70.2200012207031
1010.8292392,70.2300033569336
1010.8448642,70.2300033569336
1010.8604892,70.2399978637695
1010.8761142,70.2399978637695
1010.8917392,70.25
1010.9073642,70.25
1010.9229892,70.25
1010.9386142,70.25
1010.9542392,70.25
1010.9698642,70.2399978637695
1010.9854892,70.2399978637695
1011.0011142,70.2300033569336
1011.0167392,70.2200012207031
1011.0323642,70.1999969482422
1011.0479892,70.1900024414063
1011.0636142,70.1800003051758
1011.0792392,70.1699981689453
1011.0948642,70.1600036621094
1011.1104892,70.1500015258789
1011.1261142,70.129997253418
1011.1417392,70.120002746582
1011.1573642,70.0999984741211
1011.1729892,70.0800018310547
1011.1886142,70.0500030517578
1011.2042392,70.0199966430664
1011.2198642,69.9899978637695
1011.2354892,69.9599990844727
1011.2511142,69.9300003051758
1011.2667392,69.9000015258789
1011.2823642,69.8600006103516
1011.2979892,69.8300018310547
1011.3136142,69.8099975585938
1011.3292392,69.7799987792969
1011.3448642,69.7600021362305
1011.3604892,69.7399978637695
1011.3761142,69.7200012207031
1011.3917392,69.6999969482422
1011.4073642,69.6800003051758
1011.4229892,69.6600036621094
1011.4386142,69.6399993896484
1011.4542392,69.620002746582
1011.4698642,69.5999984741211
1011.4854892,69.5800018310547
1011.5011142,69.5500030517578
1011.5167392,69.5299987792969
1011.5323642,69.5
1011.5479892,69.4800033569336
1011.5636142,69.4599990844727
1011.5792392,69.4400024414063
1011.5948642,69.4300003051758
1011.6104892,69.4199981689453
1011.6261142,69.4100036621094
1011.6417392,69.4100036621094
1011.6573642,69.4100036621094
1011.6729892,69.4100036621094
1011.6886142,69.4199981689453
1011.7042392,69.4300003051758
1011.7198642,69.4400024414063
1011.7354892,69.4499969482422
1011.7511142,69.4700012207031
1011.7667392,69.4899978637695
1011.7823642,69.5
1011.7979892,69.5199966430664
1011.8136142,69.5500030517578
1011.8292392,69.5699996948242
1011.8448642,69.5999984741211
1011.8604892,69.620002746582
1011.8761142,69.6399993896484
1011.8917392,69.6600036621094
1011.9073642,69.6800003051758
1011.9229892,69.6999969482422
1011.9386142,69.7200012207031
1011.9542392,69.7399978637695
1011.9698642,69.7600021362305
1011.9854892,69.7799987792969
1012.0011142,69.7900009155273
1012.0167392,69.8099975585938
1012.0323642,69.8199996948242
1012.0479892,69.8300018310547
1012.0636142,69.8399963378906
1012.0792392,69.8499984741211
1012.0948642,69.8499984741211
1012.1104892,69.8600006103516
1012.1261142,69.870002746582
1012.1417392,69.879997253418
1012.1573642,69.879997253418
1012.1729892,69.8899993896484
1012.1886142,69.9000015258789
1012.2042392,69.9100036621094
1012.2198642,69.9300003051758
1012.2354892,69.9400024414063
1012.2511142,69.9499969482422
1012.2667392,69.9599990844727
1012.2823642,69.9700012207031
1012.2979892,69.9800033569336
1012.3136142,69.9899978637695
1012.3292392,70.0
1012.3448642,70.0
1012.3604892,70.0
1012.3761142,70.0
1012.3917392,69.9899978637695
1012.4073642,69.9800033569336
1012.4229892,69.9700012207031
1012.4386142,69.9599990844727
1012.4542392,69.9499969482422
1012.4698642,69.9300003051758
1012.4854892,69.9199981689453
1012.5011142,69.9000015258789
1012.5167392,69.879997253418
1012.5323642,69.870002746582
1012.5479892,69.8499984741211
1012.5636142,69.8399963378906
1012.5792392,69.8199996948242
1012.5948642,69.8000030517578
1012.6104892,69.7799987792969
1012.6261142,69.7600021362305
1012.6417392,69.7399978637695
1012.6573642,69.7099990844727
1012.6729892,69.6800003051758
1012.6886142,69.6500015258789
1012.7042392,69.620002746582
1012.7198642,69.5899963378906
1012.7354892,69.5500030517578
1012.7511142,69.5199966430664
1012.7667392,69.4800033569336
1012.7823642,69.4400024414063
1012.7979892,69.4000015258789
1012.8136142,69.370002746582
1012.8292392,69.3399963378906
1012.8448642,69.3099975585938
1012.8604892,69.2799987792969
1012.8761142,69.25
1012.8917392,69.2300033569336
1012.9073642,69.1999969482422
1012.9229892,69.1699981689453
1012.9386142,69.1399993896484
1012.9542392,69.1100006103516
1012.9698642,69.0800018310547
1012.9854892,69.0400009155273
1013.0011142,69.0100021362305
1013.0167392,68.9800033569336
1013.0323642,68.9499969482422
1013.0479892,68.9199981689453
1013.0636142,68.8899993896484
1013.0792392,68.870002746582
1013.0948642,68.8499984741211
1013.1104892,68.8300018310547
1013.1261142,68.8099975585938
1013.1417392,68.7799987792969
1013.1573642,68.7600021362305
1013.1729892,68.7200012207031
1013.1886142,68.6900024414063
1013.2042392,68.6500015258789
1013.2198642,68.6100006103516
1013.2354892,68.5599975585938
1013.2511142,68.5199966430664
1013.2667392,68.4700012207031
1013.2823642,68.4300003051758
1013.2979892,68.379997253418
1013.3136142,68.3499984741211
1013.3292392,68.3099975585938
1013.3448642,68.2799987792969
1013.3604892,68.2399978637695
1013.3761142,68.2200012207031
1013.3917392,68.1900024414063
1013.4073642,68.1600036621094
1013.4229892,68.1399993896484
1013.4386142,68.1100006103516
1013.4542392,68.0899963378906
1013.4698642,68.0699996948242
1013.4854892,68.0400009155273
1013.5011142,68.0199966430664
1013.5167392,68.0
1013.5323642,67.9800033569336
1013.5479892,67.9599990844727
1013.5636142,67.9400024414063
1013.5792392,67.9199981689453
1013.5948642,67.9100036621094
1013.6104892,67.8899993896484
1013.6261142,67.8899993896484
1013.6417392,67.879997253418
1013.6573642,67.879997253418
1013.6729892,67.8899993896484
1013.6886142,67.8899993896484
1013.7042392,67.9000015258789
1013.7198642,67.9100036621094
1013.7354892,67.9199981689453
1013.7511142,67.9300003051758
1013.7667392,67.9400024414063
1013.7823642,67.9499969482422
1013.7979892,67.9599990844727
1013.8136142,67.9700012207031
1013.8292392,67.9800033569336
1013.8448642,67.9899978637695
1013.8604892,68.0
1013.8761142,68.0199966430664
1013.8917392,68.0299987792969
1013.9073642,68.0500030517578
1013.9229892,68.0699996948242
1013.9386142,68.0999984741211
1013.9542392,68.120002746582
1013.9698642,68.1500015258789
1013.9854892,68.1800003051758
1014.0011142,68.2099990844727
1014.0167392,68.2300033569336
1014.0323642,68.25
1014.0479892,68.2699966430664
1014.0636142,68.2799987792969
1014.0792392,68.2799987792969
1014.0948642,68.2900009155273
1014.1104892,68.3000030517578
1014.1261142,68.3000030517578
1014.1417392,68.3099975585938
1014.1573642,68.3300018310547
1014.1729892,68.3399963378906
1014.1886142,68.3600006103516
1014.2042392,68.379997253418
1014.2198642,68.4000015258789
1014.2354892,68.4100036621094
1014.2511142,68.4300003051758
1014.2667392,68.4400024414063
1014.2823642,68.4599990844727
1014.2979892,68.4700012207031
1014.3136142,68.4800033569336
1014.3292392,68.4899978637695
1014.3448642,68.4899978637695
1014.3604892,68.5
1014.3761142,68.5
1014.3917392,68.4899978637695
1014.4073642,68.4899978637695
1014.4229892,68.4899978637695
1014.4386142,68.5
1014.4542392,68.5100021362305
1014.4698642,68.5199966430664
1014.4854892,68.5299987792969
1014.5011142,68.5500030517578
1014.5167392,68.5599975585938
1014.5323642,68.5699996948242
1014.5479892,68.5800018310547
1014.5636142,68.5899963378906
1014.5792392,68.5899963378906
1014.5948642,68.5999984741211
1014.6104892,68.5999984741211
1014.6261142,68.620002746582
1014.6417392,68.6399993896484
1014.6573642,68.6600036621094
1014.6729892,68.6800003051758
1014.6886142,68.7099990844727
1014.7042392,68.7300033569336
1014.7198642,68.7600021362305
1014.7354892,68.7799987792969
1014.7511142,68.8000030517578
1014.7667392,68.8099975585938
1014.7823642,68.8199996948242
1014.7979892,68.8300018310547
1014.8136142,68.8399963378906
1014.8292392,68.8399963378906
1014.8448642,68.8399963378906
1014.8604892,68.8399963378906
1014.8761142,68.8300018310547
1014.8917392,68.8199996948242
1014.9073642,68.8099975585938
1014.9229892,68.8000030517578
1014.9386142,68.8000030517578
1014.9542392,68.7900009155273
1014.9698642,68.7900009155273
1014.9854892,68.7900009155273
1015.0011142,68.7900009155273
1015.0167392,68.7900009155273
1015.0323642,68.8000030517578
1015.0479892,68.8000030517578
1015.0636142,68.8099975585938
1015.0792392,68.8099975585938
1015.0948642,68.8199996948242
1015.1104892,68.8300018310547
1015.1261142,68.8399963378906
1015.1417392,68.8499984741211
1015.1573642,68.8600006103516
1015.1729892,68.870002746582
1015.1886142,68.8899993896484
1015.2042392,68.9100036621094
1015.2198642,68.9300003051758
1015.2354892,68.9499969482422
1015.2511142,68.9700012207031
1015.2667392,68.9899978637695
1015.2823642,69.0199966430664
1015.2979892,69.0400009155273
1015.3136142,69.0599975585938
1015.3292392,69.0800018310547
1015.3448642,69.0999984741211
1015.3604892,69.120002746582
1015.3761142,69.129997253418
1015.3917392,69.1399993896484
1015.4073642,69.1399993896484
1015.4229892,69.1399993896484
1015.4386142,69.1500015258789
1015.4542392,69.1500015258789
1015.4698642,69.1500015258789
1015.4854892,69.1600036621094
1015.5011142,69.1699981689453
1015.5167392,69.1800003051758
1015.5323642,69.1800003051758
1015.5479892,69.1900024414063
1015.5636142,69.1800003051758
1015.5792392,69.1699981689453
1015.5948642,69.1600036621094
1015.6104892,69.1399993896484
1015.6261142,69.129997253418
1015.6417392,69.1100006103516
1015.6573642,69.0999984741211
1015.6729892,69.0899963378906
1015.6886142,69.0899963378906
1015.7042392,69.0899963378906
1015.7198642,69.1100006103516
1015.7354892,69.129997253418
1015.7511142,69.1500015258789
1015.7667392,69.1800003051758
1015.7823642,69.2200012207031
1015.7979892,69.25
1015.8136142,69.2900009155273
1015.8292392,69.3199996948242
1015.8448642,69.3600006103516
1015.8604892,69.3899993896484
1015.8761142,69.4199981689453
1015.8917392,69.4499969482422
1015.9073642,69.4800033569336
1015.9229892,69.5033340454102
1015.9386142,69.5266723632813
1015.9542392,69.5500030517578
1015.9698642,69.5733337402344
1015.9854892,69.5966720581055
1016.0011142,69.620002746582
1016.0167392,69.6433334350586
1016.0323642,69.6666717529297
1016.0479892,69.6900024414063
1016.0636142,69.7099990844727
1016.0792392,69.7300033569336
1016.0948642,69.75
1016.1104892,69.7699966430664
1016.1261142,69.7799987792969
1016.1417392,69.8000030517578
1016.1573642,69.8099975585938
1016.1729892,69.9300003051758
1016.1886142,69.9499969482422
1016.2042392,69.9700012207031
1016.2198642,70.0
1016.2354892,70.0299987792969
1016.2511142,70.0599975585938
1016.2667392,70.0899963378906
1016.2823642,70.129997253418
1016.2979892,70.1600036621094
1016.3136142,70.1900024414063
1016.3292392,70.2300033569336
1016.3448642,70.2600021362305
1016.3604892,70.2799987792969
1016.3761142,70.3099975585938
1016.3917392,70.3300018310547
1016.4073642,70.3499984741211
1016.4229892,70.370002746582
1016.4386142,70.3899993896484
1016.4542392,70.4100036621094
1016.4698642,70.4300003051758
1016.4854892,70.4499969482422
1016.5011142,70.4700012207031
1016.5167392,70.4899978637695
1016.5323642,70.5100021362305
1016.5479892,70.5299987792969
1016.5636142,70.5400009155273
1016.5792392,70.5599975585938
1016.5948642,70.5699996948242
1016.6104892,70.5699996948242
1016.6261142,70.5800018310547
1016.6417392,70.5800018310547
1016.6573642,70.5800018310547
1016.6729892,70.5800018310547
1016.6886142,70.5800018310547
1016.7042392,70.5800018310547
1016.7198642,70.5899963378906
1016.7354892,70.5899963378906
1016.7511142,70.5999984741211
1016.7667392,70.6100006103516
1016.7823642,70.620002746582
1016.7979892,70.629997253418
1016.8136142,70.6399993896484
1016.8292392,70.6500015258789
1016.8448642,70.6600036621094
1016.8604892,70.6699981689453
1016.8761142,70.6699981689453
1016.8917392,70.6800003051758
1016.9073642,70.6900024414063
1016.9229892,70.6900024414063
1016.9386142,70.6999969482422
1016.9542392,70.7099990844727
1016.9698642,70.7200012207031
1016.9854892,70.7300033569336
1017.0011142,70.7399978637695
1017.0167392,70.75
1017.0323642,70.7699966430664
1017.0479892,70.7799987792969
1017.0636142,70.7900009155273
1017.0792392,70.8099975585938
1017.0948642,70.8199996948242
1017.1104892,70.8300018310547
1017.1261142,70.8399963378906
1017.1417392,70.8399963378906
1017.1573642,70.8399963378906
1017.1729892,70.8399963378906
1017.1886142,70.8300018310547
1017.2042392,70.8199996948242
1017.2198642,70.8000030517578
1017.2354892,70.7799987792969
1017.2511142,70.7600021362305
1017.2667392,70.7399978637695
1017.2823642,70.7200012207031
1017.2979892,70.6999969482422
1017.3136142,70.6900024414063
1017.3292392,70.6800003051758
1017.3448642,70.6699981689453
1017.3604892,70.6600036621094
1017.3761142,70.6600036621094
1017.3917392,70.6500015258789
1017.4073642,70.6399993896484
1017.4229892,70.6399993896484
1017.4386142,70.629997253418
1017.4542392,70.620002746582
1017.4698642,70.6100006103516
1017.4854892,70.5999984741211
1017.5011142,70.5800018310547
1017.5167392,70.5699996948242
1017.5323642,70.5500030517578
1017.5479892,70.5299987792969
1017.5636142,70.5199966430664
1017.5792392,70.5
1017.5948642,70.4899978637695
1017.6104892,70.4800033569336
1017.6261142,70.4700012207031
1017.6417392,70.4599990844727
1017.6573642,70.4499969482422
1017.6729892,70.4499969482422
1017.6886142,70.4400024414063
1017.7042392,70.4300003051758
1017.7198642,70.4199981689453
1017.7354892,70.4100036621094
1017.7511142,70.3899993896484
1017.7667392,70.379997253418
1017.7823642,70.370002746582
1017.7979892,70.3600006103516
1017.8136142,70.3499984741211
1017.8292392,70.3399963378906
1017.8448642,70.3199996948242
1017.8604892,70.3099975585938
1017.8761142,70.3000030517578
1017.8917392,70.2799987792969
1017.9073642,70.2600021362305
1017.9229892,70.2399978637695
1017.9386142,70.2200012207031
1017.9542392,70.1900024414063
1017.9698642,70.1600036621094
1017.9854892,70.129997253418
1018.0011142,70.0999984741211
1018.0167392,70.0699996948242
1018.0323642,70.0299987792969
1018.0479892,69.9899978637695
1018.0636142,69.9499969482422
1018.0792392,69.9000015258789
1018.0948642,69.8600006103516
1018.1104892,69.8199996948242
1018.1261142,69.7799987792969
1018.1417392,69.7399978637695
1018.1573642,69.6999969482422
1018.1729892,69.6699981689453
1018.1886142,69.629997253418
1018.2042392,69.5999984741211
1018.2198642,69.5699996948242
1018.2354892,69.5400009155273
1018.2511142,69.5
1018.2667392,69.4700012207031
1018.2823642,69.4400024414063
1018.2979892,69.4000015258789
1018.3136142,69.370002746582
1018.3292392,69.3300018310547
1018.3448642,69.2900009155273
1018.3604892,69.25
1018.3761142,69.1999969482422
1018.3917392,69.1500015258789
1018.4073642,69.0999984741211
1018.4229892,69.0500030517578
1018.4386142,69.0100021362305
1018.4542392,68.9599990844727
1018.4698642,68.9199981689453
1018.4854892,68.879997253418
1018.5011142,68.8399963378906
1018.5167392,68.8000030517578
1018.5323642,68.7699966430664
1018.5479892,68.7300033569336
1018.5636142,68.6999969482422
1018.5792392,68.6600036621094
1018.5948642,68.620002746582
1018.6104892,68.5899963378906
1018.6261142,68.5500030517578
1018.6417392,68.5199966430664
1018.6573642,68.4800033569336
1018.6729892,68.4499969482422
1018.6886142,68.4199981689453
1018.7042392,68.3899993896484
1018.7198642,68.3600006103516
1018.7354892,68.3399963378906
1018.7511142,68.3099975585938
1018.7667392,68.2900009155273
1018.7823642,68.2699966430664
1018.7979892,68.2399978637695
1018.8136142,68.2200012207031
1018.8292392,68.1999969482422
1018.8448642,68.1800003051758
1018.8604892,68.1600036621094
1018.8761142,68.1399993896484
1018.8917392,68.120002746582
1018.9073642,68.1100006103516
1018.9229892,68.0899963378906
1018.9386142,68.0699996948242
1018.9542392,68.0500030517578
1018.9698642,68.0299987792969
1018.9854892,68.0199966430664
1019.0011142,68.0100021362305
1019.0167392,68.0
1019.0323642,67.9899978637695
1019.0479892,67.9899978637695
1019.0636142,67.9899978637695
1019.0792392,67.9800033569336
1019.0948642,67.9800033569336
1019.1104892,67.9800033569336
1019.1261142,67.9800033569336
1019.1417392,67.9800033569336
1019.1573642,67.9700012207031
1019.1729892,67.9700012207031
1019.1886142,67.9599990844727
1019.2042392,67.9599990844727
1019.2198642,67.9499969482422
1019.2354892,67.9400024414063
1019.2511142,67.9400024414063
1019.2667392,67.9300003051758
1019.2823642,67.9300003051758
1019.2979892,67.9300003051758
1019.3136142,67.9300003051758
1019.3292392,67.9300003051758
1019.3448642,67.9400024414063
1019.3604892,67.9400024414063
1019.3761142,67.9400024414063
1019.3917392,67.9499969482422
1019.4073642,67.9599990844727
1019.4229892,67.9599990844727
1019.4386142,67.9700012207031
1019.4542392,67.9800033569336
1019.4698642,67.9899978637695
1019.4854892,68.0
1019.5011142,68.0100021362305
1019.5167392,68.0199966430664
1019.5323642,68.0299987792969
1019.5479892,68.0400009155273
1019.5636142,68.0599975585938
1019.5792392,68.0699996948242
1019.5948642,68.0800018310547
1019.6104892,68.0899963378906
1019.6261142,68.0999984741211
1019.6417392,68.1100006103516
1019.6573642,68.120002746582
