Time(s),Value(%)
724.0123722,-60.4000015258789
724.0279972,-68.9300003051758
724.0436222,-75.4300003051758
724.0592472,-77.3399963378906
724.0748722,-72.870002746582
724.0904972,-62.7099990844727
724.1061222,-49.5299987792969
724.1217472,-35.9500007629395
724.1373722,-23.2199993133545
724.1529972,-11.3800001144409
724.1686222,0.0500000007450581
724.1842472,11.5100002288818
724.1998722,23.1299991607666
724.2154972,34.7700004577637
724.2311222,46.2099990844727
724.2467472,57.2200012207031
724.2623722,67.4300003051758
724.2779972,76.370002746582
724.2936222,83.629997253418
724.3092472,89.3300018310547
724.3248722,94.3899993896484
724.3404972,100.389999389648
724.3561222,108.709999084473
724.3717472,119.709999084473
724.3873722,132.800003051758
724.4029972,147.169998168945
724.4186222,162.570007324219
724.4342472,179.399993896484
724.4498722,198.139999389648
724.4654972,218.580001831055
724.4811222,239.779998779297
724.4967472,260.640014648438
724.5123722,280.929992675781
724.5279972,301.540008544922
724.5436222,323.369995117188
724.5592472,327.670013427734
724.5748722,327.670013427734
724.5904972,327.670013427734
724.6061222,327.670013427734
724.6217472,327.670013427734
724.6373722,327.670013427734
724.6529972,327.670013427734
724.6686222,327.670013427734
724.6842472,327.670013427734
724.6998722,327.670013427734
724.7154972,327.670013427734
724.7311222,327.670013427734
724.7467472,327.670013427734
724.7623722,327.670013427734
724.7779972,327.670013427734
724.7936222,323.609985351563
724.8092472,310.589996337891
724.8248722,297.649993896484
724.8404972,285.140014648438
724.8561222,273.470001220703
724.8717472,262.869995117188
724.8873722,253.199996948242
724.9029972,244.100006103516
724.9186222,235.240005493164
724.9342472,226.360000610352
724.9498722,217.419998168945
724.9654972,208.479995727539
724.9811222,199.75
724.9967472,191.460006713867
725.0123722,183.830001831055
725.0279972,176.860000610352
725.0436222,170.419998168945
725.0592472,164.380004882813
725.0748722,158.850006103516
725.0904972,154.070007324219
725.1061222,150.210006713867
725.1217472,147.020004272461
725.1373722,143.960006713867
725.1529972,140.5
725.1686222,136.399993896484
725.1842472,131.660003662109
725.1998722,126.190002441406
725.2154972,119.669998168945
725.2311222,111.709999084473
725.2467472,102.26000213623
725.2623722,91.5500030517578
725.2779972,79.8099975585938
725.2936222,67.2300033569336
725.3092472,54.1199989318848
725.3248722,40.9599990844727
725.3404972,28.2800006866455
725.3561222,16.0900001525879
725.3717472,3.61999988555908
725.3873722,-9.94999980926514
725.4029972,-24.6499996185303
725.4186222,-39.5800018310547
725.4342472,-53.6300010681152
725.4498722,-66.1600036621094
725.4654972,-77.1699981689453
725.4811222,-87.3399963378906
725.4967472,-97.6699981689453
725.5123722,-108.980003356934
725.5279972,-121.580001831055
725.5436222,-135.800003051758
725.5592472,-152.470001220703
725.5748722,-172.419998168945
725.5904972,-195.320007324219
725.6061222,-219.039993286133
725.6217472,-240.360000610352
725.6373722,-257.179992675781
725.6529972,-270.040008544922
725.6686222,-280.899993896484
725.6842472,-290.640014648438
725.6998722,-298.5
725.7154972,-303.420013427734
725.7311222,-305.119995117188
725.7467472,-304.179992675781
725.7623722,-301.109985351563
725.7779972,-295.549987792969
725.7936222,-286.799987792969
725.8092472,-274.630004882813
725.8248722,-259.420013427734
725.8404972,-241.639999389648
725.8561222,-221.690002441406
725.8717472,-200.199996948242
725.8873722,-178.020004272461
725.9029972,-155.860000610352
725.9186222,-133.979995727539
725.9342472,-112.300003051758
725.9498722,-91.0599975585938
725.9654972,-71.3199996948242
725.9811222,-54.4199981689453
725.9967472,-41.0099983215332
726.0123722,-30.7099990844727
726.0279972,-22.4200000762939
726.0436222,-15.0
726.0592472,-7.80999994277954
726.0748722,-0.740000009536743
726.0904972,6.05999994277954
726.1061222,12.6099996566772
726.1217472,19.2299995422363
726.1373722,26.3600006103516
726.1529972,34.1199989318848
726.1686222,42.0400009155273
726.1842472,49.2700004577637
726.1998722,55.0499992370605
726.2154972,59.1199989318848
726.2311222,61.6300010681152
726.2467472,62.7400016784668
726.2623722,62.5299987792969
726.2779972,61.1699981689453
726.2936222,59.0
726.3092472,56.3899993896484
726.3248722,53.5499992370605
726.3404972,50.3899993896484
726.3561222,46.6500015258789
726.3717472,42.2400016784668
726.3873722,37.2000007629395
726.4029972,31.6499996185303
726.4186222,25.7099990844727
726.4342472,19.5699996948242
726.4498722,13.5299997329712
726.4654972,7.92000007629395
726.4811222,2.91000008583069
726.4967472,-1.71000003814697
726.5123722,-6.28999996185303
726.5279972,-10.9899997711182
726.5436222,-15.8299999237061
726.5592472,-20.9099998474121
726.5748722,-26.4099998474121
726.5904972,-32.3699989318848
726.6061222,-38.4599990844727
726.6217472,-44.1100006103516
726.6373722,-48.8300018310547
726.6529972,-52.5499992370605
726.6686222,-55.4300003051758
726.6842472,-56.4099998474121
726.6998722,-56.6100006103516
726.7154972,-56.0800018310547
726.7311222,-55.0
726.7467472,-53.689998626709
726.7623722,-52.4700012207031
726.7779972,-51.6399993896484
726.7936222,-51.3499984741211
726.8092472,-51.5400009155273
726.8248722,-52.0499992370605
726.8404972,-52.7000007629395
726.8561222,-53.3699989318848
726.8717472,-53.9799995422363
726.8873722,-54.3600006103516
726.9029972,-54.2700004577637
726.9186222,-53.560001373291
726.9342472,-52.4000015258789
726.9498722,-51.1399993896484
726.9654972,-50.0699996948242
726.9811222,-49.2599983215332
726.9967472,-48.5999984741211
727.0123722,-47.9700012207031
727.0279972,-47.2999992370605
727.0436222,-46.689998626709
727.0592472,-46.439998626709
727.0748722,-46.8199996948242
727.0904972,-47.8600006103516
727.1061222,-49.2400016784668
727.1217472,-50.4099998474121
727.1373722,-50.9099998474121
727.1529972,-50.5200004577637
727.1686222,-49.2000007629395
727.1842472,-46.8899993896484
727.1998722,-43.4700012207031
727.2154972,-38.9599990844727
727.2311222,-33.7400016784668
727.2467472,-28.4400005340576
727.2623722,-23.7099990844727
727.2779972,-19.8899993896484
727.2936222,-16.9300003051758
727.3092472,-14.5100002288818
727.3248722,-12.1400003433228
727.3404972,-9.32999992370605
727.3561222,-5.75
727.3717472,-1.39999997615814
727.3873722,3.50999999046326
727.4029972,8.84000015258789
727.4186222,14.4899997711182
727.4342472,20.2999992370605
727.4498722,25.8500003814697
727.4654972,30.5499992370605
727.4811222,34.0499992370605
727.4967472,36.6199989318848
727.5123722,38.8699989318848
727.5279972,41.1800003051758
727.5436222,43.4300003051758
727.5592472,45.3300018310547
727.5748722,46.689998626709
727.5904972,47.4599990844727
727.6061222,47.689998626709
727.6217472,47.3699989318848
727.6373722,46.4099998474121
727.6529972,44.8800010681152
727.6686222,42.9300003051758
727.6842472,40.7299995422363
727.6998722,38.6300010681152
727.7154972,36.7000007629395
727.7311222,34.8400001525879
727.7467472,32.7200012207031
727.7623722,29.9400005340576
727.7779972,26.1399993896484
727.7936222,21.2299995422363
727.8092472,15.4300003051758
727.8248722,9.22999954223633
727.8404972,3.09999990463257
727.8561222,-2.59999990463257
727.8717472,-7.78000020980835
727.8873722,-12.5100002288818
727.9029972,-17.0100002288818
727.9186222,-21.4500007629395
727.9342472,-25.9099998474121
727.9498722,-30.3999996185303
727.9654972,-34.9000015258789
727.9811222,-39.4199981689453
727.9967472,-43.8699989318848
728.0123722,-47.9799995422363
728.0279972,-51.2900009155273
728.0436222,-53.4000015258789
728.0592472,-54.3199996948242
728.0748722,-54.3699989318848
728.0904972,-53.9300003051758
728.1061222,-53.25
728.1217472,-52.4599990844727
728.1373722,-51.5999984741211
728.1529972,-50.6399993896484
728.1686222,-49.4300003051758
728.1842472,-47.6599998474121
728.1998722,-45.0299987792969
728.2154972,-41.5200004577637
728.2311222,-37.3800010681152
728.2467472,-32.9500007629395
728.2623722,-28.5100002288818
728.2779972,-24.2600002288818
728.2936222,-20.4099998474121
728.3092472,-17.2099990844727
728.3248722,-14.8100004196167
728.3404972,-13.1000003814697
728.3561222,-11.7799997329712
728.3717472,-10.5900001525879
728.3873722,-9.42000007629395
728.4029972,-8.27999973297119
728.4186222,-7.21000003814697
728.4342472,-6.23999977111816
728.4498722,-5.26999998092651
728.4654972,-4.1100001335144
728.4811222,-2.5699999332428
728.4967472,-0.620000004768372
728.5123722,1.58000004291534
728.5279972,3.80999994277954
728.5436222,5.84999990463257
728.5592472,7.55999994277954
728.5748722,8.82999992370605
728.5904972,9.46000003814697
728.6061222,9.31999969482422
728.6217472,8.51000022888184
728.6373722,7.32999992370605
728.6529972,6.17000007629395
728.6686222,5.34000015258789
728.6842472,4.8899998664856
728.6998722,4.92999982833862
728.7154972,5.30999994277954
728.7311222,5.78000020980835
728.7467472,6.11999988555908
728.7623722,6.1100001335144
728.7779972,5.57000017166138
728.7936222,4.40999984741211
728.8092472,2.67000007629395
728.8248722,0.509999990463257
728.8404972,-1.80999994277954
728.8561222,-4.07000017166138
728.8717472,-6.09999990463257
728.8873722,-7.76999998092651
728.9029972,-8.98999977111816
728.9186222,-9.69999980926514
728.9342472,-9.96000003814697
728.9498722,-9.92000007629395
728.9654972,-9.77999973297119
728.9811222,-9.65999984741211
728.9967472,-9.64000034332275
729.0123722,-9.67000007629395
729.0279972,-9.71000003814697
729.0436222,-9.81999969482422
729.0592472,-10.1899995803833
729.0748722,-11.039999961853
729.0904972,-12.4099998474121
729.1061222,-14.1300001144409
729.1217472,-15.8999996185303
729.1373722,-17.5100002288818
729.1529972,-18.8099994659424
729.1686222,-19.6900005340576
729.1842472,-20.0100002288818
729.1998722,-19.6399993896484
729.2154972,-18.6399993896484
729.2311222,-17.25
729.2467472,-15.8199996948242
729.2623722,-14.6599998474121
729.2779972,-13.8699998855591
729.2936222,-13.3900003433228
729.3092472,-13.039999961853
729.3248722,-12.6700000762939
729.3404972,-12.1899995803833
729.3561222,-11.5500001907349
729.3717472,-10.7299995422363
729.3873722,-9.69999980926514
729.4029972,-8.47999954223633
729.4186222,-7.15000009536743
729.4342472,-5.80000019073486
729.4498722,-4.55000019073486
729.4654972,-3.49000000953674
729.4811222,-2.70000004768372
729.4967472,-2.16000008583069
729.5123722,-1.85000002384186
729.5279972,-1.76999998092651
729.5436222,-1.95000004768372
729.5592472,-2.34999990463257
729.5748722,-2.83999991416931
729.5904972,-3.26999998092651
729.6061222,-3.59999990463257
729.6217472,-4.01999998092651
729.6373722,-4.76999998092651
729.6529972,-5.8899998664856
729.6686222,-7.15999984741211
729.6842472,-8.6899995803833
729.6998722,-9.97000026702881
729.7154972,-10.9099998474121
729.7311222,-11.5100002288818
729.7467472,-11.75
729.7623722,-11.6000003814697
729.7779972,-11.039999961853
729.7936222,-10.1700000762939
729.8092472,-9.14000034332275
729.8248722,-8.06999969482422
729.8404972,-7.03999996185303
729.8561222,-5.92999982833862
729.8717472,-4.48000001907349
729.8873722,-2.28999996185303
729.9029972,1.0
729.9186222,5.51000022888184
729.9342472,11.0200004577637
729.9498722,17.0300006866455
729.9654972,23.0499992370605
729.9811222,28.7000007629395
729.9967472,33.8400001525879
730.0123722,38.3699989318848
730.0279972,42.189998626709
730.0436222,45.1699981689453
730.0592472,47.2799987792969
730.0748722,48.4799995422363
730.0904972,48.5800018310547
730.1061222,47.3699989318848
730.1217472,44.9300003051758
730.1373722,41.6199989318848
730.1529972,37.9099998474121
730.1686222,34.1599998474121
730.1842472,30.5699996948242
730.1998722,27.3500003814697
730.2154972,24.9500007629395
730.2311222,23.8099994659424
730.2467472,24.0400009155273
730.2623722,25.2999992370605
730.2779972,27.0400009155273
730.2936222,28.7199993133545
730.3092472,30.0799999237061
730.3248722,31.0900001525879
730.3404972,31.7999992370605
730.3561222,32.0900001525879
730.3717472,31.4799995422363
730.3873722,29.4599990844727
730.4029972,25.9599990844727
730.4186222,21.4400005340576
730.4342472,16.6700000762939
730.4498722,12.2399997711182
730.4654972,8.32999992370605
730.4811222,5.0
730.4967472,2.5699999332428
730.5123722,1.49000000953674
730.5279972,1.97000002861023
730.5436222,3.79999995231628
730.5592472,6.40999984741211
730.5748722,9.3100004196167
730.5904972,12.2200002670288
730.6061222,14.9399995803833
730.6217472,17.1100006103516
730.6373722,18.2700004577637
730.6529972,18.1599998474121
730.6686222,16.9599990844727
730.6842472,15.4799995422363
730.6998722,13.7299995422363
730.7154972,12.1899995803833
730.7311222,11.3199996948242
730.7467472,11.7600002288818
730.7623722,13.9899997711182
730.7779972,18.0
730.7936222,23.1200008392334
730.8092472,28.3099994659424
730.8248722,32.6800003051758
730.8404972,35.810001373291
730.8561222,37.7999992370605
730.8717472,39.0
730.8873722,39.9300003051758
730.9029972,41.189998626709
730.9186222,43.3899993896484
730.9342472,46.8499984741211
730.9498722,51.5299987792969
730.9654972,57.0
730.9811222,62.6300010681152
730.9967472,67.9100036621094
731.0123722,72.4300003051758
731.0279972,75.9499969482422
731.0436222,78.370002746582
731.0592472,79.9199981689453
731.0748722,81.3300018310547
731.0904972,83.8000030517578
731.1061222,88.3899993896484
731.1217472,95.2600021362305
731.1373722,103.580001831055
731.1529972,111.980003356934
731.1686222,119.209999084473
731.1842472,124.449996948242
731.1998722,127.23999786377
731.2154972,127.129997253418
731.2311222,123.930000305176
731.2467472,118.050003051758
731.2623722,110.51000213623
731.2779972,102.169998168945
731.2936222,92.5299987792969
731.3092472,79.2799987792969
731.3248722,59.8600006103516
731.3404972,33.6100006103516
731.3561222,1.94000005722046
731.3717472,-33.060001373291
731.3873722,-69.5999984741211
731.4029972,-105.900001525879
731.4186222,-139.300003051758
731.4342472,-166.130004882813
731.4498722,-183.770004272461
731.4654972,-192.690002441406
731.4811222,-195.770004272461
731.4967472,-195.800003051758
731.5123722,-194.179992675781
731.5279972,-191.270004272461
731.5436222,-187.149993896484
731.5592472,-182.149993896484
731.5748722,-176.990005493164
731.5904972,-172.720001220703
731.6061222,-170.179992675781
731.6217472,-169.460006713867
731.6373722,-169.779998779297
731.6529972,-169.839996337891
731.6686222,-168.539993286133
731.6842472,-166.179992675781
731.6998722,-161.259994506836
731.7154972,-152.669998168945
731.7311222,-138.610000610352
731.7467472,-117.51000213623
731.7623722,-89.3000030517578
731.7779972,-56.1300010681152
731.7936222,-21.5300006866455
731.8092472,11.3000001907349
731.8248722,40.6399993896484
731.8404972,66.4400024414063
731.8561222,89.8300018310547
731.8717472,112.360000610352
731.8873722,135.169998168945
731.9029972,158.600006103516
731.9186222,182.449996948242
731.9342472,206.649993896484
731.9498722,231.210006713867
731.9654972,255.660003662109
731.9811222,278.170013427734
731.9967472,295.679992675781
732.0123722,305.730010986328
732.0279972,308.450012207031
732.0436222,306.109985351563
732.0592472,301.25
732.0748722,295.350006103516
732.0904972,288.910003662109
732.1061222,281.929992675781
732.1217472,274.559997558594
732.1373722,267.630004882813
732.1529972,262.850006103516
732.1686222,261.769989013672
732.1842472,264.820007324219
732.1998722,271.529998779297
732.2154972,281.519989013672
732.2311222,294.540008544922
732.2467472,309.630004882813
732.2623722,324.279998779297
732.2779972,327.670013427734
732.2936222,327.670013427734
732.3092472,327.670013427734
732.3248722,317.100006103516
732.3404972,296.920013427734
732.3561222,272.239990234375
732.3717472,244.75
732.3873722,216.179992675781
732.4029972,188.130004882813
732.4186222,162.089996337891
732.4342472,139.449996948242
732.4498722,121.069999694824
732.4654972,106.930000305176
732.4811222,96.9599990844727
732.4967472,91.8300018310547
732.5123722,92.3899993896484
732.5279972,98.2200012207031
732.5436222,107.019996643066
732.5592472,115.349998474121
732.5748722,120.230003356934
732.5904972,120.190002441406
732.6061222,114.730003356934
732.6217472,103.300003051758
732.6373722,85.5599975585938
732.6529972,62.3800010681152
732.6686222,35.9199981689453
732.6842472,8.86999988555908
732.6998722,-15.1199998855591
732.7154972,-33.7299995422363
732.7311222,-45.8300018310547
732.7467472,-51.9799995422363
732.7623722,-53.7999992370605
732.7779972,-52.810001373291
732.7936222,-49.939998626709
732.8092472,-46.0200004577637
732.8248722,-42.4099998474121
732.8404972,-41.0200004577637
732.8561222,-43.0299987792969
732.8717472,-47.8499984741211
732.8873722,-53.8800010681152
732.9029972,-59.8899993896484
732.9186222,-65.1600036621094
732.9342472,-68.8000030517578
732.9498722,-69.7799987792969
732.9654972,-67.9300003051758
732.9811222,-64.4300003051758
732.9967472,-61.3300018310547
733.0123722,-59.7799987792969
733.0279972,-58.8899993896484
733.0436222,-57.060001373291
733.0592472,-54.0400009155273
733.0748722,-51.2000007629395
733.0904972,-50.189998626709
733.1061222,-51.7000007629395
733.1217472,-55.7000007629395
733.1373722,-63.2099990844727
733.1529972,-77.3399963378906
733.1686222,-101.230003356934
733.1842472,-135.800003051758
733.1998722,-180.929992675781
733.2154972,-237.919998168945
733.2311222,-308.200012207031
733.2467472,-327.679992675781
733.2623722,-327.679992675781
733.2779972,-327.679992675781
733.2936222,-327.679992675781
733.3092472,-327.679992675781
733.3248722,-327.679992675781
733.3404972,-327.679992675781
733.3561222,-327.679992675781
733.3717472,-327.679992675781
733.3873722,-327.679992675781
733.4029972,-327.679992675781
733.4186222,-327.679992675781
733.4342472,-327.679992675781
733.4498722,-327.679992675781
733.4654972,-327.679992675781
733.4811222,-327.679992675781
733.4967472,-327.679992675781
733.5123722,-327.679992675781
733.5279972,-327.679992675781
733.5436222,-327.679992675781
733.5592472,-327.679992675781
733.5748722,-327.679992675781
733.5904972,-327.679992675781
733.6061222,-327.679992675781
733.6217472,-327.679992675781
733.6373722,-298.820007324219
733.6529972,-210.020004272461
733.6686222,-131.050003051758
733.6842472,-62.3300018310547
733.6998722,-3.70000004768372
733.7154972,42.9599990844727
733.7311222,75.120002746582
733.7467472,92.8199996948242
733.7623722,100.050003051758
733.7779972,103.160003662109
733.7936222,107.879997253418
733.8092472,117.069999694824
733.8248722,130.449996948242
733.8404972,146.020004272461
733.8561222,162.130004882813
733.8717472,178.630004882813
733.8873722,196.110000610352
733.9029972,214.339996337891
733.9186222,232.050003051758
733.9342472,247.869995117188
733.9498722,261.130004882813
733.9654972,271.980010986328
733.9811222,280.809997558594
733.9967472,287.730010986328
734.0123722,292.619995117188
734.0279972,295.5
734.0436222,296.720001220703
734.0592472,296.790008544922
734.0748722,296.190002441406
734.0904972,295.160003662109
734.1061222,293.540008544922
734.1217472,290.720001220703
734.1373722,286.100006103516
734.1529972,279.589996337891
734.1686222,271.809997558594
734.1842472,263.739990234375
734.1998722,256.209991455078
734.2154972,249.570007324219
734.2311222,243.75
734.2467472,238.479995727539
734.2623722,233.830001831055
734.2779972,230.449996948242
734.2936222,229.080001831055
734.3092472,229.940002441406
734.3248722,232.699996948242
734.3404972,236.899993896484
734.3561222,242.139999389648
734.3717472,247.880004882813
734.3873722,253.169998168945
734.4029972,256.630004882813
734.4186222,257.149993896484
734.4342472,254.419998168945
734.4498722,248.949996948242
734.4654972,241.410003662109
734.4811222,232.389999389648
734.4967472,222.419998168945
734.5123722,212.029998779297
734.5279972,201.570007324219
734.5436222,190.779998779297
734.5592472,178.610000610352
734.5748722,163.960006713867
734.5904972,146.639999389648
734.6061222,127.540000915527
734.6217472,108.120002746582
734.6373722,89.6600036621094
734.6529972,73.0699996948242
734.6686222,59.7000007629395
734.6842472,52.1800003051758
734.6998722,52.0099983215332
734.7154972,59.1399993896484
