Time(s),Value(%)
724.0123722,11.9499998092651
724.0279972,8.09000015258789
724.0436222,4.55000019073486
724.0592472,1.00999999046326
724.0748722,-2.50999999046326
724.0904972,-6.05000019073486
724.1061222,-9.76000022888184
724.1217472,-13.5500001907349
724.1373722,-16.9099998474121
724.1529972,-19.1399993896484
724.1686222,-19.7800006866455
724.1842472,-18.9099998474121
724.1998722,-17.0799999237061
724.2154972,-15.1499996185303
724.2311222,-13.8100004196167
724.2467472,-13.2700004577637
724.2623722,-13.210000038147
724.2779972,-13.1499996185303
724.2936222,-12.8999996185303
724.3092472,-12.6800003051758
724.3248722,-12.8400001525879
724.3404972,-13.5299997329712
724.3561222,-14.5600004196167
724.3717472,-15.4200000762939
724.3873722,-15.5900001525879
724.4029972,-14.8100004196167
724.4186222,-13.3000001907349
724.4342472,-11.6099996566772
724.4498722,-10.3999996185303
724.4654972,-10.0
724.4811222,-10.3199996948242
724.4967472,-10.960000038147
724.5123722,-11.5500001907349
724.5279972,-11.7700004577637
724.5436222,-11.2799997329712
724.5592472,-9.81999969482422
724.5748722,-7.42999982833862
724.5904972,-4.48999977111816
724.6061222,-1.33000004291534
724.6217472,2.16000008583069
724.6373722,6.40999984741211
724.6529972,11.710000038147
724.6686222,17.8999996185303
724.6842472,24.4599990844727
724.6998722,30.6700000762939
724.7154972,35.8300018310547
724.7311222,39.4199981689453
724.7467472,41.2599983215332
724.7623722,41.5900001525879
724.7779972,40.9599990844727
724.7936222,39.8600006103516
724.8092472,38.439998626709
724.8248722,36.5
724.8404972,33.6300010681152
724.8561222,29.3299999237061
724.8717472,23.4099998474121
724.8873722,16.0799999237061
724.9029972,7.90999984741211
724.9186222,-0.300000011920929
724.9342472,-7.57000017166138
724.9498722,-12.8800001144409
724.9654972,-15.6300001144409
724.9811222,-16.1200008392334
724.9967472,-15.3299999237061
725.0123722,-14.25
725.0279972,-13.3100004196167
725.0436222,-12.3199996948242
725.0592472,-10.8999996185303
725.0748722,-9.03999996185303
725.0904972,-7.3600001335144
725.1061222,-6.75
725.1217472,-7.8899998664856
725.1373722,-10.7600002288818
725.1529972,-14.6599998474121
725.1686222,-18.4899997711182
725.1842472,-21.4099998474121
725.1998722,-23.1800003051758
725.2154972,-23.9899997711182
725.2311222,-24.1700000762939
725.2467472,-23.9099998474121
725.2623722,-23.3999996185303
725.2779972,-22.7399997711182
725.2936222,-21.9899997711182
725.3092472,-21.0599994659424
725.3248722,-19.6299991607666
725.3404972,-17.3299999237061
725.3561222,-14.2200002670288
725.3717472,-10.9200000762939
725.3873722,-8.22999954223633
725.4029972,-6.59999990463257
725.4186222,-5.92999982833862
725.4342472,-5.76000022888184
725.4498722,-5.59000015258789
725.4654972,-5.21000003814697
725.4811222,-4.42999982833862
725.4967472,-2.92000007629395
725.5123722,-0.280000001192093
725.5279972,3.79999995231628
725.5436222,9.38000011444092
725.5592472,16.0300006866455
725.5748722,22.7800006866455
725.5904972,28.3899993896484
725.6061222,31.7999992370605
725.6217472,32.75
725.6373722,31.9699993133545
725.6529972,30.6700000762939
725.6686222,29.6700000762939
725.6842472,29.0599994659424
725.6998722,28.6399993896484
725.7154972,28.3500003814697
725.7311222,28.1599998474121
725.7467472,27.8700008392334
725.7623722,27.0499992370605
725.7779972,25.0599994659424
725.7936222,21.1100006103516
725.8092472,14.960000038147
725.8248722,7.3600001335144
725.8404972,-0.0399999991059303
725.8561222,-5.59999990463257
725.8717472,-8.57999992370605
725.8873722,-9.44999980926514
725.9029972,-9.40999984741211
725.9186222,-9.5600004196167
725.9342472,-10.4300003051758
725.9498722,-11.960000038147
725.9654972,-13.7200002670288
725.9811222,-15.210000038147
725.9967472,-16.1700000762939
726.0123722,-16.5200004577637
726.0279972,-16.5
726.0436222,-16.5100002288818
726.0592472,-16.7800006866455
726.0748722,-17.1800003051758
726.0904972,-17.3799991607666
726.1061222,-17.1499996185303
726.1217472,-16.5300006866455
726.1373722,-15.8000001907349
726.1529972,-15.3500003814697
726.1686222,-15.3000001907349
726.1842472,-15.4899997711182
726.1998722,-15.75
726.2154972,-15.8800001144409
726.2311222,-15.5799999237061
726.2467472,-14.6499996185303
726.2623722,-13.2600002288818
726.2779972,-11.9200000762939
726.2936222,-11.1099996566772
726.3092472,-11.1300001144409
726.3248722,-11.9799995422363
726.3404972,-13.1700000762939
726.3561222,-13.8599996566772
726.3717472,-13.3100004196167
726.3873722,-11.1999998092651
726.4029972,-7.48000001907349
726.4186222,-2.28999996185303
726.4342472,3.9300000667572
726.4498722,10.5
726.4654972,16.6100006103516
726.4811222,21.5499992370605
726.4967472,24.8700008392334
726.5123722,26.7099990844727
726.5279972,27.7199993133545
726.5436222,28.2999992370605
726.5592472,28.2600002288818
726.5748722,27.2800006866455
726.5904972,25.4300003051758
726.6061222,23.1800003051758
726.6217472,21.1200008392334
726.6373722,19.5100002288818
726.6529972,18.0300006866455
726.6686222,16.1200008392334
726.6842472,13.4799995422363
726.6998722,10.1999998092651
726.7154972,6.48000001907349
726.7311222,2.50999999046326
726.7467472,-1.45000004768372
726.7623722,-5.0
726.7779972,-7.65999984741211
726.7936222,-8.98999977111816
726.8092472,-8.72999954223633
726.8248722,-7.1100001335144
726.8404972,-5.0
726.8561222,-3.67000007629395
726.8717472,-3.97000002861023
726.8873722,-5.92999982833862
726.9029972,-8.88000011444092
726.9186222,-12.0
726.9342472,-14.5900001525879
726.9498722,-16.2299995422363
726.9654972,-16.7800006866455
726.9811222,-16.3299999237061
726.9967472,-15.1800003051758
727.0123722,-13.8699998855591
727.0279972,-13.1099996566772
727.0436222,-13.1899995803833
727.0592472,-13.6999998092651
727.0748722,-13.7700004577637
727.0904972,-12.6499996185303
727.1061222,-10.1099996566772
727.1217472,-6.57999992370605
727.1373722,-3.04999995231628
727.1529972,-0.490000009536743
727.1686222,0.759999990463257
727.1842472,1.14999997615814
727.1998722,1.42999994754791
727.2154972,1.97000002861023
727.2311222,2.53999996185303
727.2467472,2.74000000953674
727.2623722,2.34999990463257
727.2779972,1.74000000953674
727.2936222,1.9099999666214
727.3092472,3.99000000953674
727.3248722,8.0600004196167
727.3404972,12.7799997329712
727.3561222,16.4500007629395
727.3717472,18.2199993133545
727.3873722,18.4400005340576
727.4029972,17.9200000762939
727.4186222,17.25
727.4342472,16.6399993896484
727.4498722,16.1000003814697
727.4654972,15.5100002288818
727.4811222,14.7299995422363
727.4967472,13.6800003051758
727.5123722,12.0900001525879
727.5279972,9.51000022888184
727.5436222,5.6399998664856
727.5592472,0.730000019073486
727.5748722,-4.40999984741211
727.5904972,-8.82999992370605
727.6061222,-12.0
727.6217472,-14.0
727.6373722,-15.1499996185303
727.6529972,-15.6199998855591
727.6686222,-15.4799995422363
727.6842472,-14.8900003433228
727.6998722,-14.0500001907349
727.7154972,-12.9700002670288
727.7311222,-11.5
727.7467472,-9.69999980926514
727.7623722,-8.14000034332275
727.7779972,-7.48999977111816
727.7936222,-7.94000005722046
727.8092472,-9.02000045776367
727.8248722,-9.97999954223633
727.8404972,-10.1099996566772
727.8561222,-9.06999969482422
727.8717472,-7.21000003814697
727.8873722,-5.59000015258789
727.9029972,-5.3600001335144
727.9186222,-6.96999979019165
727.9342472,-9.67000007629395
727.9498722,-11.8000001907349
727.9654972,-11.9300003051758
727.9811222,-9.78999996185303
727.9967472,-6.40000009536743
728.0123722,-3.27999997138977
728.0279972,-1.52999997138977
728.0436222,-1.25999999046326
728.0592472,-1.85000002384186
728.0748722,-2.66000008583069
728.0904972,-3.38000011444092
728.1061222,-3.92000007629395
728.1217472,-4.09999990463257
728.1373722,-3.60999989509583
728.1529972,-2.02999997138977
728.1686222,0.930000007152557
728.1842472,5.26000022888184
728.1998722,10.4099998474121
728.2154972,15.4799995422363
728.2311222,19.6599998474121
728.2467472,22.5599994659424
728.2623722,24.1399993896484
728.2779972,24.4599990844727
728.2936222,23.6399993896484
728.3092472,22.1100006103516
728.3248722,20.6399993896484
728.3404972,20.0
728.3561222,20.2399997711182
728.3717472,20.5799999237061
728.3873722,20.0699996948242
728.4029972,18.2700004577637
728.4186222,15.3900003433228
728.4342472,11.8500003814697
728.4498722,7.8899998664856
728.4654972,3.74000000953674
728.4811222,-0.100000001490116
728.4967472,-3.21000003814697
728.5123722,-5.51000022888184
728.5279972,-7.13000011444092
728.5436222,-8.13000011444092
728.5592472,-8.5
728.5748722,-8.38000011444092
728.5904972,-8.35999965667725
728.6061222,-9.14000034332275
728.6217472,-10.9700002670288
728.6373722,-13.3599996566772
728.6529972,-15.3800001144409
728.6686222,-16.1599998474121
728.6842472,-15.3599996566772
728.6998722,-13.3100004196167
728.7154972,-10.7700004577637
728.7311222,-8.60999965667725
728.7467472,-7.51000022888184
728.7623722,-7.82999992370605
728.7779972,-9.5
728.7936222,-11.9399995803833
728.8092472,-14.1999998092651
728.8248722,-15.4200000762939
728.8404972,-15.3100004196167
728.8561222,-14.2399997711182
728.8717472,-12.7299995422363
728.8873722,-11.1000003814697
728.9029972,-9.32999992370605
728.9186222,-7.19000005722046
728.9342472,-4.51999998092651
728.9498722,-1.58000004291534
728.9654972,0.850000023841858
728.9811222,1.87999999523163
728.9967472,1.14999997615814
729.0123722,-0.589999973773956
729.0279972,-1.9099999666214
729.0436222,-1.66999995708466
729.0592472,0.490000009536743
729.0748722,4.36999988555908
729.0904972,9.5600004196167
729.1061222,15.5
729.1217472,21.3500003814697
729.1373722,26.1700000762939
729.1529972,29.1900005340576
729.1686222,30.1299991607666
729.1842472,29.4300003051758
729.1998722,28.0699996948242
729.2154972,26.9400005340576
729.2311222,26.2399997711182
729.2467472,25.5
729.2623722,24.1800003051758
729.2779972,22.0300006866455
729.2936222,18.8700008392334
729.3092472,14.710000038147
729.3248722,9.85000038146973
729.3404972,4.84999990463257
729.3561222,0.259999990463257
729.3717472,-3.40000009536743
729.3873722,-5.69000005722046
729.4029972,-6.51999998092651
729.4186222,-6.42999982833862
729.4342472,-6.30999994277954
729.4498722,-6.61999988555908
729.4654972,-7.13000011444092
729.4811222,-7.34000015258789
729.4967472,-7.03000020980835
729.5123722,-6.5
729.5279972,-6.28999996185303
729.5436222,-6.86999988555908
729.5592472,-8.27000045776367
729.5748722,-10.039999961853
729.5904972,-11.4399995803833
729.6061222,-11.8400001525879
729.6217472,-11.1199998855591
729.6373722,-9.75
729.6529972,-8.55000019073486
729.6686222,-8.13000011444092
729.6842472,-8.46000003814697
729.6998722,-8.96000003814697
729.7154972,-9.10000038146973
729.7311222,-8.9399995803833
729.7467472,-8.90999984741211
729.7623722,-9.10000038146973
729.7779972,-9.03999996185303
729.7936222,-8.15999984741211
729.8092472,-6.36999988555908
729.8248722,-4.28000020980835
729.8404972,-2.91000008583069
729.8561222,-3.0699999332428
729.8717472,-4.73999977111816
729.8873722,-7.0
729.9029972,-8.52999973297119
729.9186222,-8.38000011444092
729.9342472,-6.28000020980835
729.9498722,-2.5699999332428
729.9654972,2.27999997138977
729.9811222,7.78000020980835
729.9967472,13.1899995803833
730.0123722,17.5799999237061
730.0279972,20.0900001525879
730.0436222,20.5699996948242
730.0592472,19.6200008392334
730.0748722,18.0699996948242
730.0904972,16.2399997711182
730.1061222,14.1000003814697
730.1217472,11.8500003814697
730.1373722,9.98999977111816
730.1529972,8.92000007629395
730.1686222,8.44999980926514
730.1842472,7.61999988555908
730.1998722,5.34999990463257
730.2154972,1.27999997138977
730.2311222,-3.99000000953674
730.2467472,-9.31999969482422
730.2623722,-13.5200004577637
730.2779972,-15.6999998092651
730.2936222,-15.5699996948242
730.3092472,-13.4899997711182
730.3248722,-10.3900003433228
730.3404972,-7.46000003814697
730.3561222,-5.57000017166138
730.3717472,-4.92999982833862
730.3873722,-5.32000017166138
730.4029972,-6.42999982833862
730.4186222,-7.84000015258789
730.4342472,-8.94999980926514
730.4498722,-9.17000007629395
730.4654972,-8.35999965667725
730.4811222,-7.03000020980835
730.4967472,-6.03999996185303
730.5123722,-5.98000001907349
730.5279972,-6.90000009536743
730.5436222,-8.42000007629395
730.5592472,-9.97999954223633
730.5748722,-11.0799999237061
730.5904972,-11.3500003814697
730.6061222,-10.5900001525879
730.6217472,-8.85000038146973
730.6373722,-6.48000001907349
730.6529972,-4.0
730.6686222,-1.87999999523163
730.6842472,-0.319999992847443
730.6998722,0.649999976158142
730.7154972,0.879999995231628
730.7311222,0.0
730.7467472,-2.00999999046326
730.7623722,-4.36999988555908
730.7779972,-5.98000001907349
730.7936222,-6.09999990463257
730.8092472,-4.51999998092651
730.8248722,-1.12999999523163
730.8404972,4.09000015258789
730.8561222,10.8500003814697
730.8717472,18.3099994659424
730.8873722,25.1800003051758
730.9029972,30.0799999237061
730.9186222,32.1300010681152
730.9342472,31.2999992370605
730.9498722,28.3799991607666
730.9654972,24.5599994659424
730.9811222,20.9500007629395
730.9967472,18.3899993896484
731.0123722,17.25
731.0279972,17.1299991607666
731.0436222,17.0100002288818
731.0592472,15.789999961853
731.0748722,12.8199996948242
731.0904972,8.14000034332275
731.1061222,2.49000000953674
731.1217472,-3.0699999332428
731.1373722,-7.67999982833862
731.1529972,-11.0900001525879
731.1686222,-13.6899995803833
731.1842472,-15.9700002670288
731.1998722,-17.9899997711182
731.2154972,-19.3299999237061
731.2311222,-19.5300006866455
731.2467472,-18.7600002288818
731.2623722,-17.9500007629395
731.2779972,-18.1900005340576
731.2936222,-19.8600006103516
731.3092472,-22.4200000762939
731.3248722,-24.7299995422363
731.3404972,-25.7800006866455
731.3561222,-25.3099994659424
731.3717472,-23.8099994659424
731.3873722,-22.0
731.4029972,-20.3700008392334
731.4186222,-19.2199993133545
731.4342472,-18.6100006103516
731.4498722,-18.2299995422363
731.4654972,-17.5
731.4811222,-15.8800001144409
731.4967472,-13.2700004577637
731.5123722,-10.0600004196167
731.5279972,-6.90000009536743
731.5436222,-4.5
731.5592472,-3.22000002861023
731.5748722,-3.0699999332428
731.5904972,-3.70000004768372
731.6061222,-4.53000020980835
731.6217472,-5.01999998092651
731.6373722,-4.98999977111816
731.6529972,-4.51999998092651
731.6686222,-3.73000001907349
731.6842472,-2.61999988555908
731.6998722,-0.870000004768372
731.7154972,2.07999992370605
731.7311222,6.82999992370605
731.7467472,13.4300003051758
731.7623722,20.9300003051758
731.7779972,27.6200008392334
731.7936222,31.9500007629395
731.8092472,33.5099983215332
731.8248722,32.9900016784668
731.8404972,31.4899997711182
731.8561222,29.9099998474121
731.8717472,28.7199993133545
731.8873722,28.1599998474121
731.9029972,28.4599990844727
731.9186222,29.8199996948242
731.9342472,32.0999984741211
731.9498722,34.5099983215332
731.9654972,35.689998626709
731.9811222,34.4900016784668
731.9967472,30.6200008392334
732.0123722,24.8799991607666
732.0279972,18.6100006103516
732.0436222,13.1000003814697
732.0592472,9.05000019073486
732.0748722,6.44999980926514
732.0904972,4.65000009536743
732.1061222,2.76999998092651
732.1217472,0.209999993443489
732.1373722,-2.95000004768372
732.1529972,-6.11999988555908
732.1686222,-8.63000011444092
732.1842472,-10.289999961853
732.1998722,-11.539999961853
732.2154972,-13.0299997329712
732.2311222,-14.960000038147
732.2467472,-16.9099998474121
732.2623722,-18.2999992370605
732.2779972,-19.0200004577637
732.2936222,-19.4699993133545
732.3092472,-20.1700000762939
732.3248722,-21.2800006866455
732.3404972,-22.7399997711182
732.3561222,-24.4300003051758
732.3717472,-26.1900005340576
732.3873722,-27.7600002288818
732.4029972,-28.8700008392334
732.4186222,-29.4300003051758
732.4342472,-29.5200004577637
732.4498722,-29.2299995422363
732.4654972,-28.5300006866455
732.4811222,-27.4599990844727
732.4967472,-26.1200008392334
732.5123722,-24.6299991607666
732.5279972,-23.0900001525879
732.5436222,-21.5599994659424
732.5592472,-19.8500003814697
732.5748722,-17.2999992370605
732.5904972,-13.0900001525879
732.6061222,-6.82000017166138
732.6217472,1.12999999523163
732.6373722,9.67000007629395
732.6529972,17.4200000762939
732.6686222,23.3500003814697
732.6842472,27.2800006866455
732.6998722,29.6299991607666
732.7154972,31.0400009155273
732.7311222,31.8400001525879
732.7467472,31.9400005340576
732.7623722,31.1200008392334
732.7779972,29.5599994659424
732.7936222,27.6599998474121
732.8092472,25.5
732.8248722,22.5300006866455
732.8404972,18.0599994659424
732.8561222,12.0799999237061
732.8717472,5.42000007629395
732.8873722,-0.730000019073486
732.9029972,-5.55000019073486
732.9186222,-8.73999977111816
732.9342472,-10.3999996185303
732.9498722,-10.6999998092651
732.9654972,-9.97000026702881
732.9811222,-8.72999954223633
732.9967472,-7.51999998092651
733.0123722,-6.69000005722046
733.0279972,-6.30000019073486
733.0436222,-6.21999979019165
733.0592472,-6.26999998092651
733.0748722,-6.32000017166138
733.0904972,-6.3899998664856
733.1061222,-6.55000019073486
733.1217472,-6.80000019073486
733.1373722,-6.96999979019165
733.1529972,-7.03999996185303
733.1686222,-7.26999998092651
733.1842472,-8.02999973297119
733.1998722,-9.23999977111816
733.2154972,-10.3400001525879
733.2311222,-10.8299999237061
733.2467472,-10.7399997711182
733.2623722,-10.4700002670288
733.2779972,-10.3500003814697
733.2936222,-10.3100004196167
733.3092472,-10.0299997329712
733.3248722,-9.31999969482422
733.3404972,-8.39999961853027
733.3561222,-7.6100001335144
733.3717472,-7.05000019073486
733.3873722,-6.34999990463257
733.4029972,-5.07999992370605
733.4186222,-3.05999994277954
733.4342472,-0.280000001192093
733.4498722,3.30999994277954
733.4654972,7.78000020980835
733.4811222,13.1400003433228
733.4967472,19.1299991607666
733.5123722,25.1100006103516
733.5279972,30.2999992370605
733.5436222,34.1800003051758
733.5592472,36.6300010681152
733.5748722,37.9199981689453
733.5904972,38.5499992370605
733.6061222,39.060001373291
733.6217472,39.6100006103516
733.6373722,39.9500007629395
733.6529972,39.6199989318848
733.6686222,38.2900009155273
733.6842472,35.75
733.6998722,31.8799991607666
733.7154972,26.6700000762939
733.7311222,20.3199996948242
733.7467472,13.2399997711182
733.7623722,6.11999988555908
733.7779972,-0.340000003576279
733.7936222,-5.82000017166138
733.8092472,-10.1400003433228
733.8248722,-13.0799999237061
733.8404972,-14.4700002670288
733.8561222,-14.4200000762939
733.8717472,-13.5799999237061
733.8873722,-12.9700002670288
733.9029972,-13.2299995422363
733.9186222,-14.1599998474121
733.9342472,-15.0299997329712
733.9498722,-15.3400001525879
733.9654972,-15.1400003433228
733.9811222,-14.789999961853
733.9967472,-14.6400003433228
734.0123722,-14.8100004196167
734.0279972,-15.1899995803833
734.0436222,-15.6400003433228
734.0592472,-16.1399993896484
734.0748722,-16.7700004577637
734.0904972,-17.5900001525879
734.1061222,-18.6000003814697
734.1217472,-19.6800003051758
734.1373722,-20.5499992370605
734.1529972,-20.8799991607666
734.1686222,-20.6299991607666
734.1842472,-20.0100002288818
734.1998722,-19.1599998474121
734.2154972,-18.0900001525879
734.2311222,-16.7099990844727
734.2467472,-14.960000038147
734.2623722,-12.8500003814697
734.2779972,-10.5200004577637
734.2936222,-8.0
734.3092472,-4.86999988555908
734.3248722,-0.449999988079071
734.3404972,5.51999998092651
734.3561222,12.6199998855591
734.3717472,19.9200000762939
734.3873722,26.5100002288818
734.4029972,31.7700004577637
734.4186222,35.4599990844727
734.4342472,37.5999984741211
734.4498722,38.2599983215332
734.4654972,37.6300010681152
734.4811222,36.2299995422363
734.4967472,34.6800003051758
734.5123722,33.3600006103516
734.5279972,32.0699996948242
734.5436222,30.2199993133545
734.5592472,27.3700008392334
734.5748722,23.4899997711182
734.5904972,18.7600002288818
734.6061222,13.4700002670288
734.6217472,8.02000045776367
734.6373722,2.77999997138977
734.6529972,-1.98000001907349
734.6686222,-6.1399998664856
734.6842472,-9.63000011444092
734.6998722,-12.460000038147
734.7154972,-14.8699998855591
734.7311222,-17.4500007629395
734.7467472,-20.9099998474121
