Time(s),Value(%)
294.0099683,-0.200000002980232
294.0255933,-0.360000014305115
294.0412183,-0.439999997615814
294.0568433,-0.46000000834465
294.0724683,-0.479999989271164
294.0880933,-0.519999980926514
294.1037183,-0.569999992847443
294.1193433,-0.620000004768372
294.1349683,-0.639999985694885
294.1505933,-0.610000014305115
294.1662183,-0.560000002384186
294.1818433,-0.5
294.1974683,-0.5
294.2130933,-0.600000023841858
294.2287183,-0.800000011920929
294.2443433,-1.05999994277954
294.2599683,-1.35000002384186
294.2755933,-1.63999998569489
294.2912183,-1.9099999666214
294.3068433,-2.08999991416931
294.3224683,-2.13000011444092
294.3380933,-2.00999999046326
294.3537183,-1.74000000953674
294.3693433,-1.36000001430511
294.3849683,-0.939999997615814
294.4005933,-0.589999973773956
294.4162183,-0.370000004768372
294.4318433,-0.310000002384186
294.4474683,-0.349999994039536
294.4630933,-0.46000000834465
294.4787183,-0.569999992847443
294.4943433,-0.620000004768372
294.5099683,-0.560000002384186
294.5255933,-0.419999986886978
294.5412183,-0.239999994635582
294.5568433,-0.0700000002980232
294.5724683,0.0700000002980232
294.5880933,0.170000001788139
294.6037183,0.170000001788139
294.6193433,0.0500000007450581
294.6349683,-0.109999999403954
294.6505933,-0.239999994635582
294.6662183,-0.239999994635582
294.6818433,-0.109999999403954
294.6974683,0.0700000002980232
294.7130933,0.259999990463257
294.7287183,0.389999985694885
294.7443433,0.419999986886978
294.7599683,0.370000004768372
294.7755933,0.319999992847443
294.7912183,0.319999992847443
294.8068433,0.389999985694885
294.8224683,0.469999998807907
294.8380933,0.519999980926514
294.8537183,0.550000011920929
294.8693433,0.569999992847443
294.8849683,0.579999983310699
294.9005933,0.579999983310699
294.9162183,0.579999983310699
294.9318433,0.629999995231628
294.9474683,0.730000019073486
294.9630933,0.839999973773956
294.9787183,0.860000014305115
294.9943433,0.75
295.0099683,0.569999992847443
295.0255933,0.409999996423721
295.0412183,0.330000013113022
295.0568433,0.300000011920929
295.0724683,0.300000011920929
295.0880933,0.310000002384186
295.1037183,0.330000013113022
295.1193433,0.340000003576279
295.1349683,0.340000003576279
295.1505933,0.340000003576279
295.1662183,0.330000013113022
295.1818433,0.28999999165535
295.1974683,0.219999998807907
295.2130933,0.140000000596046
295.2287183,0.109999999403954
295.2443433,0.150000005960464
295.2599683,0.25
295.2755933,0.370000004768372
295.2912183,0.479999989271164
295.3068433,0.540000021457672
295.3224683,0.540000021457672
295.3380933,0.519999980926514
295.3537183,0.5
295.3693433,0.5
295.3849683,0.479999989271164
295.4005933,0.400000005960464
295.4162183,0.259999990463257
295.4318433,0.119999997317791
295.4474683,0.0500000007450581
295.4630933,0.0399999991059303
295.4787183,0.0399999991059303
295.4943433,0.0199999995529652
295.5099683,-0.0199999995529652
295.5255933,-0.0500000007450581
295.5412183,-0.0399999991059303
295.5568433,-0.0199999995529652
295.5724683,0.0
295.5880933,0.0199999995529652
295.6037183,0.0099999997764825
295.6193433,-0.0399999991059303
295.6349683,-0.119999997317791
295.6505933,-0.209999993443489
295.6662183,-0.239999994635582
295.6818433,-0.209999993443489
295.6974683,-0.140000000596046
295.7130933,-0.0900000035762787
295.7287183,-0.100000001490116
295.7443433,-0.150000005960464
295.7599683,-0.180000007152557
295.7755933,-0.180000007152557
295.7912183,-0.150000005960464
295.8068433,-0.150000005960464
295.8224683,-0.200000002980232
295.8380933,-0.319999992847443
295.8537183,-0.449999988079071
295.8693433,-0.519999980926514
295.8849683,-0.490000009536743
295.9005933,-0.360000014305115
295.9162183,-0.180000007152557
295.9318433,0.0
295.9474683,0.119999997317791
295.9630933,0.150000005960464
295.9787183,0.100000001490116
295.9943433,0.0500000007450581
296.0099683,0.0399999991059303
296.0255933,0.0700000002980232
296.0412183,0.100000001490116
296.0568433,0.0900000035762787
296.0724683,0.0299999993294477
296.0880933,-0.0500000007450581
296.1037183,-0.150000005960464
296.1193433,-0.200000002980232
296.1349683,-0.189999997615814
296.1505933,-0.0900000035762787
296.1662183,0.0399999991059303
296.1818433,0.170000001788139
296.1974683,0.230000004172325
296.2130933,0.209999993443489
296.2287183,0.109999999403954
296.2443433,-0.0700000002980232
296.2599683,-0.280000001192093
296.2755933,-0.419999986886978
296.2912183,-0.439999997615814
296.3068433,-0.360000014305115
296.3224683,-0.209999993443489
296.3380933,-0.0099999997764825
296.3537183,0.25
296.3693433,0.600000023841858
296.3849683,0.930000007152557
296.4005933,1.13999998569489
296.4162183,1.14999997615814
296.4318433,0.980000019073486
296.4474683,0.699999988079071
296.4630933,0.360000014305115
296.4787183,0.0500000007450581
296.4943433,-0.170000001788139
296.5099683,-0.280000001192093
296.5255933,-0.310000002384186
296.5412183,-0.300000011920929
296.5568433,-0.300000011920929
296.5724683,-0.28999999165535
296.5880933,-0.300000011920929
296.6037183,-0.379999995231628
296.6193433,-0.569999992847443
296.6349683,-0.829999983310699
296.6505933,-1.02999997138977
296.6662183,-1.08000004291534
296.6818433,-0.949999988079071
296.6974683,-0.699999988079071
296.7130933,-0.409999996423721
296.7287183,-0.180000007152557
296.7443433,-0.0099999997764825
296.7599683,0.100000001490116
296.7755933,0.209999993443489
296.7912183,0.300000011920929
296.8068433,0.340000003576279
296.8224683,0.300000011920929
296.8380933,0.200000002980232
296.8537183,0.119999997317791
296.8693433,0.0900000035762787
296.8849683,0.109999999403954
296.9005933,0.159999996423721
296.9162183,0.219999998807907
296.9318433,0.25
296.9474683,0.219999998807907
296.9630933,0.140000000596046
296.9787183,0.0399999991059303
296.9943433,-0.0399999991059303
297.0099683,-0.0900000035762787
297.0255933,-0.0900000035762787
297.0412183,-0.0500000007450581
297.0568433,0.0
297.0724683,0.0199999995529652
297.0880933,0.0
297.1037183,-0.0700000002980232
297.1193433,-0.119999997317791
297.1349683,-0.129999995231628
297.1505933,-0.0900000035762787
297.1662183,-0.0199999995529652
297.1818433,0.0500000007450581
297.1974683,0.129999995231628
297.2130933,0.200000002980232
297.2287183,0.230000004172325
297.2443433,0.189999997615814
297.2599683,0.0799999982118607
297.2755933,-0.0700000002980232
297.2912183,-0.230000004172325
297.3068433,-0.360000014305115
297.3224683,-0.419999986886978
297.3380933,-0.400000005960464
297.3537183,-0.310000002384186
297.3693433,-0.159999996423721
297.3849683,-0.0199999995529652
297.4005933,0.0500000007450581
297.4162183,0.0900000035762787
297.4318433,0.100000001490116
297.4474683,0.100000001490116
297.4630933,0.0799999982118607
297.4787183,0.0
297.4943433,-0.0900000035762787
297.5099683,-0.180000007152557
297.5255933,-0.200000002980232
297.5412183,-0.129999995231628
297.5568433,0.0
297.5724683,0.119999997317791
297.5880933,0.189999997615814
297.6037183,0.219999998807907
297.6193433,0.209999993443489
297.6349683,0.170000001788139
297.6505933,0.0799999982118607
297.6662183,-0.0399999991059303
297.6818433,-0.159999996423721
297.6974683,-0.219999998807907
297.7130933,-0.200000002980232
297.7287183,-0.170000001788139
297.7443433,-0.150000005960464
297.7599683,-0.159999996423721
297.7755933,-0.180000007152557
297.7912183,-0.219999998807907
297.8068433,-0.25
297.8224683,-0.239999994635582
297.8380933,-0.189999997615814
297.8537183,-0.109999999403954
297.8693433,0.0
297.8849683,0.119999997317791
297.9005933,0.259999990463257
297.9162183,0.360000014305115
297.9318433,0.370000004768372
297.9474683,0.270000010728836
297.9630933,0.0900000035762787
297.9787183,-0.119999997317791
297.9943433,-0.28999999165535
298.0099683,-0.379999995231628
298.0255933,-0.370000004768372
298.0412183,-0.280000001192093
298.0568433,-0.159999996423721
298.0724683,-0.0399999991059303
298.0880933,0.0199999995529652
298.1037183,0.0399999991059303
298.1193433,0.0099999997764825
298.1349683,-0.0299999993294477
298.1505933,-0.0799999982118607
298.1662183,-0.129999995231628
298.1818433,-0.150000005960464
298.1974683,-0.109999999403954
298.2130933,-0.0399999991059303
298.2287183,0.0099999997764825
298.2443433,0.0700000002980232
298.2599683,0.129999995231628
298.2755933,0.219999998807907
298.2912183,0.330000013113022
298.3068433,0.46000000834465
298.3224683,0.610000014305115
298.3380933,0.769999980926514
298.3537183,0.949999988079071
298.3693433,1.11000001430511
298.3849683,1.21000003814697
298.4005933,1.20000004768372
298.4162183,1.11000001430511
298.4318433,0.959999978542328
298.4474683,0.769999980926514
298.4630933,0.540000021457672
298.4787183,0.300000011920929
298.4943433,0.100000001490116
298.5099683,-0.0599999986588955
298.5255933,-0.219999998807907
298.5412183,-0.349999994039536
298.5568433,-0.409999996423721
298.5724683,-0.379999995231628
298.5880933,-0.349999994039536
298.6037183,-0.389999985694885
298.6193433,-0.509999990463257
298.6349683,-0.629999995231628
298.6505933,-0.660000026226044
298.6662183,-0.589999973773956
298.6818433,-0.449999988079071
298.6974683,-0.310000002384186
298.7130933,-0.270000010728836
298.7287183,-0.340000003576279
298.7443433,-0.479999989271164
298.7599683,-0.610000014305115
298.7755933,-0.649999976158142
298.7912183,-0.589999973773956
298.8068433,-0.439999997615814
298.8224683,-0.259999990463257
298.8380933,-0.0799999982118607
298.8537183,0.0399999991059303
298.8693433,0.0900000035762787
298.8849683,0.100000001490116
298.9005933,0.0799999982118607
298.9162183,0.0700000002980232
298.9318433,0.0599999986588955
298.9474683,0.0500000007450581
298.9630933,0.0299999993294477
298.9787183,0.0099999997764825
298.9943433,0.0
299.0099683,-0.0099999997764825
299.0255933,-0.0199999995529652
299.0412183,-0.0299999993294477
299.0568433,-0.0399999991059303
299.0724683,-0.0700000002980232
299.0880933,-0.129999995231628
299.1037183,-0.259999990463257
299.1193433,-0.439999997615814
299.1349683,-0.639999985694885
299.1505933,-0.769999980926514
299.1662183,-0.810000002384186
299.1818433,-0.769999980926514
299.1974683,-0.689999997615814
299.2130933,-0.649999976158142
299.2287183,-0.649999976158142
299.2443433,-0.639999985694885
299.2599683,-0.589999973773956
299.2755933,-0.479999989271164
299.2912183,-0.370000004768372
299.3068433,-0.319999992847443
299.3224683,-0.349999994039536
299.3380933,-0.400000005960464
299.3537183,-0.400000005960464
299.3693433,-0.310000002384186
299.3849683,-0.150000005960464
299.4005933,0.0199999995529652
299.4162183,0.140000000596046
299.4318433,0.170000001788139
299.4474683,0.109999999403954
299.4630933,0.0299999993294477
299.4787183,-0.0199999995529652
299.4943433,-0.0599999986588955
299.5099683,-0.0700000002980232
299.5255933,-0.0599999986588955
299.5412183,-0.0099999997764825
299.5568433,0.0500000007450581
299.5724683,0.109999999403954
299.5880933,0.159999996423721
299.6037183,0.189999997615814
299.6193433,0.189999997615814
299.6349683,0.150000005960464
299.6505933,0.0799999982118607
299.6662183,0.0099999997764825
299.6818433,-0.0199999995529652
299.6974683,-0.0199999995529652
299.7130933,-0.0299999993294477
299.7287183,-0.0299999993294477
299.7443433,-0.0199999995529652
299.7599683,0.0
299.7755933,0.0099999997764825
299.7912183,0.0399999991059303
299.8068433,0.0900000035762787
299.8224683,0.170000001788139
299.8380933,0.209999993443489
299.8537183,0.200000002980232
299.8693433,0.159999996423721
299.8849683,0.159999996423721
299.9005933,0.209999993443489
299.9162183,0.300000011920929
299.9318433,0.370000004768372
299.9474683,0.389999985694885
299.9630933,0.370000004768372
299.9787183,0.330000013113022
299.9943433,0.270000010728836
300.0099683,0.200000002980232
300.0255933,0.129999995231628
300.0412183,0.0900000035762787
300.0568433,0.119999997317791
300.0724683,0.200000002980232
300.0880933,0.270000010728836
300.1037183,0.300000011920929
300.1193433,0.25
300.1349683,0.180000007152557
300.1505933,0.150000005960464
300.1662183,0.200000002980232
300.1818433,0.28999999165535
300.1974683,0.319999992847443
300.2130933,0.239999994635582
300.2287183,0.0799999982118607
300.2443433,-0.0399999991059303
300.2599683,-0.0599999986588955
300.2755933,0.0399999991059303
300.2912183,0.189999997615814
300.3068433,0.310000002384186
300.3224683,0.379999995231628
300.3380933,0.469999998807907
300.3537183,0.629999995231628
300.3693433,0.860000014305115
300.3849683,1.07000005245209
300.4005933,1.19000005722046
300.4162183,1.1599999666214
300.4318433,0.980000019073486
300.4474683,0.730000019073486
300.4630933,0.490000009536743
300.4787183,0.319999992847443
300.4943433,0.219999998807907
300.5099683,0.189999997615814
300.5255933,0.200000002980232
300.5412183,0.219999998807907
300.5568433,0.25
300.5724683,0.259999990463257
300.5880933,0.230000004172325
300.6037183,0.0799999982118607
300.6193433,-0.180000007152557
300.6349683,-0.490000009536743
300.6505933,-0.699999988079071
300.6662183,-0.720000028610229
300.6818433,-0.579999983310699
300.6974683,-0.379999995231628
300.7130933,-0.209999993443489
300.7287183,-0.109999999403954
300.7443433,-0.0799999982118607
300.7599683,-0.0799999982118607
300.7755933,-0.0799999982118607
300.7912183,-0.0500000007450581
300.8068433,0.0
300.8224683,0.119999997317791
300.8380933,0.239999994635582
300.8537183,0.340000003576279
300.8693433,0.370000004768372
300.8849683,0.310000002384186
300.9005933,0.189999997615814
300.9162183,0.0599999986588955
300.9318433,0.0
300.9474683,0.0299999993294477
300.9630933,0.129999995231628
300.9787183,0.239999994635582
300.9943433,0.310000002384186
301.0099683,0.330000013113022
301.0255933,0.310000002384186
301.0412183,0.259999990463257
301.0568433,0.209999993443489
301.0724683,0.159999996423721
301.0880933,0.100000001490116
301.1037183,0.0500000007450581
301.1193433,0.0
301.1349683,-0.0500000007450581
301.1505933,-0.109999999403954
301.1662183,-0.170000001788139
301.1818433,-0.209999993443489
301.1974683,-0.230000004172325
301.2130933,-0.25
301.2287183,-0.239999994635582
301.2443433,-0.200000002980232
301.2599683,-0.100000001490116
301.2755933,0.0399999991059303
301.2912183,0.180000007152557
301.3068433,0.239999994635582
301.3224683,0.189999997615814
301.3380933,0.0500000007450581
301.3537183,-0.0799999982118607
301.3693433,-0.170000001788139
301.3849683,-0.159999996423721
301.4005933,-0.129999995231628
301.4162183,-0.129999995231628
301.4318433,-0.200000002980232
301.4474683,-0.300000011920929
301.4630933,-0.379999995231628
301.4787183,-0.400000005960464
301.4943433,-0.360000014305115
301.5099683,-0.280000001192093
301.5255933,-0.189999997615814
301.5412183,-0.129999995231628
301.5568433,-0.119999997317791
301.5724683,-0.140000000596046
301.5880933,-0.159999996423721
301.6037183,-0.159999996423721
301.6193433,-0.140000000596046
301.6349683,-0.100000001490116
301.6505933,-0.0599999986588955
301.6662183,-0.0199999995529652
301.6818433,0.0199999995529652
301.6974683,0.109999999403954
301.7130933,0.219999998807907
301.7287183,0.340000003576279
301.7443433,0.419999986886978
301.7599683,0.439999997615814
301.7755933,0.419999986886978
301.7912183,0.349999994039536
301.8068433,0.25
301.8224683,0.0900000035762787
301.8380933,-0.0799999982118607
301.8537183,-0.209999993443489
301.8693433,-0.230000004172325
301.8849683,-0.159999996423721
301.9005933,-0.0599999986588955
301.9162183,0.0199999995529652
301.9318433,0.0700000002980232
301.9474683,0.0700000002980232
301.9630933,0.0
301.9787183,-0.109999999403954
301.9943433,-0.230000004172325
302.0099683,-0.300000011920929
302.0255933,-0.300000011920929
302.0412183,-0.200000002980232
302.0568433,-0.0500000007450581
302.0724683,0.109999999403954
302.0880933,0.209999993443489
302.1037183,0.230000004172325
302.1193433,0.150000005960464
302.1349683,0.0299999993294477
302.1505933,-0.0599999986588955
302.1662183,-0.109999999403954
302.1818433,-0.119999997317791
302.1974683,-0.109999999403954
302.2130933,-0.140000000596046
302.2287183,-0.200000002980232
302.2443433,-0.28999999165535
302.2599683,-0.379999995231628
302.2755933,-0.409999996423721
302.2912183,-0.370000004768372
302.3068433,-0.259999990463257
302.3224683,-0.129999995231628
302.3380933,0.0
302.3537183,0.159999996423721
302.3693433,0.360000014305115
302.3849683,0.540000021457672
302.4005933,0.639999985694885
302.4162183,0.589999973773956
302.4318433,0.389999985694885
302.4474683,0.0900000035762787
302.4630933,-0.189999997615814
302.4787183,-0.400000005960464
302.4943433,-0.519999980926514
302.5099683,-0.550000011920929
302.5255933,-0.519999980926514
302.5412183,-0.449999988079071
302.5568433,-0.400000005960464
302.5724683,-0.409999996423721
302.5880933,-0.479999989271164
302.6037183,-0.610000014305115
302.6193433,-0.769999980926514
302.6349683,-0.870000004768372
302.6505933,-0.870000004768372
302.6662183,-0.75
302.6818433,-0.579999983310699
302.6974683,-0.449999988079071
302.7130933,-0.389999985694885
302.7287183,-0.370000004768372
302.7443433,-0.330000013113022
302.7599683,-0.219999998807907
302.7755933,-0.0299999993294477
302.7912183,0.159999996423721
302.8068433,0.330000013113022
302.8224683,0.409999996423721
302.8380933,0.430000007152557
302.8537183,0.379999995231628
302.8693433,0.300000011920929
302.8849683,0.209999993443489
302.9005933,0.129999995231628
302.9162183,0.0799999982118607
302.9318433,0.0599999986588955
302.9474683,0.0399999991059303
302.9630933,0.0099999997764825
302.9787183,-0.0099999997764825
302.9943433,-0.0700000002980232
303.0099683,-0.140000000596046
303.0255933,-0.189999997615814
303.0412183,-0.209999993443489
303.0568433,-0.209999993443489
303.0724683,-0.180000007152557
303.0880933,-0.129999995231628
303.1037183,-0.0599999986588955
303.1193433,0.0
303.1349683,0.0500000007450581
303.1505933,0.100000001490116
303.1662183,0.119999997317791
303.1818433,0.100000001490116
303.1974683,0.0
303.2130933,-0.189999997615814
303.2287183,-0.389999985694885
303.2443433,-0.529999971389771
303.2599683,-0.550000011920929
303.2755933,-0.449999988079071
303.2912183,-0.270000010728836
303.3068433,-0.0500000007450581
303.3224683,0.119999997317791
303.3380933,0.189999997615814
303.3537183,0.140000000596046
303.3693433,0.0099999997764825
303.3849683,-0.109999999403954
303.4005933,-0.180000007152557
303.4162183,-0.170000001788139
303.4318433,-0.0900000035762787
303.4474683,0.0099999997764825
303.4630933,0.109999999403954
303.4787183,0.189999997615814
303.4943433,0.25
303.5099683,0.319999992847443
303.5255933,0.400000005960464
303.5412183,0.479999989271164
303.5568433,0.519999980926514
303.5724683,0.5
303.5880933,0.439999997615814
303.6037183,0.379999995231628
303.6193433,0.360000014305115
303.6349683,0.370000004768372
303.6505933,0.389999985694885
303.6662183,0.360000014305115
303.6818433,0.270000010728836
303.6974683,0.119999997317791
303.7130933,-0.0599999986588955
303.7287183,-0.200000002980232
303.7443433,-0.219999998807907
303.7599683,-0.150000005960464
303.7755933,-0.0500000007450581
303.7912183,0.0199999995529652
303.8068433,0.0500000007450581
303.8224683,0.0700000002980232
303.8380933,0.0900000035762787
303.8537183,0.140000000596046
303.8693433,0.189999997615814
303.8849683,0.239999994635582
303.9005933,0.280000001192093
303.9162183,0.280000001192093
303.9318433,0.25
303.9474683,0.189999997615814
303.9630933,0.140000000596046
303.9787183,0.100000001490116
303.9943433,0.0799999982118607
304.0099683,0.0700000002980232
304.0255933,0.0399999991059303
304.0412183,0.0
304.0568433,-0.0599999986588955
304.0724683,-0.159999996423721
304.0880933,-0.259999990463257
304.1037183,-0.349999994039536
304.1193433,-0.400000005960464
304.1349683,-0.409999996423721
304.1505933,-0.400000005960464
304.1662183,-0.379999995231628
304.1818433,-0.340000003576279
304.1974683,-0.280000001192093
304.2130933,-0.219999998807907
304.2287183,-0.200000002980232
304.2443433,-0.219999998807907
304.2599683,-0.25
304.2755933,-0.219999998807907
304.2912183,-0.109999999403954
304.3068433,0.0900000035762787
304.3224683,0.310000002384186
304.3380933,0.469999998807907
304.3537183,0.560000002384186
304.3693433,0.610000014305115
304.3849683,0.639999985694885
304.4005933,0.629999995231628
304.4162183,0.579999983310699
