Time(s),Value(%)
339.0064631,45.4199981689453
339.0220881,44.7000007629395
339.0377131,43.5699996948242
339.0533381,41.8699989318848
339.0689631,39.6199989318848
339.0845881,37.0
339.1002131,34.2400016784668
339.1158381,31.5100002288818
339.1314631,28.9300003051758
339.1470881,26.5499992370605
339.1627131,24.4300003051758
339.1783381,22.6000003814697
339.1939631,21.0699996948242
339.2095881,19.7900009155273
339.2252131,18.7199993133545
339.2408381,17.8299999237061
339.2564631,17.0699996948242
339.2720881,16.4099998474121
339.2877131,15.8500003814697
339.3033381,15.6400003433228
339.3189631,16.2800006866455
339.3345881,18.2399997711182
339.3502131,21.6200008392334
339.3658381,26.1700000762939
339.3814631,31.6200008392334
339.3970881,37.7400016784668
339.4127131,44.2200012207031
339.4283381,50.4599990844727
339.4439631,55.6199989318848
339.4595881,59.0999984741211
339.4752131,60.9700012207031
339.4908381,61.75
339.5064631,61.8300018310547
339.5220881,61.3199996948242
339.5377131,60.1800003051758
339.5533381,58.4900016784668
339.5689631,56.4199981689453
339.5845881,54.0699996948242
339.6002131,51.3400001525879
339.6158381,48.060001373291
339.6314631,44.2000007629395
339.6470881,39.9300003051758
339.6627131,35.5400009155273
339.6783381,31.2900009155273
339.6939631,27.3299999237061
339.7095881,23.7000007629395
339.7252131,20.3400001525879
339.7408381,17.1599998474121
339.7564631,14.1099996566772
339.7720881,11.1400003433228
339.7877131,8.25
339.8033381,5.44999980926514
339.8189631,2.78999996185303
339.8345881,0.270000010728836
339.8502131,-2.10999989509583
339.8658381,-4.42999982833862
339.8814631,-6.82000017166138
339.8970881,-9.43000030517578
339.9127131,-12.2700004577637
339.9283381,-15.2700004577637
339.9439631,-18.3500003814697
339.9595881,-21.4500007629395
339.9752131,-24.4799995422363
339.9908381,-27.3099994659424
340.0064631,-29.7299995422363
340.0220881,-31.5699996948242
340.0377131,-32.7799987792969
340.0533381,-33.4500007629395
340.0689631,-33.6699981689453
340.0845881,-33.3699989318848
340.1002131,-32.3300018310547
340.1158381,-30.3099994659424
340.1314631,-27.3500003814697
340.1470881,-23.7800006866455
340.1627131,-20.0400009155273
340.1783381,-16.3199996948242
340.1939631,-12.4700002670288
340.2095881,-8.34000015258789
340.2252131,-4.09999990463257
340.2408381,-0.25
340.2564631,2.78999996185303
340.2720881,4.94000005722046
340.2877131,6.40999984741211
340.3033381,7.44999980926514
340.3189631,8.15999984741211
340.3345881,8.52999973297119
340.3502131,8.52000045776367
340.3658381,8.17000007629395
340.3814631,7.55000019073486
340.3970881,6.76999998092651
340.4127131,5.90000009536743
340.4283381,4.90999984741211
340.4439631,3.64000010490417
340.4595881,1.94000005722046
340.4752131,-0.189999997615814
340.4908381,-2.5699999332428
340.5064631,-4.92999982833862
340.5220881,-7.01999998092651
340.5377131,-8.72999954223633
340.5533381,-10.1199998855591
340.5689631,-11.3100004196167
340.5845881,-12.4799995422363
340.6002131,-13.8100004196167
340.6158381,-15.4099998474121
340.6314631,-17.2600002288818
340.6470881,-19.2800006866455
340.6627131,-21.3400001525879
340.6783381,-23.3799991607666
340.6939631,-25.3299999237061
340.7095881,-27.1200008392334
340.7252131,-28.6100006103516
340.7408381,-29.7600002288818
340.7564631,-30.6200008392334
340.7720881,-31.3700008392334
340.7877131,-32.0999984741211
340.8033381,-32.7999992370605
340.8189631,-33.3800010681152
340.8345881,-33.810001373291
340.8502131,-34.0299987792969
340.8658381,-33.9199981689453
340.8814631,-33.2099990844727
340.8970881,-31.6499996185303
340.9127131,-29.1900005340576
340.9283381,-25.9799995422363
340.9439631,-22.1499996185303
340.9595881,-17.8099994659424
340.9752131,-13.1199998855591
340.9908381,-8.43000030517578
341.0064631,-4.17999982833862
341.0220881,-0.680000007152557
341.0377131,2.03999996185303
341.0533381,4.15999984741211
341.0689631,5.76999998092651
341.0845881,6.82000017166138
341.1002131,7.30999994277954
341.1158381,7.3600001335144
341.1314631,7.1399998664856
341.1470881,6.82999992370605
341.1627131,6.46999979019165
341.1783381,6.01000022888184
341.1939631,5.42000007629395
341.2095881,4.69999980926514
341.2252131,3.90000009536743
341.2408381,3.05999994277954
341.2564631,2.25
341.2720881,1.47000002861023
341.2877131,0.689999997615814
341.3033381,-0.159999996423721
341.3189631,-1.25999999046326
341.3345881,-2.6800000667572
341.3502131,-4.38000011444092
341.3658381,-6.19999980926514
341.3814631,-7.96000003814697
341.3970881,-9.52999973297119
341.4127131,-10.8699998855591
341.4283381,-12.0500001907349
341.4439631,-13.1899995803833
341.4595881,-14.3900003433228
341.4752131,-15.6899995803833
341.4908381,-17.0799999237061
341.5064631,-18.5300006866455
341.5220881,-20.0400009155273
341.5377131,-21.5400009155273
341.5533381,-22.8899993896484
341.5689631,-23.7900009155273
341.5845881,-23.8600006103516
341.6002131,-22.7299995422363
341.6158381,-20.2399997711182
341.6314631,-16.5599994659424
341.6470881,-12.1300001144409
341.6627131,-7.48000001907349
341.6783381,-3.03999996185303
341.6939631,0.980000019073486
341.7095881,4.57999992370605
341.7252131,7.8899998664856
341.7408381,11.0200004577637
341.7564631,14.0799999237061
341.7720881,17.1000003814697
341.7877131,20.1499996185303
341.8033381,23.25
341.8189631,26.3400001525879
341.8345881,29.1800003051758
341.8502131,31.3199996948242
341.8658381,32.3699989318848
341.8814631,32.2599983215332
341.8970881,31.2199993133545
341.9127131,29.6299991607666
341.9283381,27.8299999237061
341.9439631,26.0200004577637
341.9595881,24.2999992370605
341.9752131,22.6900005340576
341.9908381,21.1499996185303
342.0064631,19.6100006103516
342.0220881,18.0100002288818
342.0377131,16.3500003814697
342.0533381,14.6300001144409
342.0689631,12.8500003814697
342.0845881,11.0200004577637
342.1002131,9.14000034332275
342.1158381,7.30000019073486
342.1314631,5.59999990463257
342.1470881,4.07999992370605
342.1627131,2.72000002861023
342.1783381,1.41999995708466
342.1939631,0.150000005960464
342.2095881,-1.03999996185303
342.2252131,-2.09999990463257
342.2408381,-3.01999998092651
342.2564631,-3.80999994277954
342.2720881,-4.46000003814697
342.2877131,-4.90000009536743
342.3033381,-4.92000007629395
342.3189631,-4.19999980926514
342.3345881,-2.5
342.3502131,0.109999999403954
342.3658381,3.30999994277954
342.3814631,6.6399998664856
342.3970881,9.75
342.4127131,12.4799995422363
342.4283381,14.960000038147
342.4439631,17.5100002288818
342.4595881,20.4200000762939
342.4752131,23.7999992370605
342.4908381,27.5799999237061
342.5064631,31.6499996185303
342.5220881,35.8899993896484
342.5377131,40.1500015258789
342.5533381,43.9900016784668
342.5689631,46.7599983215332
342.5845881,47.8899993896484
342.6002131,47.3499984741211
342.6158381,45.5800018310547
342.6314631,43.1300010681152
342.6470881,40.3899993896484
342.6627131,37.5800018310547
342.6783381,34.7999992370605
342.6939631,32.0800018310547
342.7095881,29.4400005340576
342.7252131,26.9099998474121
342.7408381,24.5200004577637
342.7564631,22.25
342.7720881,20.0200004577637
342.7877131,17.6800003051758
342.8033381,15.0799999237061
342.8189631,12.1800003051758
342.8345881,9.0600004196167
342.8502131,5.80000019073486
342.8658381,2.45000004768372
342.8814631,-0.930000007152557
342.8970881,-4.25
342.9127131,-7.28999996185303
342.9283381,-9.86999988555908
342.9439631,-11.9099998474121
342.9595881,-13.5200004577637
342.9752131,-14.8500003814697
342.9908381,-16.0799999237061
343.0064631,-17.3299999237061
343.0220881,-18.6200008392334
343.0377131,-19.8999996185303
343.0533381,-21.0
343.0689631,-21.6700000762939
343.0845881,-21.6900005340576
343.1002131,-21.0300006866455
343.1158381,-19.8799991607666
343.1314631,-18.4799995422363
343.1470881,-17.0
343.1627131,-15.5299997329712
343.1783381,-14.1800003051758
343.1939631,-13.1499996185303
343.2095881,-12.6499996185303
343.2252131,-12.7200002670288
343.2408381,-13.25
343.2564631,-13.9799995422363
343.2720881,-14.7600002288818
343.2877131,-15.6000003814697
343.3033381,-16.5900001525879
343.3189631,-17.8099994659424
343.3345881,-19.3099994659424
343.3502131,-21.1100006103516
343.3658381,-23.2299995422363
343.3814631,-25.6000003814697
343.3970881,-28.0200004577637
343.4127131,-30.2399997711182
343.4283381,-32.0800018310547
343.4439631,-33.5699996948242
343.4595881,-34.7799987792969
343.4752131,-35.7099990844727
343.4908381,-36.2999992370605
343.5064631,-36.4799995422363
343.5220881,-36.2999992370605
343.5377131,-35.9199981689453
343.5533381,-35.5999984741211
343.5689631,-35.7000007629395
343.5845881,-36.4799995422363
343.6002131,-37.9700012207031
343.6158381,-40.0200004577637
343.6314631,-42.4599990844727
343.6470881,-45.1699981689453
343.6627131,-48.0
343.6783381,-50.5999984741211
343.6939631,-52.5
343.7095881,-53.310001373291
343.7252131,-53.1100006103516
343.7408381,-52.2400016784668
343.7564631,-51.0099983215332
343.7720881,-49.5400009155273
343.7877131,-47.8300018310547
343.8033381,-45.8899993896484
343.8189631,-43.7400016784668
343.8345881,-41.2200012207031
343.8502131,-37.9300003051758
343.8658381,-33.4700012207031
343.8814631,-27.7800006866455
343.8970881,-21.1800003051758
343.9127131,-14.1499996185303
343.9283381,-7.07999992370605
343.9439631,-0.239999994635582
343.9595881,6.03000020980835
343.9752131,11.3900003433228
343.9908381,15.5799999237061
344.0064631,18.6399993896484
344.0220881,20.8999996185303
344.0377131,22.6599998474121
344.0533381,24.1000003814697
344.0689631,25.2900009155273
344.0845881,26.2700004577637
344.1002131,27.1000003814697
344.1158381,27.7999992370605
344.1314631,28.3600006103516
344.1470881,28.7800006866455
344.1627131,29.0400009155273
344.1783381,29.1900005340576
344.1939631,29.2800006866455
344.2095881,29.3500003814697
344.2252131,29.4200000762939
344.2408381,29.4799995422363
344.2564631,29.4699993133545
344.2720881,29.3199996948242
344.2877131,29.0
344.3033381,28.5100002288818
344.3189631,27.8799991607666
344.3345881,27.1800003051758
344.3502131,26.4200000762939
344.3658381,25.6299991607666
344.3814631,24.8099994659424
344.3970881,24.0
344.4127131,23.2299995422363
344.4283381,22.5400009155273
344.4439631,21.9099998474121
344.4595881,21.3099994659424
344.4752131,20.7299995422363
344.4908381,20.1800003051758
344.5064631,19.6700000762939
344.5220881,19.2199993133545
344.5377131,18.8299999237061
344.5533381,18.6900005340576
344.5689631,19.1399993896484
344.5845881,20.4899997711182
344.6002131,22.7800006866455
344.6158381,25.7000007629395
344.6314631,28.7999992370605
344.6470881,31.6700000762939
344.6627131,34.0999984741211
344.6783381,36.0299987792969
344.6939631,37.4500007629395
344.7095881,38.3800010681152
344.7252131,38.8800010681152
344.7408381,39.0499992370605
344.7564631,38.9799995422363
344.7720881,38.7200012207031
344.7877131,38.2900009155273
344.8033381,37.6100006103516
344.8189631,36.5099983215332
344.8345881,34.7799987792969
344.8502131,32.3300018310547
344.8658381,29.3099994659424
344.8814631,26.0200004577637
344.8970881,22.7700004577637
344.9127131,19.6700000762939
344.9283381,16.6800003051758
344.9439631,13.710000038147
344.9595881,10.7799997329712
344.9752131,7.96000003814697
344.9908381,5.34999990463257
345.0064631,2.89000010490417
345.0220881,0.469999998807907
345.0377131,-1.9099999666214
345.0533381,-4.15999984741211
345.0689631,-6.17000007629395
345.0845881,-7.90000009536743
345.1002131,-9.38000011444092
345.1158381,-10.6999998092651
345.1314631,-11.9399995803833
345.1470881,-13.1700000762939
345.1627131,-14.3900003433228
345.1783381,-15.6499996185303
345.1939631,-17.0
345.2095881,-18.5400009155273
345.2252131,-20.2399997711182
345.2408381,-21.9500007629395
345.2564631,-23.3700008392334
345.2720881,-24.1499996185303
345.2877131,-23.9899997711182
345.3033381,-22.7700004577637
345.3189631,-20.5799999237061
345.3345881,-17.7199993133545
345.3502131,-14.539999961853
345.3658381,-11.3999996185303
345.3814631,-8.5
345.3970881,-5.84000015258789
345.4127131,-3.29999995231628
345.4283381,-0.699999988079071
345.4439631,2.04999995231628
345.4595881,4.96000003814697
345.4752131,8.02000045776367
345.4908381,11.2200002670288
345.5064631,14.460000038147
345.5220881,17.4799995422363
345.5377131,19.8299999237061
345.5533381,21.1700000762939
345.5689631,21.4400005340576
345.5845881,20.8999996185303
345.6002131,19.8700008392334
345.6158381,18.6000003814697
345.6314631,17.2099990844727
345.6470881,15.8000001907349
345.6627131,14.3900003433228
345.6783381,12.9700002670288
345.6939631,11.4899997711182
345.7095881,9.89000034332275
345.7252131,8.14000034332275
345.7408381,6.21000003814697
345.7564631,4.01000022888184
345.7720881,1.47000002861023
345.7877131,-1.37000000476837
345.8033381,-4.36999988555908
345.8189631,-7.30999994277954
345.8345881,-10.0699996948242
345.8502131,-12.6999998092651
345.8658381,-15.289999961853
345.8814631,-17.7600002288818
345.8970881,-19.9400005340576
345.9127131,-21.6800003051758
345.9283381,-22.9599990844727
345.9439631,-23.8999996185303
345.9595881,-24.6299991607666
345.9752131,-25.2299995422363
345.9908381,-25.7199993133545
346.0064631,-26.0699996948242
346.0220881,-26.1599998474121
346.0377131,-25.8400001525879
346.0533381,-24.9799995422363
346.0689631,-23.5599994659424
346.0845881,-21.7199993133545
346.1002131,-19.5799999237061
346.1158381,-17.0900001525879
346.1314631,-14.0900001525879
346.1470881,-10.4799995422363
346.1627131,-6.5
346.1783381,-2.61999988555908
346.1939631,0.740000009536743
346.2095881,3.45000004768372
346.2252131,5.57999992370605
346.2408381,7.30000019073486
346.2564631,8.67000007629395
346.2720881,9.6899995803833
346.2877131,10.3299999237061
346.3033381,10.6999998092651
346.3189631,10.9200000762939
346.3345881,11.1599998474121
346.3502131,11.460000038147
346.3658381,11.7399997711182
346.3814631,11.8000001907349
346.3970881,11.4099998474121
346.4127131,10.5200004577637
346.4283381,9.22000026702881
346.4439631,7.71000003814697
346.4595881,6.13000011444092
346.4752131,4.55999994277954
346.4908381,3.00999999046326
346.5064631,1.49000000953674
346.5220881,0.0
346.5377131,-1.46000003814697
346.5533381,-2.91000008583069
346.5689631,-4.42000007629395
346.5845881,-6.09999990463257
346.6002131,-7.90999984741211
346.6158381,-9.77000045776367
346.6314631,-11.539999961853
346.6470881,-13.1199998855591
346.6627131,-14.5100002288818
346.6783381,-15.7600002288818
346.6939631,-16.9599990844727
346.7095881,-18.2000007629395
346.7252131,-19.5
346.7408381,-20.8400001525879
346.7564631,-22.1700000762939
346.7720881,-23.4799995422363
346.7877131,-24.7199993133545
346.8033381,-25.7900009155273
346.8189631,-26.4899997711182
346.8345881,-26.5799999237061
346.8502131,-25.8999996185303
346.8658381,-24.4200000762939
346.8814631,-22.3199996948242
346.8970881,-19.8600006103516
346.9127131,-17.3299999237061
346.9283381,-14.9499998092651
346.9439631,-12.789999961853
346.9595881,-10.8699998855591
346.9752131,-9.15999984741211
346.9908381,-7.63000011444092
347.0064631,-6.26000022888184
347.0220881,-4.98999977111816
347.0377131,-3.74000000953674
347.0533381,-2.45000004768372
347.0689631,-1.12000000476837
347.0845881,0.150000005960464
347.1002131,1.21000003814697
347.1158381,1.87000000476837
347.1314631,2.03999996185303
347.1470881,1.74000000953674
347.1627131,1.10000002384186
347.1783381,0.270000010728836
347.1939631,-0.600000023841858
347.2095881,-1.42999994754791
347.2252131,-2.17000007629395
347.2408381,-2.8199999332428
347.2564631,-3.4300000667572
347.2720881,-4.03000020980835
347.2877131,-4.65000009536743
347.3033381,-5.28999996185303
347.3189631,-5.92999982833862
347.3345881,-6.57000017166138
347.3502131,-7.19000005722046
347.3658381,-7.73000001907349
347.3814631,-8.10999965667725
347.3970881,-8.27000045776367
347.4127131,-8.22000026702881
347.4283381,-8.03999996185303
347.4439631,-7.80999994277954
347.4595881,-7.59000015258789
347.4752131,-7.36999988555908
347.4908381,-7.1399998664856
347.5064631,-6.8600001335144
347.5220881,-6.42000007629395
347.5377131,-5.57000017166138
347.5533381,-4.09999990463257
347.5689631,-1.96000003814697
347.5845881,0.850000023841858
347.6002131,4.5
347.6158381,9.09000015258789
347.6314631,14.5299997329712
347.6470881,20.3199996948242
347.6627131,25.7999992370605
347.6783381,30.5699996948242
347.6939631,34.7700004577637
347.7095881,38.7200012207031
347.7252131,42.4099998474121
347.7408381,45.4799995422363
347.7564631,47.5699996948242
347.7720881,48.6699981689453
347.7877131,49.0200004577637
347.8033381,48.9900016784668
347.8189631,48.7999992370605
347.8345881,48.5099983215332
347.8502131,48.1100006103516
347.8658381,47.560001373291
347.8814631,46.9000015258789
347.8970881,46.1599998474121
347.9127131,45.3699989318848
347.9283381,44.3699989318848
347.9439631,42.8499984741211
347.9595881,40.4700012207031
347.9752131,37.1699981689453
347.9908381,33.189998626709
348.0064631,28.9099998474121
348.0220881,24.7099990844727
348.0377131,20.7999992370605
348.0533381,17.2099990844727
348.0689631,13.8699998855591
348.0845881,10.5699996948242
348.1002131,7.01999998092651
348.1158381,2.97000002861023
348.1314631,-1.57000005245209
348.1470881,-6.40000009536743
348.1627131,-11.1899995803833
348.1783381,-15.6899995803833
348.1939631,-19.7700004577637
348.2095881,-23.4899997711182
348.2252131,-27.0200004577637
348.2408381,-30.5200004577637
348.2564631,-34.0499992370605
348.2720881,-37.5400009155273
348.2877131,-40.8600006103516
348.3033381,-43.8800010681152
348.3189631,-46.5099983215332
348.3345881,-48.6100006103516
348.3502131,-49.8699989318848
348.3658381,-49.9900016784668
348.3814631,-48.8300018310547
348.3970881,-46.5499992370605
348.4127131,-43.5999984741211
348.4283381,-40.4500007629395
348.4439631,-37.439998626709
348.4595881,-34.7099990844727
348.4752131,-32.2299995422363
348.4908381,-29.9699993133545
348.5064631,-28.0
348.5220881,-26.4599990844727
348.5377131,-25.3799991607666
348.5533381,-24.7199993133545
348.5689631,-24.3500003814697
348.5845881,-24.1200008392334
348.6002131,-23.9099998474121
348.6158381,-23.6599998474121
348.6314631,-23.3500003814697
348.6470881,-22.9599990844727
348.6627131,-22.5
348.6783381,-21.9899997711182
348.6939631,-21.5
348.7095881,-21.1100006103516
348.7252131,-20.8500003814697
348.7408381,-20.6900005340576
348.7564631,-20.5699996948242
348.7720881,-20.4099998474121
348.7877131,-20.1900005340576
348.8033381,-19.9599990844727
348.8189631,-19.8199996948242
348.8345881,-19.8799991607666
348.8502131,-20.1800003051758
348.8658381,-20.6900005340576
348.8814631,-21.3500003814697
348.8970881,-22.1200008392334
348.9127131,-22.9500007629395
348.9283381,-23.6800003051758
348.9439631,-24.1000003814697
348.9595881,-24.0599994659424
348.9752131,-23.6700000762939
348.9908381,-23.1200008392334
349.0064631,-22.6000003814697
349.0220881,-22.1100006103516
349.0377131,-21.5699996948242
349.0533381,-20.9300003051758
349.0689631,-20.1299991607666
349.0845881,-19.0499992370605
349.1002131,-17.4400005340576
349.1158381,-15.0600004196167
349.1314631,-11.8999996185303
349.1470881,-8.21000003814697
349.1627131,-4.3899998664856
349.1783381,-0.75
349.1939631,2.53999996185303
349.2095881,5.57000017166138
349.2252131,8.52000045776367
349.2408381,11.6199998855591
349.2564631,14.9499998092651
349.2720881,18.4799995422363
349.2877131,22.1399993896484
349.3033381,25.8799991607666
349.3189631,29.5900001525879
349.3345881,33.0200004577637
349.3502131,35.7700004577637
349.3658381,37.5099983215332
349.3814631,38.1699981689453
349.3970881,37.939998626709
349.4127131,37.1300010681152
349.4283381,36.0099983215332
349.4439631,34.7200012207031
349.4595881,33.3899993896484
349.4752131,32.060001373291
349.4908381,30.7800006866455
349.5064631,29.5499992370605
349.5220881,28.3799991607666
349.5377131,27.25
349.5533381,26.1499996185303
349.5689631,25.0699996948242
349.5845881,24.0400009155273
349.6002131,23.0499992370605
349.6158381,22.1200008392334
349.6314631,21.2099990844727
349.6470881,20.2299995422363
349.6627131,18.9699993133545
349.6783381,17.2700004577637
349.6939631,15.0799999237061
349.7095881,12.4700002670288
349.7252131,9.47000026702881
349.7408381,6.09999990463257
349.7564631,2.45000004768372
