Time(s),Value(%)
0.0041916,103.230003356934
0.0198166,93.25
0.0354416,81.0899963378906
0.0510666,67.5999984741211
0.0666916,53.5999984741211
0.0823166,39.810001373291
0.0979416,26.7900009155273
0.1135666,14.9899997711182
0.1291916,4.73999977111816
0.1448166,-3.85999989509583
0.1604416,-10.8400001525879
0.1760666,-16.2800006866455
0.1916916,-20.5200004577637
0.2073166,-24.1599998474121
0.2229416,-27.7000007629395
0.2385666,-31.2399997711182
0.2541916,-34.5099983215332
0.2698166,-37.2400016784668
0.2854416,-39.4099998474121
0.3010666,-41.2200012207031
0.3166916,-42.9099998474121
0.3323166,-44.5999984741211
0.3479416,-46.3400001525879
0.3635666,-48.0900001525879
0.3791916,-49.6599998474121
0.3948166,-50.810001373291
0.4104416,-51.3300018310547
0.4260666,-50.8800010681152
0.4416916,-48.7400016784668
0.4573166,-43.7599983215332
0.4729416,-34.7299995422363
0.4885666,-21.0200004577637
0.5041916,-2.94000005722046
0.5198166,18.2700004577637
0.5354416,40.6800003051758
0.5510666,61.9900016784668
0.5666916,80.1800003051758
0.5823166,93.9000015258789
0.5979416,102.580001831055
0.6135666,106.199996948242
0.6291916,104.959999084473
0.6448166,99.2600021362305
0.6604416,89.7300033569336
0.6760666,77.2399978637695
0.6916916,62.9199981689453
0.7073166,47.9000015258789
0.7229416,33.0800018310547
0.7385666,19.1200008392334
0.7541916,6.44999980926514
0.7698166,-4.55999994277954
0.7854416,-13.7600002288818
0.8010666,-21.2900009155273
0.8166916,-27.5100002288818
0.8323166,-32.8300018310547
0.8479416,-37.5800018310547
0.8635666,-41.9000015258789
0.8791916,-45.689998626709
0.8948166,-48.8199996948242
0.9104416,-51.2400016784668
0.9260666,-53.0699996948242
0.9416916,-54.6199989318848
0.9573166,-56.2700004577637
0.9729416,-58.2000007629395
0.9885666,-60.2400016784668
1.0041916,-61.9900016784668
1.0198166,-63.1599998474121
1.0354416,-63.6100006103516
1.0510666,-63.3499984741211
1.0666916,-62.3199996948242
1.0823166,-60.2099990844727
1.0979416,-56.3199996948242
1.1135666,-49.5400009155273
1.1291916,-38.7200012207031
1.1448166,-23.25
1.1604416,-3.58999991416931
1.1760666,18.7900009155273
1.1916916,41.8199996948242
1.2073166,63.5099983215332
1.2229416,82.0599975585938
1.2385666,95.6999969482422
1.2541916,103.160003662109
1.2698166,104.23999786377
1.2854416,99.7399978637695
1.3010666,91.0400009155273
1.3166916,79.5899963378906
1.3323166,66.6399993896484
1.3479416,52.9900016784668
1.3635666,39.1800003051758
1.3791916,25.8199996948242
1.3948166,13.539999961853
1.4104416,2.82999992370605
1.4260666,-6.03000020980835
1.4416916,-13.0699996948242
1.4573166,-18.6000003814697
1.4729416,-23.0799999237061
1.4885666,-26.7999992370605
1.5041916,-29.8999996185303
1.5198166,-32.4500007629395
1.5354416,-34.5999984741211
1.5510666,-36.5400009155273
1.5666916,-38.439998626709
1.5823166,-40.2900009155273
1.5979416,-41.8600006103516
1.6135666,-42.8699989318848
1.6291916,-43.3600006103516
1.6448166,-43.7000007629395
1.6604416,-44.2400016784668
1.6760666,-45.0699996948242
1.6916916,-45.9799995422363
1.7073166,-46.7299995422363
1.7229416,-47.2099990844727
1.7385666,-46.9500007629395
1.7541916,-44.7400016784668
1.7698166,-39.0299987792969
1.7854416,-28.6200008392334
1.8010666,-13.2700004577637
1.8166916,6.1100001335144
1.8323166,27.7600002288818
1.8479416,49.5800018310547
1.8635666,69.6800003051758
1.8791916,86.3300018310547
1.8948166,97.7399978637695
1.9104416,102.589996337891
1.9260666,100.660003662109
1.9416916,92.9499969482422
1.9573166,81.1900024414063
1.9729416,67.2200012207031
1.9885666,52.4599990844727
2.0041916,37.8600006103516
2.0198166,23.9500007629395
2.0354416,11.0200004577637
2.0510666,-0.649999976158142
2.0666916,-10.7700004577637
2.0823166,-19.0499992370605
2.0979416,-25.2700004577637
2.1135666,-29.5100002288818
2.1291916,-32.4799995422363
2.1448166,-35.2900009155273
2.1604416,-38.6699981689453
2.1760666,-42.6500015258789
2.1916916,-46.810001373291
2.2073166,-50.6699981689453
2.2229416,-53.9099998474121
2.2385666,-56.4799995422363
2.2541916,-58.5299987792969
2.2698166,-60.2099990844727
2.2854416,-61.5999984741211
2.3010666,-62.7099990844727
2.3166916,-63.5200004577637
2.3323166,-64.0400009155273
2.3479416,-63.7700004577637
2.3635666,-60.5900001525879
2.3791916,-51.8800010681152
2.3948166,-38.0400009155273
2.4104416,-22.4599990844727
2.4260666,-7.53999996185303
2.4416916,8.09000015258789
2.4573166,28.4699993133545
2.4729416,56.9900016784668
2.4885666,93.9700012207031
2.5041916,135.240005493164
2.5198166,173.039993286133
2.5354416,199.770004272461
2.5510666,211.440002441406
2.5666916,208.580001831055
2.5823166,194.720001220703
2.5979416,174.059997558594
2.6135666,149.699996948242
2.6291916,123.330001831055
2.6448166,95.9300003051758
2.6604416,68.5
2.6760666,42.2400016784668
2.6916916,18.2999992370605
2.7073166,-2.39000010490417
2.7229416,-19.4500007629395
2.7385666,-33.25
2.7541916,-44.6300010681152
2.7698166,-54.5099983215332
2.7854416,-63.4099998474121
2.8010666,-71.5
2.8166916,-78.9599990844727
2.8323166,-86.0299987792969
2.8479416,-92.9499969482422
2.8635666,-99.7900009155273
2.8791916,-106.660003662109
2.8948166,-113.550003051758
2.9104416,-120.160003662109
2.9260666,-126.029998779297
2.9416916,-130.850006103516
2.9573166,-134.5
2.9729416,-137.179992675781
2.9885666,-139.25
3.0041916,-140.779998779297
3.0198166,-141.080001831055
3.0354416,-138.740005493164
3.0510666,-131.479995727539
3.0666916,-115.910003662109
3.0823166,-88.3899993896484
3.0979416,-47.4300003051758
3.1135666,4.21999979019165
3.1291916,59.7999992370605
3.1448166,110.389999389648
3.1604416,147.690002441406
3.1760666,166.970001220703
3.1916916,168.550003051758
3.2073166,156.759994506836
3.2229416,137.259994506836
3.2385666,114.620002746582
3.2541916,91.4400024414063
3.2698166,68.7200012207031
3.2854416,46.6800003051758
3.3010666,25.4799995422363
3.3166916,5.59999990463257
3.3323166,-12.2700004577637
3.3479416,-27.6100006103516
3.3635666,-40.0999984741211
3.3791916,-49.7099990844727
3.3948166,-56.5699996948242
3.4104416,-60.9700012207031
3.4260666,-63.2799987792969
3.4416916,-64.0899963378906
3.4573166,-64.0599975585938
3.4729416,-63.9000015258789
3.4885666,-64.2399978637695
3.5041916,-65.3199996948242
3.5198166,-66.870002746582
3.5354416,-68.3499984741211
3.5510666,-69.4300003051758
3.5666916,-70.0699996948242
3.5823166,-70.370002746582
3.5979416,-70.4300003051758
3.6135666,-70.3300018310547
3.6291916,-70.2399978637695
3.6448166,-70.129997253418
3.6604416,-69.4899978637695
3.6760666,-67.0100021362305
3.6916916,-60.2599983215332
3.7073166,-45.6300010681152
3.7229416,-19.0699996948242
3.7385666,21.7099990844727
3.7541916,73.8399963378906
3.7698166,128.009994506836
3.7854416,172.440002441406
3.8010666,198.610000610352
3.8166916,204.369995117188
3.8323166,193.360000610352
3.8479416,172.130004882813
3.8635666,146.970001220703
3.8791916,121.889999389648
3.8948166,98.4599990844727
3.9104416,76.6800003051758
3.9260666,56.0299987792969
3.9416916,36.3300018310547
3.9573166,17.9400005340576
3.9729416,1.61000001430511
3.9885666,-11.9099998474121
4.0041916,-22.2199993133545
4.0198166,-29.2299995422363
4.0354416,-33.2400016784668
4.0510666,-34.9599990844727
4.0666916,-35.3400001525879
4.0823166,-35.3499984741211
4.0979416,-35.75
4.1135666,-36.9799995422363
4.1291916,-39.1800003051758
4.1448166,-42.1599998474121
4.1604416,-45.4199981689453
4.1760666,-48.5
4.1916916,-51.2099990844727
4.2073166,-53.5999984741211
4.2229416,-55.9000015258789
4.2385666,-58.3800010681152
4.2541916,-61.0200004577637
4.2698166,-63.2700004577637
4.2854416,-64.2600021362305
4.3010666,-62.8499984741211
4.3166916,-57.2200012207031
4.3323166,-44.2900009155273
4.3479416,-20.5400009155273
4.3635666,15.8900003433228
4.3791916,63.1199989318848
4.3948166,114.23999786377
4.4104416,158.860000610352
4.4260666,187.639999389648
4.4416916,196.419998168945
4.4573166,187.240005493164
4.4729416,166.110000610352
4.4885666,139.690002441406
4.5041916,112.889999389648
4.5198166,88.129997253418
4.5354416,65.8099975585938
4.5510666,45.25
4.5666916,25.6900005340576
4.5823166,6.84999990463257
4.5979416,-10.8800001144409
4.6135666,-26.7600002288818
4.6291916,-40.1399993896484
4.6448166,-50.7099990844727
4.6604416,-58.3899993896484
4.6760666,-63.4099998474121
4.6916916,-66.3399963378906
4.7073166,-68.0400009155273
4.7229416,-69.4000015258789
4.7385666,-71.129997253418
4.7541916,-73.5199966430664
4.7698166,-76.3499984741211
4.7854416,-79.1399993896484
4.8010666,-81.379997253418
4.8166916,-82.870002746582
4.8323166,-83.6699981689453
4.8479416,-84.0400009155273
4.8635666,-84.0299987792969
4.8791916,-83.3399963378906
4.8948166,-81.5500030517578
4.9104416,-78.6500015258789
4.9260666,-75.1600036621094
4.9416916,-71.4800033569336
4.9573166,-67.0899963378906
4.9729416,-59.9599990844727
4.9885666,-45.8699989318848
5.0041916,-19.0799999237061
5.0198166,23.5499992370605
5.0354416,78.370002746582
5.0510666,135.320007324219
5.0666916,182.580001831055
5.0823166,211.589996337891
5.0979416,219.839996337891
5.1135666,210.490005493164
5.1291916,189.75
5.1448166,163.839996337891
5.1604416,137.059997558594
5.1760666,111.430000305176
5.1916916,87.3199996948242
5.2073166,64.3199996948242
5.2229416,41.9599990844727
5.2385666,20.0
5.2541916,-1.41999995708466
5.2698166,-21.7600002288818
5.2854416,-39.9199981689453
5.3010666,-54.7799987792969
5.3166916,-65.7900009155273
5.3323166,-73.1699981689453
5.3479416,-77.75
5.3635666,-80.4400024414063
5.3791916,-81.8600006103516
5.3948166,-82.4899978637695
5.4104416,-83.0500030517578
5.4260666,-84.3000030517578
5.4416916,-86.5100021362305
5.4573166,-89.4300003051758
5.4729416,-92.4800033569336
5.4885666,-95.129997253418
5.5041916,-97.1500015258789
5.5198166,-98.8099975585938
5.5354416,-100.330001831055
5.5510666,-101.48999786377
5.5666916,-101.790000915527
5.5823166,-100.900001525879
5.5979416,-98.6699981689453
5.6135666,-95.0100021362305
5.6291916,-89.2099990844727
5.6448166,-78.6600036621094
5.6604416,-58.310001373291
5.6760666,-23.3400001525879
5.6916916,26.5900001525879
5.7073166,85.4800033569336
5.7229416,142.679992675781
5.7385666,187.259994506836
5.7541916,212.270004272461
5.7698166,216.789993286133
5.7854416,204.929992675781
5.8010666,183.029998779297
5.8166916,156.940002441406
5.8323166,130.520004272461
5.8479416,105.349998474121
5.8635666,81.4300003051758
5.8791916,58.060001373291
5.8948166,34.7900009155273
5.9104416,11.7299995422363
5.9260666,-10.1400003433228
5.9416916,-29.2600002288818
5.9573166,-44.1800003051758
5.9729416,-54.3300018310547
5.9885666,-60.2000007629395
6.0041916,-63.0699996948242
6.0198166,-64.4800033569336
6.0354416,-65.6399993896484
6.0510666,-67.129997253418
6.0666916,-69.0100021362305
6.0823166,-71.0800018310547
6.0979416,-73.1100006103516
6.1135666,-75.0199966430664
6.1291916,-76.870002746582
6.1448166,-78.8000030517578
6.1604416,-80.9499969482422
6.1760666,-83.2600021362305
6.1916916,-85.3600006103516
6.2073166,-86.8399963378906
6.2229416,-87.4899978637695
6.2385666,-87.2099990844727
6.2541916,-85.6699981689453
6.2698166,-81.6399993896484
6.2854416,-72.25
6.3010666,-52.8899993896484
6.3166916,-19.5100002288818
6.3323166,27.8099994659424
6.3479416,83.1100006103516
6.3635666,136.130004882813
6.3791916,176.520004272461
6.3948166,197.889999389648
6.4104416,199.589996337891
6.4260666,185.720001220703
6.4416916,162.520004272461
6.4573166,135.729995727539
6.4729416,109.01000213623
6.4885666,83.7099990844727
6.5041916,59.6300010681152
6.5198166,36.1300010681152
6.5354416,13.3199996948242
6.5510666,-7.63000011444092
6.5666916,-25.1800003051758
6.5823166,-38.3300018310547
6.5979416,-47.0
6.6135666,-51.939998626709
6.6291916,-54.4099998474121
6.6448166,-55.7099990844727
6.6604416,-56.9799995422363
6.6760666,-58.8499984741211
6.6916916,-61.2700004577637
6.7073166,-63.7799987792969
6.7229416,-66.0599975585938
6.7385666,-68.0899963378906
6.7541916,-70.129997253418
6.7698166,-72.5199966430664
6.7854416,-75.3399963378906
6.8010666,-78.1900024414063
6.8166916,-80.5100021362305
6.8323166,-81.9700012207031
6.8479416,-82.4700012207031
6.8635666,-81.9899978637695
6.8791916,-80.3099975585938
6.8948166,-76.4300003051758
6.9104416,-67.8000030517578
6.9260666,-50.2700004577637
6.9416916,-19.7199993133545
6.9573166,24.8999996185303
6.9729416,79.1699981689453
6.9885666,133.839996337891
7.0041916,178.5
7.0198166,205.869995117188
7.0354416,213.949996948242
7.0510666,205.479995727539
7.0666916,185.789993286133
7.0823166,160.539993286133
7.0979416,133.940002441406
7.1135666,108.029998779297
7.1291916,83.0800018310547
7.1448166,58.5200004577637
7.1604416,33.7900009155273
7.1760666,9.22999954223633
7.1916916,-13.6400003433228
7.2073166,-32.8699989318848
7.2229416,-47.1500015258789
7.2385666,-56.4599990844727
7.2541916,-61.8600006103516
7.2698166,-64.9199981689453
7.2854416,-67.0699996948242
7.3010666,-69.2399978637695
7.3166916,-71.7600021362305
7.3323166,-74.4499969482422
7.3479416,-76.9599990844727
7.3635666,-79.0699996948242
7.3791916,-80.7799987792969
7.3948166,-82.2399978637695
7.4104416,-83.8099975585938
7.4260666,-85.7399978637695
7.4416916,-87.8399963378906
7.4573166,-89.5500030517578
7.4729416,-90.3199996948242
7.4885666,-89.8499984741211
7.5041916,-88.2099990844727
7.5198166,-85.4800033569336
7.5354416,-80.7799987792969
7.5510666,-70.9800033569336
7.5666916,-51.1100006103516
7.5823166,-16.75
7.5979416,32.5400009155273
7.6135666,91.1500015258789
7.6291916,148.639999389648
7.6448166,194.050003051758
7.6604416,220.330001831055
7.6760666,226.229995727539
7.6916916,215.279998779297
7.7073166,193.490005493164
7.7229416,166.779998779297
7.7385666,139.199996948242
7.7541916,112.309997558594
7.7698166,85.75
7.7854416,58.7099990844727
7.8010666,31.3199996948242
7.8166916,4.82999992370605
7.8323166,-19.0599994659424
7.8479416,-38.9500007629395
7.8635666,-54.0699996948242
7.8791916,-64.5299987792969
7.8948166,-71.2600021362305
7.9104416,-75.5800018310547
7.9260666,-78.6500015258789
7.9416916,-81.129997253418
7.9573166,-83.2399978637695
7.9729416,-85.0999984741211
7.9885666,-86.8099975585938
8.0041916,-88.5199966430664
8.0198166,-90.4899978637695
8.0354416,-92.8899993896484
8.0510666,-95.4700012207031
8.0666916,-97.6699981689453
8.0823166,-99.0100021362305
8.0979416,-99.4199981689453
8.1135666,-99.120002746582
8.1291916,-98.3499984741211
8.1448166,-97.0699996948242
8.1604416,-94.8899993896484
8.1760666,-91.1900024414063
8.1916916,-85.1999969482422
8.2073166,-75.2699966430664
8.2229416,-58.0
8.2385666,-28.8799991607666
8.2541916,14.7299995422363
8.2698166,70.379997253418
8.2854416,130.070007324219
8.3010666,182.720001220703
8.3166916,218.100006103516
8.3323166,231.050003051758
8.3479416,223.070007324219
8.3635666,200.539993286133
8.3791916,171.160003662109
8.3948166,140.929992675781
8.4104416,112.629997253418
8.4260666,86.129997253418
8.4416916,60.3499984741211
8.4573166,35.060001373291
8.4729416,11.2700004577637
8.4885666,-9.48999977111816
8.5041916,-26.0900001525879
8.5198166,-38.2299995422363
8.5354416,-46.439998626709
8.5510666,-51.689998626709
8.5666916,-54.9700012207031
8.5823166,-57.0200004577637
8.5979416,-58.4300003051758
8.6135666,-59.6300010681152
8.6291916,-60.8400001525879
8.6448166,-62.0499992370605
8.6604416,-62.939998626709
8.6760666,-63.2299995422363
8.6916916,-63.189998626709
8.7073166,-63.6100006103516
8.7229416,-65.0
8.7385666,-67.25
8.7541916,-69.8300018310547
8.7698166,-72.1600036621094
8.7854416,-73.9800033569336
8.8010666,-75.4499969482422
8.8166916,-76.7200012207031
8.8323166,-77.2799987792969
8.8479416,-75.5
8.8635666,-68.0699996948242
8.8791916,-50.4900016784668
8.8948166,-19.1200008392334
8.9104416,26.0300006866455
8.9260666,79.6500015258789
8.9416916,132.300003051758
8.9573166,173.759994506836
8.9729416,196.550003051758
8.9885666,198.570007324219
9.0041916,183.360000610352
9.0198166,157.699996948242
9.0354416,128.179992675781
9.0510666,98.8600006103516
9.0666916,71.1600036621094
9.0823166,45.2599983215332
9.0979416,21.1599998474121
9.1135666,-0.75
9.1291916,-19.7600002288818
9.1448166,-35.1199989318848
9.1604416,-46.5400009155273
9.1760666,-54.2700004577637
9.1916916,-59.0299987792969
9.2073166,-61.7200012207031
9.2229416,-63.1199989318848
9.2385666,-63.8300018310547
9.2541916,-64.2900009155273
9.2698166,-64.9000015258789
9.2854416,-65.9100036621094
9.3010666,-67.5500030517578
9.3166916,-69.8300018310547
9.3323166,-72.5100021362305
9.3479416,-75.1900024414063
9.3635666,-77.5100021362305
9.3791916,-79.2699966430664
9.3948166,-80.4800033569336
9.4104416,-81.1100006103516
9.4260666,-81.2200012207031
9.4416916,-81.1100006103516
9.4573166,-80.9599990844727
9.4729416,-79.8600006103516
9.4885666,-75.2900009155273
9.5041916,-62.8800010681152
9.5198166,-37.7599983215332
9.5354416,3.0
9.5510666,57.7700004577637
9.5666916,118.690002441406
9.5823166,173.320007324219
9.5979416,210.210006713867
9.6135666,224.130004882813
9.6291916,217.210006713867
9.6448166,196.320007324219
9.6604416,169.229995727539
9.6760666,141.520004272461
9.6916916,115.360000610352
9.7073166,90.3899993896484
9.7229416,65.6100006103516
9.7385666,40.7999992370605
9.7541916,16.7000007629395
9.7698166,-5.38000011444092
9.7854416,-24.1399993896484
9.8010666,-38.810001373291
9.8166916,-49.3899993896484
9.8323166,-56.439998626709
9.8479416,-60.7700004577637
9.8635666,-63.2900009155273
9.8791916,-64.9100036621094
9.8948166,-66.3199996948242
9.9104416,-67.8899993896484
9.9260666,-69.8000030517578
9.9416916,-72.1900024414063
9.9573166,-75.0800018310547
9.9729416,-78.1699981689453
9.9885666,-80.9599990844727
10.0041916,-83.0699996948242
10.0198166,-84.370002746582
10.0354416,-85.0999984741211
10.0510666,-85.7699966430664
10.0666916,-86.7699966430664
10.0823166,-87.8600006103516
10.0979416,-88.2799987792969
10.1135666,-86.8499984741211
10.1291916,-81.5400009155273
10.1448166,-68.75
10.1604416,-44.060001373291
10.1760666,-4.69000005722046
10.1916916,48.0200004577637
10.2073166,106.819999694824
10.2229416,159.960006713867
10.2385666,196.419998168945
10.2541916,210.929992675781
10.2698166,205.270004272461
10.2854416,185.880004882813
10.3010666,160.039993286133
10.3166916,133.0
10.3323166,107.139999389648
10.3479416,82.7300033569336
10.3635666,59.0800018310547
10.3791916,35.7400016784668
10.3948166,13.0500001907349
10.4104416,-7.92000007629395
10.4260666,-26.0100002288818
10.4416916,-40.5400009155273
10.4573166,-51.3899993896484
10.4729416,-58.7200012207031
10.4885666,-63.0499992370605
10.5041916,-65.2200012207031
10.5198166,-66.2099990844727
10.5354416,-66.9100036621094
10.5510666,-68.0199966430664
10.5666916,-69.8399963378906
10.5823166,-72.1999969482422
10.5979416,-74.7300033569336
10.6135666,-77.0500030517578
10.6291916,-78.8899993896484
10.6448166,-80.0500030517578
10.6604416,-80.4899978637695
10.6760666,-80.3499984741211
10.6916916,-80.0699996948242
10.7073166,-79.9499969482422
10.7229416,-79.8300018310547
10.7385666,-79.1900024414063
10.7541916,-77.6699981689453
10.7698166,-75.0299987792969
10.7854416,-70.3899993896484
10.8010666,-61.1300010681152
10.8166916,-43.0200004577637
10.8323166,-12.1499996185303
10.8479416,32.0200004577637
10.8635666,84.7699966430664
10.8791916,136.940002441406
10.8948166,178.509994506836
10.9104416,202.479995727539
10.9260666,207.179992675781
10.9416916,195.839996337891
10.9573166,174.389999389648
10.9729416,148.690002441406
10.9885666,122.690002441406
11.0041916,98.0400009155273
11.0198166,74.8300018310547
11.0354416,52.5400009155273
11.0510666,30.7800006866455
11.0666916,9.8100004196167
11.0823166,-9.17000007629395
11.0979416,-24.75
11.1135666,-36.1199989318848
11.1291916,-43.4900016784668
11.1448166,-47.810001373291
11.1604416,-50.1599998474121
11.1760666,-51.5099983215332
11.1916916,-52.6599998474121
11.2073166,-54.1100006103516
11.2229416,-55.9799995422363
11.2385666,-58.1599998474121
11.2541916,-60.4000015258789
11.2698166,-62.4599990844727
11.2854416,-64.2699966430664
11.3010666,-65.9800033569336
11.3166916,-67.7300033569336
11.3323166,-69.4599990844727
11.3479416,-70.9300003051758
11.3635666,-71.9499969482422
11.3791916,-72.4000015258789
11.3948166,-72.2399978637695
11.4104416,-71.2699966430664
11.4260666,-68.5800018310547
