Time(s),Value(%)
0.0283693,-0.779999971389771
0.0439943,5.42000007629395
0.0596193,13.460000038147
0.0752443,21.9899997711182
0.0908693,29.1700000762939
0.1064943,33.5999984741211
0.1221193,34.9000015258789
0.1377443,33.6500015258789
0.1533693,31.0
0.1689943,28.0499992370605
0.1846193,25.5200004577637
0.2002443,23.6900005340576
0.2158693,22.4899997711182
0.2314943,21.6599998474121
0.2471193,20.8500003814697
0.2627443,19.6200008392334
0.2783693,17.5699996948242
0.2939943,14.4899997711182
0.3096193,10.5200004577637
0.3252443,6.15999984741211
0.3408693,2.08999991416931
0.3564943,-1.08000004291534
0.3721193,-3.16000008583069
0.3877443,-4.30000019073486
0.4033693,-4.8600001335144
0.4189943,-5.21999979019165
0.4346193,-5.67000007629395
0.4502443,-6.42000007629395
0.4658693,-7.48999977111816
0.4814943,-8.72000026702881
0.4971193,-9.93000030517578
0.5127443,-11.0200004577637
0.5283693,-12.0699996948242
0.5439943,-13.210000038147
0.5596193,-14.5200004577637
0.5752443,-15.9399995803833
0.5908693,-17.2199993133545
0.6064943,-18.1800003051758
0.6221193,-18.75
0.6377443,-18.9799995422363
0.6533693,-18.9200000762939
0.6689943,-18.6100006103516
0.6846193,-18.0799999237061
0.7002443,-17.3700008392334
0.7158693,-16.5100002288818
0.7314943,-15.5600004196167
0.7471193,-14.5699996948242
0.7627443,-13.6599998474121
0.7783693,-12.9399995803833
0.7939943,-12.460000038147
0.8096193,-12.2399997711182
0.8252443,-12.1400003433228
0.8408693,-11.8199996948242
0.8564943,-10.6400003433228
0.8721193,-7.82999992370605
0.8877443,-2.86999988555908
0.9033693,4.09999990463257
0.9189943,12.2200002670288
0.9346193,20.0699996948242
0.9502443,26.2399997711182
0.9658693,29.8299999237061
0.9814943,30.7099990844727
0.9971193,29.5100002288818
1.0127443,27.2700004577637
1.0283693,24.9799995422363
1.0439943,23.1499996185303
1.0596193,21.8199996948242
1.0752443,20.7600002288818
1.0908693,19.5499992370605
1.1064943,17.8099994659424
1.1221193,15.3000001907349
1.1377443,11.9899997711182
1.1533693,8.14999961853027
1.1689943,4.28000020980835
1.1846193,1.05999994277954
1.2002443,-0.850000023841858
1.2158693,-1.25
1.2314943,-0.370000004768372
1.2471193,1.17999994754791
1.2627443,2.79999995231628
1.2783693,3.89000010490417
1.2939943,3.88000011444092
1.3096193,2.35999989509583
1.3252443,-0.560000002384186
1.3408693,-4.19000005722046
1.3564943,-7.65999984741211
1.3721193,-10.5299997329712
1.3877443,-12.8999996185303
1.4033693,-15.2799997329712
1.4189943,-18.2099990844727
1.4346193,-21.7999992370605
1.4502443,-25.5
1.4658693,-28.2099990844727
1.4814943,-28.8099994659424
1.4971193,-26.7700004577637
1.5127443,-22.3500003814697
1.5283693,-16.5200004577637
1.5439943,-10.7299995422363
1.5596193,-6.30000019073486
1.5752443,-3.73000001907349
1.5908693,-2.5
1.6064943,-1.69000005722046
1.6221193,-0.629999995231628
1.6377443,0.620000004768372
1.6533693,1.5900000333786
1.6689943,1.9099999666214
1.6846193,1.89999997615814
1.7002443,2.57999992370605
1.7158693,5.15000009536743
1.7314943,10.2399997711182
1.7471193,17.3999996185303
1.7627443,25.2199993133545
1.7783693,32.0
1.7939943,36.5499992370605
1.8096193,38.5299987792969
1.8252443,38.4500007629395
1.8408693,36.9599990844727
1.8564943,34.4599990844727
1.8721193,30.9699993133545
1.8877443,26.5300006866455
1.9033693,21.5699996948242
1.9189943,16.9699993133545
1.9346193,13.5699996948242
1.9502443,11.6199998855591
1.9658693,10.5799999237061
1.9814943,9.48999977111816
1.9971193,7.51999998092651
2.0127443,4.28000020980835
2.0283693,-0.0399999991059303
2.0439943,-4.8600001335144
2.0596193,-9.36999988555908
2.0752443,-12.9700002670288
2.0908693,-15.5100002288818
2.1064943,-17.1700000762939
2.1221193,-18.2999992370605
2.1377443,-19.2199993133545
2.1533693,-20.1000003814697
2.1689943,-20.9899997711182
2.1846193,-21.8799991607666
2.2002443,-22.8700008392334
2.2158693,-24.1000003814697
2.2314943,-25.6299991607666
2.2471193,-27.2800006866455
2.2627443,-28.7800006866455
2.2783693,-29.9899997711182
2.2939943,-31.0
2.3096193,-32.0699996948242
2.3252443,-33.4500007629395
2.3408693,-35.1399993896484
2.3564943,-36.7900009155273
2.3721193,-37.7999992370605
2.3877443,-37.7900009155273
2.4033693,-36.8899993896484
2.4189943,-35.5900001525879
2.4346193,-34.3699989318848
2.4502443,-33.2299995422363
2.4658693,-31.9200000762939
2.4814943,-30.2600002288818
2.4971193,-28.2999992370605
2.5127443,-26.1399993896484
2.5283693,-23.9200000762939
2.5439943,-21.7999992370605
2.5596193,-19.8199996948242
2.5752443,-17.8899993896484
2.5908693,-15.8000001907349
2.6064943,-13.2600002288818
2.6221193,-9.73999977111816
2.6377443,-4.55000019073486
2.6533693,2.71000003814697
2.6689943,11.7600002288818
2.6846193,21.6200008392334
2.7002443,30.9599990844727
2.7158693,38.6300010681152
2.7314943,44.0299987792969
2.7471193,47.2400016784668
2.7627443,48.7900009155273
2.7783693,49.2900009155273
2.7939943,49.1599998474121
2.8096193,48.689998626709
2.8252443,48.0200004577637
2.8408693,47.1100006103516
2.8564943,45.7900009155273
2.8721193,43.9000015258789
2.8877443,41.4000015258789
2.9033693,38.3800010681152
2.9189943,35.1300010681152
2.9346193,32.0699996948242
2.9502443,29.6200008392334
2.9658693,28.1499996185303
2.9814943,27.9899997711182
2.9971193,29.2199993133545
3.0127443,31.3700008392334
3.0283693,33.4300003051758
3.0439943,34.310001373291
3.0596193,33.2700004577637
3.0752443,30.2900009155273
3.0908693,25.8400001525879
3.1064943,20.6299991607666
3.1221193,15.2200002670288
3.1377443,9.86999988555908
3.1533693,4.61999988555908
3.1689943,-0.509999990463257
3.1846193,-5.34999990463257
3.2002443,-9.51000022888184
3.2158693,-12.5900001525879
3.2314943,-14.4700002670288
3.2471193,-15.3800001144409
3.2627443,-15.8900003433228
3.2783693,-16.6100006103516
3.2939943,-17.9699993133545
3.3096193,-19.9500007629395
3.3252443,-22.1399993896484
3.3408693,-23.8999996185303
3.3564943,-24.7600002288818
3.3721193,-24.7600002288818
3.3877443,-24.3799991607666
3.4033693,-24.1499996185303
3.4189943,-24.3500003814697
3.4346193,-24.8799991607666
3.4502443,-25.4699993133545
3.4658693,-25.75
3.4814943,-25.2700004577637
3.4971193,-23.4899997711182
3.5127443,-19.8099994659424
3.5283693,-13.9899997711182
3.5439943,-6.5
3.5596193,1.44000005722046
3.5752443,8.18000030517578
3.5908693,12.3299999237061
3.6064943,13.4799995422363
3.6221193,12.289999961853
3.6377443,9.97999954223633
3.6533693,7.69999980926514
3.6689943,6.15000009536743
3.6846193,5.51999998092651
3.7002443,5.57000017166138
3.7158693,5.76999998092651
3.7314943,5.57000017166138
3.7471193,4.59999990463257
3.7627443,2.70000004768372
3.7783693,-0.0500000007450581
3.7939943,-3.29999995231628
3.8096193,-6.55999994277954
3.8252443,-9.39999961853027
3.8408693,-11.5600004196167
3.8564943,-12.8800001144409
3.8721193,-13.3500003814697
3.8877443,-13.1499996185303
3.9033693,-12.6499996185303
3.9189943,-12.25
3.9346193,-12.2200002670288
3.9502443,-12.6700000762939
3.9658693,-13.4300003051758
3.9814943,-14.2799997329712
3.9971193,-15.0200004577637
4.0127443,-15.6599998474121
4.0283693,-16.2900009155273
4.0439943,-16.9300003051758
4.0596193,-17.5100002288818
4.0752443,-17.8799991607666
4.0908693,-17.9699993133545
4.1064943,-17.7900009155273
4.1221193,-17.3899993896484
4.1377443,-16.8700008392334
4.1533693,-16.2900009155273
4.1689943,-15.5799999237061
4.1846193,-14.6700000762939
4.2002443,-13.5100002288818
4.2158693,-12.1000003814697
4.2314943,-10.5
4.2471193,-8.84000015258789
4.2627443,-7.26999998092651
4.2783693,-5.96999979019165
4.2939943,-5.09000015258789
4.3096193,-4.59000015258789
4.3252443,-4.21000003814697
4.3408693,-3.40000009536743
4.3564943,-1.41999995708466
4.3721193,2.51999998092651
4.3877443,8.85999965667725
4.4033693,17.1800003051758
4.4189943,26.2900009155273
4.4346193,34.6599998474121
4.4502443,40.9900016784668
4.4658693,44.689998626709
4.4814943,45.8699989318848
4.4971193,45.2400016784668
4.5127443,43.6599998474121
4.5283693,41.7999992370605
4.5439943,39.9900016784668
4.5596193,38.1800003051758
4.5752443,36.1100006103516
4.5908693,33.5099983215332
4.6064943,30.1599998474121
4.6221193,25.9599990844727
4.6377443,21.0200004577637
4.6533693,15.7399997711182
4.6689943,10.6400003433228
4.6846193,6.13000011444092
4.7002443,2.39000010490417
4.7158693,-0.519999980926514
4.7314943,-2.5699999332428
4.7471193,-3.64000010490417
4.7627443,-3.73000001907349
4.7783693,-3.34999990463257
4.7939943,-3.36999988555908
4.8096193,-4.55000019073486
4.8252443,-7.07000017166138
4.8408693,-10.6300001144409
4.8564943,-14.6700000762939
4.8721193,-18.4599990844727
4.8877443,-21.1299991607666
4.9033693,-22.0
4.9189943,-20.9200000762939
4.9346193,-18.4400005340576
4.9502443,-15.4899997711182
4.9658693,-12.960000038147
4.9814943,-11.460000038147
4.9971193,-11.2399997711182
5.0127443,-12.2200002670288
5.0283693,-14.0799999237061
5.0439943,-16.2399997711182
5.0596193,-18.0100002288818
5.0752443,-18.8799991607666
5.0908693,-18.7800006866455
5.1064943,-18.0400009155273
5.1221193,-17.1499996185303
5.1377443,-16.4300003051758
5.1533693,-15.9499998092651
5.1689943,-15.6000003814697
5.1846193,-15.1599998474121
5.2002443,-14.3100004196167
5.2158693,-12.5100002288818
5.2314943,-8.9399995803833
5.2471193,-3.05999994277954
5.2627443,4.84000015258789
5.2783693,13.5799999237061
5.2939943,21.4500007629395
5.3096193,27.0100002288818
5.3252443,29.6100006103516
5.3408693,29.6299991607666
5.3564943,28.1700000762939
5.3721193,26.3500003814697
5.3877443,24.8299999237061
5.4033693,23.5499992370605
5.4189943,21.9899997711182
5.4346193,19.7999992370605
5.4502443,17.0100002288818
5.4658693,13.8800001144409
5.4814943,10.6199998855591
5.4971193,7.34999990463257
5.5127443,4.09000015258789
5.5283693,0.860000014305115
5.5439943,-2.24000000953674
5.5596193,-4.98999977111816
5.5752443,-7.23000001907349
5.5908693,-9.0600004196167
5.6064943,-10.789999961853
5.6221193,-12.6599998474121
5.6377443,-14.6400003433228
5.6533693,-16.5499992370605
5.6689943,-18.0900001525879
5.6846193,-19.0
5.7002443,-19.0900001525879
5.7158693,-18.3299999237061
5.7314943,-16.8400001525879
5.7471193,-14.9700002670288
5.7627443,-13.2200002670288
5.7783693,-11.9399995803833
5.7939943,-11.1499996185303
5.8096193,-10.5200004577637
5.8252443,-9.72000026702881
5.8408693,-8.67000007629395
5.8564943,-7.55000019073486
5.8721193,-6.57999992370605
5.8877443,-5.96999979019165
5.9033693,-5.80999994277954
5.9189943,-5.96999979019165
5.9346193,-6.19000005722046
5.9502443,-6.32000017166138
5.9658693,-6.3899998664856
5.9814943,-6.36999988555908
5.9971193,-6.17000007629395
6.0127443,-5.75
6.0283693,-5.17999982833862
6.0439943,-4.57999992370605
6.0596193,-4.03999996185303
6.0752443,-3.63000011444092
6.0908693,-3.34999990463257
6.1064943,-2.89000010490417
6.1221193,-1.41999995708466
6.1377443,2.13000011444092
6.1533693,8.39000034332275
6.1689943,16.8500003814697
6.1846193,25.9799995422363
6.2002443,33.8800010681152
6.2158693,39.1199989318848
6.2314943,41.2200012207031
6.2471193,40.6100006103516
6.2627443,38.3300018310547
6.2783693,35.4799995422363
6.2939943,32.7999992370605
6.3096193,30.4899997711182
6.3252443,28.3500003814697
6.3408693,26.0200004577637
6.3564943,23.1800003051758
6.3721193,19.5699996948242
6.3877443,15.1400003433228
6.4033693,10.1400003433228
6.4189943,5.07999992370605
6.4346193,0.519999980926514
6.4502443,-3.11999988555908
6.4658693,-5.6399998664856
6.4814943,-7.13000011444092
6.4971193,-8.0
6.5127443,-8.8100004196167
6.5283693,-9.96000003814697
6.5439943,-11.6000003814697
6.5596193,-13.539999961853
6.5752443,-15.4499998092651
6.5908693,-17.0200004577637
6.6064943,-18.1599998474121
6.6221193,-19.0100002288818
6.6377443,-19.7800006866455
6.6533693,-20.5699996948242
6.6689943,-21.2900009155273
6.6846193,-21.8299999237061
6.7002443,-22.1100006103516
6.7158693,-22.0900001525879
6.7314943,-21.7800006866455
6.7471193,-21.2199993133545
6.7627443,-20.5699996948242
6.7783693,-20.0400009155273
6.7939943,-19.6599998474121
6.8096193,-19.2099990844727
6.8252443,-18.3700008392334
6.8408693,-17.0400009155273
6.8564943,-15.4200000762939
6.8721193,-13.7799997329712
6.8877443,-12.25
6.9033693,-10.7799997329712
6.9189943,-9.31999969482422
6.9346193,-7.90000009536743
6.9502443,-6.59999990463257
6.9658693,-5.5
6.9814943,-4.48000001907349
6.9971193,-3.10999989509583
7.0127443,-0.660000026226044
7.0283693,3.60999989509583
7.0439943,10.0200004577637
7.0596193,17.9400005340576
7.0752443,25.8500003814697
7.0908693,31.8899993896484
7.1064943,34.689998626709
7.1221193,33.8300018310547
7.1377443,30.0300006866455
7.1533693,24.8700008392334
7.1689943,20.0699996948242
7.1846193,16.7999992370605
7.2002443,15.2700004577637
7.2158693,14.8800001144409
7.2314943,14.710000038147
7.2471193,14.039999961853
7.2627443,12.4899997711182
7.2783693,9.9399995803833
7.2939943,6.48000001907349
7.3096193,2.4300000667572
7.3252443,-1.61000001430511
7.3408693,-4.88000011444092
7.3564943,-6.78999996185303
7.3721193,-7.15999984741211
7.3877443,-6.07999992370605
7.4033693,-3.78999996185303
7.4189943,-0.660000026226044
7.4346193,2.74000000953674
7.4502443,5.78999996185303
7.4658693,8.0
7.4814943,9.28999996185303
7.4971193,10.0799999237061
7.5127443,10.9700002670288
7.5283693,12.3500003814697
7.5439943,14.1899995803833
7.5596193,16.1800003051758
7.5752443,17.9400005340576
7.5908693,19.2099990844727
7.6064943,19.9699993133545
7.6221193,20.3600006103516
7.6377443,20.5
7.6533693,20.3400001525879
7.6689943,19.7399997711182
7.6846193,18.6499996185303
7.7002443,17.1800003051758
7.7158693,15.4200000762939
7.7314943,13.3599996566772
7.7471193,10.960000038147
7.7627443,8.27999973297119
7.7783693,5.44999980926514
7.7939943,2.72000002861023
7.8096193,0.300000011920929
7.8252443,-1.73000001907349
7.8408693,-3.52999997138977
7.8564943,-5.25
7.8721193,-6.86999988555908
7.8877443,-8.01000022888184
7.9033693,-7.96000003814697
7.9189943,-5.94999980926514
7.9346193,-1.71000003814697
7.9502443,4.15000009536743
7.9658693,10.2399997711182
7.9814943,14.9399995803833
7.9971193,17.25
8.0127443,17.1299991607666
8.0283693,15.3299999237061
8.0439943,12.7600002288818
8.0596193,10.1000003814697
8.0752443,7.59999990463257
8.0908693,5.21999979019165
8.1064943,2.78999996185303
8.1221193,0.0900000035762787
8.1377443,-3.14000010490417
8.1533693,-7.1399998664856
8.1689943,-11.8999996185303
8.1846193,-17.0799999237061
8.2002443,-22.0400009155273
8.2158693,-26.1700000762939
8.2314943,-29.1800003051758
8.2471193,-31.2299995422363
8.2627443,-32.689998626709
8.2783693,-33.8899993896484
8.2939943,-35.0800018310547
8.3096193,-36.4300003051758
8.3252443,-37.9300003051758
8.3408693,-39.5099983215332
8.3564943,-41.0699996948242
8.3721193,-42.5200004577637
8.3877443,-43.7900009155273
8.4033693,-44.8199996948242
8.4189943,-45.5800018310547
8.4346193,-46.0400009155273
8.4502443,-46.2099990844727
8.4658693,-46.1800003051758
8.4814943,-46.0900001525879
8.4971193,-45.939998626709
8.5127443,-45.560001373291
8.5283693,-44.7999992370605
8.5439943,-43.6199989318848
8.5596193,-42.060001373291
8.5752443,-40.2200012207031
8.5908693,-38.1599998474121
8.6064943,-35.9199981689453
8.6221193,-33.5900001525879
8.6377443,-31.3199996948242
8.6533693,-29.2199993133545
8.6689943,-27.2199993133545
8.6846193,-25.1200008392334
8.7002443,-22.8400001525879
8.7158693,-20.4300003051758
8.7314943,-17.8899993896484
8.7471193,-14.8599996566772
8.7627443,-10.5
8.7783693,-3.98000001907349
8.7939943,4.8899998664856
8.8096193,15.3199996948242
8.8252443,25.8099994659424
8.8408693,34.8600006103516
8.8564943,41.560001373291
8.8721193,45.8899993896484
8.8877443,48.4700012207031
8.9033693,49.9599990844727
8.9189943,50.8600006103516
8.9346193,51.439998626709
8.9502443,51.810001373291
8.9658693,51.8199996948242
8.9814943,51.2200012207031
8.9971193,49.7900009155273
9.0127443,47.4599990844727
9.0283693,44.25
9.0439943,40.3199996948242
9.0596193,35.9000015258789
9.0752443,31.3600006103516
9.0908693,27.1599998474121
9.1064943,23.6299991607666
9.1221193,20.9099998474121
9.1377443,18.8799991607666
9.1533693,17.2700004577637
9.1689943,15.710000038147
9.1846193,13.8699998855591
9.2002443,11.6199998855591
9.2158693,9.0600004196167
9.2314943,6.42999982833862
9.2471193,3.94000005722046
9.2627443,1.66999995708466
9.2783693,-0.439999997615814
9.2939943,-2.59999990463257
9.3096193,-4.82999992370605
9.3252443,-6.96000003814697
9.3408693,-8.75
9.3564943,-10.0900001525879
9.3721193,-11.0500001907349
9.3877443,-11.789999961853
9.4033693,-12.4399995803833
9.4189943,-12.9899997711182
9.4346193,-13.3299999237061
9.4502443,-13.3900003433228
9.4658693,-13.1999998092651
9.4814943,-12.8299999237061
9.4971193,-12.3800001144409
9.5127443,-11.8500003814697
9.5283693,-11.1899995803833
9.5439943,-10.3699998855591
9.5596193,-9.44999980926514
9.5752443,-8.56999969482422
9.5908693,-7.80000019073486
9.6064943,-7.15000009536743
9.6221193,-6.5
9.6377443,-5.84000015258789
9.6533693,-5.19999980926514
9.6689943,-4.55000019073486
9.6846193,-3.55999994277954
9.7002443,-1.58000004291534
9.7158693,2.25
9.7314943,8.47999954223633
9.7471193,16.7999992370605
9.7627443,26.0599994659424
9.7783693,34.7200012207031
9.7939943,41.4199981689453
9.8096193,45.5200004577637
9.8252443,47.1500015258789
9.8408693,46.9799995422363
9.8564943,45.7999992370605
9.8721193,44.3199996948242
9.8877443,42.8800010681152
9.9033693,41.5499992370605
9.9189943,40.1100006103516
9.9346193,38.2099990844727
9.9502443,35.5200004577637
9.9658693,31.7399997711182
9.9814943,26.8400001525879
9.9971193,21.0799999237061
10.0127443,15.1400003433228
10.0283693,9.76000022888184
10.0439943,5.40000009536743
10.0596193,2.07999992370605
10.0752443,-0.5
10.0908693,-2.77999997138977
10.1064943,-5.09000015258789
10.1221193,-7.48999977111816
10.1377443,-9.97000026702881
10.1533693,-12.6099996566772
10.1689943,-15.4499998092651
10.1846193,-18.3999996185303
10.2002443,-21.3199996948242
10.2158693,-24.0799999237061
10.2314943,-26.5400009155273
10.2471193,-28.5499992370605
10.2627443,-30.1200008392334
10.2783693,-31.3999996185303
10.2939943,-32.560001373291
10.3096193,-33.5900001525879
10.3252443,-34.3400001525879
10.3408693,-34.6500015258789
10.3564943,-34.5299987792969
10.3721193,-34.1100006103516
10.3877443,-33.5800018310547
10.4033693,-33.060001373291
10.4189943,-32.5400009155273
10.4346193,-31.9099998474121
10.4502443,-30.9500007629395
10.4658693,-29.5400009155273
10.4814943,-27.7900009155273
10.4971193,-26.0100002288818
10.5127443,-24.4300003051758
10.5283693,-23.1000003814697
10.5439943,-21.7600002288818
10.5596193,-19.75
10.5752443,-16.1200008392334
10.5908693,-10.1300001144409
10.6064943,-1.87000000476837
10.6221193,7.67000007629395
10.6377443,17.0400009155273
10.6533693,24.9400005340576
10.6689943,30.5900001525879
10.6846193,33.8300018310547
10.7002443,35.0400009155273
10.7158693,34.8600006103516
10.7314943,33.9900016784668
10.7471193,32.9199981689453
10.7627443,31.8400001525879
10.7783693,30.6599998474121
10.7939943,29.2099990844727
10.8096193,27.2000007629395
10.8252443,24.3600006103516
10.8408693,20.6200008392334
10.8564943,16.2800006866455
10.8721193,11.9200000762939
10.8877443,8.13000011444092
10.9033693,5.23000001907349
10.9189943,3.1800000667572
10.9346193,1.66999995708466
10.9502443,0.330000013113022
10.9658693,-1.01999998092651
10.9814943,-2.52999997138977
10.9971193,-4.28000020980835
11.0127443,-6.32999992370605
11.0283693,-8.63000011444092
11.0439943,-11.0500001907349
11.0596193,-13.4399995803833
11.0752443,-15.4899997711182
11.0908693,-17.0200004577637
11.1064943,-18.0599994659424
11.1221193,-18.7900009155273
11.1377443,-19.3799991607666
11.1533693,-19.9200000762939
11.1689943,-20.3799991607666
11.1846193,-20.6399993896484
11.2002443,-20.6499996185303
11.2158693,-20.4300003051758
11.2314943,-20.0400009155273
11.2471193,-19.5300006866455
11.2627443,-18.9699993133545
11.2783693,-18.3899993896484
11.2939943,-17.7800006866455
11.3096193,-17.0499992370605
11.3252443,-16.1200008392334
11.3408693,-15.0
11.3564943,-13.8299999237061
11.3721193,-12.7700004577637
11.3877443,-11.8599996566772
11.4033693,-10.9799995422363
11.4189943,-9.80000019073486
11.4346193,-7.71999979019165
11.4502443,-3.96000003814697
11.4658693,2.0699999332428
11.4814943,10.3199996948242
