Time(s),Value(%)
19.0093332,18.9400005340576
19.0249582,16.7399997711182
19.0405832,12.5900001525879
19.0562082,6.63000011444092
19.0718332,-0.230000004172325
19.0874582,-6.80000019073486
19.1030832,-12.3999996185303
19.1187082,-17.4599990844727
19.1343332,-22.7299995422363
19.1499582,-28.2900009155273
19.1655832,-33.7299995422363
19.1812082,-38.9099998474121
19.1968332,-44.2099990844727
19.2124582,-49.9300003051758
19.2280832,-55.6800003051758
19.2437082,-60.3300018310547
19.2593332,-63.0099983215332
19.2749582,-63.9599990844727
19.2905832,-64.0899963378906
19.3062082,-63.9300003051758
19.3218332,-63.2999992370605
19.3374582,-61.7999992370605
19.3530832,-59.2999992370605
19.3687082,-56.1199989318848
19.3843332,-52.9599990844727
19.3999582,-50.7999992370605
19.4155832,-50.3400001525879
19.4312082,-51.6599998474121
19.4468332,-54.3199996948242
19.4624582,-57.7200012207031
19.4780832,-61.4099998474121
19.4937082,-64.9499969482422
19.5093332,-67.4800033569336
19.5249582,-67.629997253418
19.5405832,-64.2099990844727
19.5562082,-57.2099990844727
19.5718332,-47.7200012207031
19.5874582,-37.189998626709
19.6030832,-26.7299995422363
19.6187082,-16.8999996185303
19.6343332,-7.80000019073486
19.6499582,0.660000026226044
19.6655832,8.61999988555908
19.6812082,16.0900001525879
19.6968332,23.0100002288818
19.7124582,29.3099994659424
19.7280832,34.9099998474121
19.7437082,39.6300010681152
19.7593332,43.3499984741211
19.7749582,46.1500015258789
19.7905832,48.3600006103516
19.8062082,50.4900016784668
19.8218332,52.2000007629395
19.8374582,54.5099983215332
19.8530832,57.4300003051758
19.8687082,60.8699989318848
19.8843332,64.6900024414063
19.8999582,68.6800003051758
19.9155832,72.5500030517578
19.9312082,64.5699996948242
19.9468332,-10.8699998855591
19.9624582,-260.790008544922
19.9780832,-327.679992675781
19.9937082,-327.679992675781
20.0093332,-327.679992675781
20.0249582,-327.679992675781
20.0405832,-327.679992675781
20.0562082,-327.679992675781
20.0718332,-327.679992675781
20.0874582,-327.679992675781
20.1030832,-327.679992675781
20.1187082,-327.679992675781
20.1343332,-327.679992675781
20.1499582,-327.679992675781
20.1655832,-327.679992675781
20.1812082,-327.679992675781
20.1968332,-327.679992675781
20.2124582,-327.679992675781
20.2280832,-327.679992675781
20.2437082,-327.679992675781
20.2593332,-327.679992675781
20.2749582,-327.679992675781
20.2905832,-327.679992675781
20.3062082,-327.679992675781
20.3218332,-327.679992675781
20.3374582,-327.679992675781
20.3530832,-327.679992675781
20.3687082,-177.389999389648
20.3843332,37.9500007629395
20.3999582,243.699996948242
20.4155832,327.670013427734
20.4312082,327.670013427734
20.4468332,327.670013427734
20.4624582,327.670013427734
20.4780832,327.670013427734
20.4937082,327.670013427734
20.5093332,327.670013427734
20.5249582,327.670013427734
20.5405832,327.670013427734
20.5562082,327.670013427734
20.5718332,327.670013427734
20.5874582,327.670013427734
20.6030832,327.670013427734
20.6187082,327.670013427734
20.6343332,327.670013427734
20.6499582,327.670013427734
20.6655832,327.670013427734
20.6812082,327.670013427734
20.6968332,327.670013427734
20.7124582,327.670013427734
20.7280832,327.670013427734
20.7437082,327.670013427734
20.7593332,327.670013427734
20.7749582,327.670013427734
20.7905832,327.670013427734
20.8062082,327.670013427734
20.8218332,327.670013427734
20.8374582,327.670013427734
20.8530832,327.670013427734
20.8687082,327.670013427734
20.8843332,327.670013427734
20.8999582,327.670013427734
20.9155832,327.670013427734
20.9312082,327.670013427734
20.9468332,327.670013427734
20.9624582,327.670013427734
20.9780832,327.670013427734
20.9937082,327.670013427734
21.0093332,327.670013427734
21.0249582,327.670013427734
21.0405832,327.670013427734
21.0562082,327.670013427734
21.0718332,327.670013427734
21.0874582,327.670013427734
21.1030832,327.670013427734
21.1187082,327.670013427734
21.1343332,327.670013427734
21.1499582,327.670013427734
21.1655832,327.670013427734
21.1812082,327.670013427734
21.1968332,327.670013427734
21.2124582,327.670013427734
21.2280832,327.670013427734
21.2437082,327.670013427734
21.2593332,327.670013427734
21.2749582,327.670013427734
21.2905832,327.670013427734
21.3062082,327.670013427734
21.3218332,327.670013427734
21.3374582,327.670013427734
21.3530832,327.670013427734
21.3687082,327.670013427734
21.3843332,327.670013427734
21.3999582,327.670013427734
21.4155832,327.670013427734
21.4312082,327.670013427734
21.4468332,327.670013427734
21.4624582,327.670013427734
21.4780832,327.670013427734
21.4937082,327.670013427734
21.5093332,327.670013427734
21.5249582,327.670013427734
21.5405832,327.670013427734
21.5562082,327.670013427734
21.5718332,327.670013427734
21.5874582,327.670013427734
21.6030832,327.670013427734
21.6187082,327.670013427734
21.6343332,327.670013427734
21.6499582,270.989990234375
21.6655832,214.0
21.6812082,157.740005493164
21.6968332,102.230003356934
21.7124582,47.5099983215332
21.7280832,-6.38000011444092
21.7437082,-59.4300003051758
21.7593332,-111.589996337891
21.7749582,-162.850006103516
21.7905832,-213.179992675781
21.8062082,-262.540008544922
21.8218332,-318.049987792969
21.8374582,-327.679992675781
21.8530832,-327.679992675781
21.8687082,-327.679992675781
21.8843332,-327.679992675781
21.8999582,-327.679992675781
21.9155832,-327.679992675781
21.9312082,-327.679992675781
21.9468332,-327.679992675781
21.9624582,-327.679992675781
21.9780832,-327.679992675781
21.9937082,-327.679992675781
22.0093332,-327.679992675781
22.0249582,-327.679992675781
22.0405832,-327.679992675781
22.0562082,-327.679992675781
22.0718332,-327.679992675781
22.0874582,-327.679992675781
22.1030832,-327.679992675781
22.1187082,-327.679992675781
22.1343332,-327.679992675781
22.1499582,-327.679992675781
22.1655832,-327.679992675781
22.1812082,-327.679992675781
22.1968332,-327.679992675781
22.2124582,-327.679992675781
22.2280832,-327.679992675781
22.2437082,-327.679992675781
22.2593332,-327.679992675781
22.2749582,-327.679992675781
22.2905832,-327.679992675781
22.3062082,-327.679992675781
22.3218332,-327.679992675781
22.3374582,-327.679992675781
22.3530832,-327.679992675781
22.3687082,-327.679992675781
22.3843332,-327.679992675781
22.3999582,-327.679992675781
22.4155832,-327.679992675781
22.4312082,-327.679992675781
22.4468332,-327.679992675781
22.4624582,-327.679992675781
22.4780832,-327.679992675781
22.4937082,-327.679992675781
22.5093332,-327.679992675781
22.5249582,-327.679992675781
22.5405832,-327.679992675781
22.5562082,-327.679992675781
22.5718332,-327.679992675781
22.5874582,-327.679992675781
22.6030832,-327.679992675781
22.6187082,-327.679992675781
22.6343332,-327.679992675781
22.6499582,-327.679992675781
22.6655832,-327.679992675781
22.6812082,-327.679992675781
22.6968332,-327.679992675781
22.7124582,-327.679992675781
22.7280832,-327.679992675781
22.7437082,-248.059997558594
22.7593332,73.620002746582
22.7749582,327.670013427734
22.7905832,327.670013427734
22.8062082,327.670013427734
22.8218332,327.670013427734
22.8374582,327.670013427734
22.8530832,327.670013427734
22.8687082,327.670013427734
22.8843332,327.670013427734
22.8999582,327.670013427734
22.9155832,327.670013427734
22.9312082,327.670013427734
22.9468332,327.670013427734
22.9624582,327.670013427734
22.9780832,327.670013427734
22.9937082,327.670013427734
23.0093332,327.670013427734
23.0249582,327.670013427734
23.0405832,327.670013427734
23.0562082,327.670013427734
23.0718332,327.670013427734
23.0874582,327.670013427734
23.1030832,85.7200012207031
23.1187082,-235.210006713867
23.1343332,-327.679992675781
23.1499582,-327.679992675781
23.1655832,-327.679992675781
23.1812082,-327.679992675781
23.1968332,-327.679992675781
23.2124582,-327.679992675781
23.2280832,-327.679992675781
23.2437082,-327.679992675781
23.2593332,-327.679992675781
23.2749582,-327.679992675781
23.2905832,-327.679992675781
23.3062082,-327.679992675781
23.3218332,-327.679992675781
23.3374582,-327.679992675781
23.3530832,-327.679992675781
23.3687082,-327.679992675781
23.3843332,-327.679992675781
23.3999582,-327.679992675781
23.4155832,-327.679992675781
23.4312082,-327.679992675781
23.4468332,-327.679992675781
23.4624582,-327.679992675781
23.4780832,-327.679992675781
23.4937082,-327.679992675781
23.5093332,-327.679992675781
23.5249582,-327.679992675781
23.5405832,-327.679992675781
23.5562082,-327.679992675781
23.5718332,-327.679992675781
23.5874582,-327.679992675781
23.6030832,-327.679992675781
23.6187082,-327.679992675781
23.6343332,-327.679992675781
23.6499582,-327.679992675781
23.6655832,-327.679992675781
23.6812082,-327.679992675781
23.6968332,-327.679992675781
23.7124582,-327.679992675781
23.7280832,-327.679992675781
23.7437082,-327.679992675781
23.7593332,-327.679992675781
23.7749582,-327.679992675781
23.7905832,-327.679992675781
23.8062082,-327.679992675781
23.8218332,-327.679992675781
23.8374582,-327.679992675781
23.8530832,-327.679992675781
23.8687082,-327.679992675781
23.8843332,-327.679992675781
23.8999582,-327.679992675781
23.9155832,-327.679992675781
23.9312082,-327.679992675781
23.9468332,-327.679992675781
23.9624582,-327.679992675781
23.9780832,-327.679992675781
23.9937082,-327.679992675781
24.0093332,-327.679992675781
24.0249582,-327.679992675781
24.0405832,-327.679992675781
24.0562082,-327.679992675781
24.0718332,-327.679992675781
24.0874582,-327.679992675781
24.1030832,-327.679992675781
24.1187082,-327.679992675781
24.1343332,-327.679992675781
24.1499582,-327.679992675781
24.1655832,-327.679992675781
24.1812082,-327.679992675781
24.1968332,-327.679992675781
24.2124582,-327.679992675781
24.2280832,-327.679992675781
24.2437082,-327.679992675781
24.2593332,-327.679992675781
24.2749582,-327.679992675781
24.2905832,-327.679992675781
24.3062082,-327.679992675781
24.3218332,-327.679992675781
24.3374582,-267.230010986328
24.3530832,-164.660003662109
24.3687082,-59.6500015258789
24.3843332,46.0200004577637
24.3999582,150.979995727539
24.4155832,254.929992675781
24.4312082,327.670013427734
24.4468332,327.670013427734
24.4624582,327.670013427734
24.4780832,327.670013427734
24.4937082,327.670013427734
24.5093332,327.670013427734
24.5249582,327.670013427734
24.5405832,327.670013427734
24.5562082,327.670013427734
24.5718332,327.670013427734
24.5874582,327.670013427734
24.6030832,327.670013427734
24.6187082,327.670013427734
24.6343332,327.670013427734
24.6499582,327.670013427734
24.6655832,327.670013427734
24.6812082,327.670013427734
24.6968332,327.670013427734
24.7124582,327.670013427734
24.7280832,327.670013427734
24.7437082,327.670013427734
24.7593332,327.670013427734
24.7749582,327.670013427734
24.7905832,327.670013427734
24.8062082,327.670013427734
24.8218332,327.670013427734
24.8374582,327.670013427734
24.8530832,327.670013427734
24.8687082,327.670013427734
24.8843332,327.670013427734
24.8999582,327.670013427734
24.9155832,327.670013427734
24.9312082,327.670013427734
24.9468332,327.670013427734
24.9624582,327.670013427734
24.9780832,327.670013427734
24.9937082,327.670013427734
25.0093332,327.670013427734
25.0249582,327.670013427734
25.0405832,327.670013427734
25.0562082,327.670013427734
25.0718332,327.670013427734
25.0874582,327.670013427734
25.1030832,327.670013427734
25.1187082,327.670013427734
25.1343332,327.670013427734
25.1499582,327.670013427734
25.1655832,327.670013427734
25.1812082,327.670013427734
25.1968332,327.670013427734
25.2124582,327.670013427734
25.2280832,327.670013427734
25.2437082,327.670013427734
25.2593332,327.670013427734
25.2749582,327.670013427734
25.2905832,327.670013427734
25.3062082,327.670013427734
25.3218332,327.670013427734
25.3374582,327.670013427734
25.3530832,327.670013427734
25.3687082,327.670013427734
25.3843332,327.670013427734
25.3999582,327.670013427734
25.4155832,327.670013427734
25.4312082,327.670013427734
25.4468332,327.670013427734
25.4624582,327.670013427734
25.4780832,327.670013427734
25.4937082,327.670013427734
25.5093332,327.670013427734
25.5249582,327.670013427734
25.5405832,327.670013427734
25.5562082,327.670013427734
25.5718332,327.670013427734
25.5874582,327.670013427734
25.6030832,327.670013427734
25.6187082,327.670013427734
25.6343332,327.670013427734
25.6499582,327.670013427734
25.6655832,327.670013427734
25.6812082,327.670013427734
25.6968332,327.670013427734
25.7124582,327.670013427734
25.7280832,327.670013427734
25.7437082,327.670013427734
25.7593332,327.670013427734
25.7749582,327.670013427734
25.7905832,327.670013427734
25.8062082,327.670013427734
25.8218332,327.670013427734
25.8374582,327.670013427734
25.8530832,327.670013427734
25.8687082,327.670013427734
25.8843332,327.670013427734
25.8999582,327.670013427734
25.9155832,327.670013427734
25.9312082,327.670013427734
25.9468332,327.670013427734
25.9624582,327.670013427734
25.9780832,327.670013427734
25.9937082,327.670013427734
26.0093332,327.670013427734
26.0249582,327.670013427734
26.0405832,327.670013427734
26.0562082,327.670013427734
26.0718332,327.670013427734
26.0874582,327.670013427734
26.1030832,327.670013427734
26.1187082,327.670013427734
26.1343332,327.670013427734
26.1499582,327.670013427734
26.1655832,327.670013427734
26.1812082,327.670013427734
26.1968332,327.670013427734
26.2124582,327.670013427734
26.2280832,327.670013427734
26.2437082,327.670013427734
26.2593332,327.670013427734
26.2749582,327.670013427734
26.2905832,315.540008544922
26.3062082,280.200012207031
26.3218332,245.350006103516
26.3374582,209.649993896484
26.3530832,172.190002441406
26.3687082,132.929992675781
26.3843332,92.6100006103516
26.3999582,52.2999992370605
26.4155832,12.8699998855591
26.4312082,-25.3099994659424
26.4468332,-62.3499984741211
26.4624582,-98.6500015258789
26.4780832,-134.600006103516
26.4937082,-170.449996948242
26.5093332,-206.490005493164
26.5249582,-243.270004272461
26.5405832,-281.290008544922
26.5562082,-320.269989013672
26.5718332,-327.679992675781
26.5874582,-327.679992675781
26.6030832,-327.679992675781
26.6187082,-327.679992675781
26.6343332,-327.679992675781
26.6499582,-327.679992675781
26.6655832,-327.679992675781
26.6812082,-327.679992675781
26.6968332,-327.679992675781
26.7124582,-327.679992675781
26.7280832,-327.679992675781
26.7437082,-327.679992675781
26.7593332,-327.679992675781
26.7749582,-327.679992675781
26.7905832,-327.679992675781
26.8062082,-327.679992675781
26.8218332,-327.679992675781
26.8374582,-327.679992675781
26.8530832,-327.679992675781
26.8687082,-327.679992675781
26.8843332,-327.679992675781
26.8999582,-327.679992675781
26.9155832,-327.679992675781
26.9312082,-327.679992675781
26.9468332,-327.679992675781
26.9624582,-327.679992675781
26.9780832,-327.679992675781
26.9937082,-327.679992675781
27.0093332,-327.679992675781
27.0249582,-327.679992675781
27.0405832,-327.679992675781
27.0562082,-327.679992675781
27.0718332,-327.679992675781
27.0874582,-327.679992675781
27.1030832,-327.679992675781
27.1187082,-327.679992675781
27.1343332,-327.679992675781
27.1499582,-327.679992675781
27.1655832,-327.679992675781
27.1812082,-327.679992675781
27.1968332,-327.679992675781
27.2124582,-327.679992675781
27.2280832,-327.679992675781
27.2437082,-327.679992675781
27.2593332,-327.679992675781
27.2749582,-327.679992675781
27.2905832,-327.679992675781
27.3062082,-327.679992675781
27.3218332,-327.679992675781
27.3374582,-327.679992675781
27.3530832,-327.679992675781
27.3687082,-327.679992675781
27.3843332,-327.679992675781
27.3999582,-327.679992675781
27.4155832,-327.679992675781
27.4312082,-327.679992675781
27.4468332,-327.679992675781
27.4624582,-327.679992675781
27.4780832,-327.679992675781
27.4937082,-327.679992675781
27.5093332,-327.679992675781
27.5249582,-327.679992675781
27.5405832,-327.679992675781
27.5562082,-327.679992675781
27.5718332,-327.679992675781
27.5874582,-327.679992675781
27.6030832,-327.679992675781
27.6187082,-327.679992675781
27.6343332,-327.679992675781
27.6499582,-327.679992675781
27.6655832,-327.679992675781
27.6812082,-327.679992675781
27.6968332,-327.679992675781
27.7124582,-327.679992675781
27.7280832,-327.679992675781
27.7437082,-327.679992675781
27.7593332,-327.679992675781
27.7749582,-327.679992675781
27.7905832,-327.679992675781
27.8062082,-327.679992675781
27.8218332,-327.679992675781
27.8374582,-327.679992675781
27.8530832,-327.679992675781
27.8687082,-327.679992675781
27.8843332,-327.679992675781
27.8999582,-327.679992675781
27.9155832,-327.679992675781
27.9312082,-327.679992675781
27.9468332,-327.679992675781
27.9624582,-327.679992675781
27.9780832,-327.679992675781
27.9937082,-327.679992675781
28.0093332,-327.679992675781
28.0249582,-327.679992675781
28.0405832,-327.679992675781
28.0562082,-327.679992675781
28.0718332,-327.679992675781
28.0874582,-327.679992675781
28.1030832,-327.679992675781
28.1187082,-327.679992675781
28.1343332,-327.679992675781
28.1499582,-327.679992675781
28.1655832,-327.679992675781
28.1812082,-327.679992675781
28.1968332,-327.679992675781
28.2124582,-327.679992675781
28.2280832,-327.679992675781
28.2437082,-327.679992675781
28.2593332,-327.679992675781
28.2749582,-327.679992675781
28.2905832,-327.679992675781
28.3062082,-327.679992675781
28.3218332,-327.679992675781
28.3374582,-327.679992675781
28.3530832,-327.679992675781
28.3687082,-323.299987792969
28.3843332,-315.709991455078
28.3999582,-308.410003662109
28.4155832,-301.190002441406
28.4312082,-293.690002441406
28.4468332,-285.649993896484
28.4624582,-277.119995117188
28.4780832,-268.339996337891
28.4937082,-259.519989013672
28.5093332,-250.740005493164
28.5249582,-242.070007324219
28.5405832,-233.580001831055
28.5562082,-225.300003051758
28.5718332,-217.119995117188
28.5874582,-208.779998779297
28.6030832,-199.940002441406
28.6187082,-190.199996948242
28.6343332,-179.369995117188
28.6499582,-167.509994506836
28.6655832,-154.949996948242
28.6812082,-142.160003662109
28.6968332,-129.580001831055
28.7124582,-117.400001525879
28.7280832,-105.379997253418
28.7437082,-92.8399963378906
28.7593332,-79.0999984741211
28.7749582,-63.9900016784668
28.7905832,-47.9000015258789
28.8062082,-31.4200000762939
28.8218332,-15.0600004196167
28.8374582,0.720000028610229
28.8530832,15.2700004577637
28.8687082,27.6000003814697
28.8843332,36.8800010681152
28.8999582,43.0999984741211
28.9155832,47.0299987792969
28.9312082,49.689998626709
28.9468332,51.8499984741211
28.9624582,53.9300003051758
28.9780832,56.0800018310547
28.9937082,58.2700004577637
29.0093332,60.3699989318848
29.0249582,62.189998626709
29.0405832,63.5900001525879
29.0562082,64.5699996948242
29.0718332,65.1999969482422
29.0874582,65.5400009155273
29.1030832,65.620002746582
29.1187082,65.4899978637695
29.1343332,65.3300018310547
29.1499582,65.2900009155273
29.1655832,65.4000015258789
29.1812082,65.370002746582
29.1968332,64.9000015258789
29.2124582,63.9599990844727
29.2280832,62.8400001525879
29.2437082,61.9199981689453
29.2593332,61.4500007629395
29.2749582,61.4900016784668
29.2905832,62.0499992370605
29.3062082,63.2900009155273
29.3218332,65.3300018310547
29.3374582,68.1900024414063
29.3530832,71.7200012207031
29.3687082,75.7399978637695
29.3843332,80.129997253418
29.3999582,84.7600021362305
29.4155832,89.4700012207031
29.4312082,94.1699981689453
29.4468332,98.7799987792969
29.4624582,103.269996643066
29.4780832,107.529998779297
29.4937082,111.360000610352
29.5093332,114.589996337891
29.5249582,117.160003662109
29.5405832,119.220001220703
29.5562082,120.940002441406
29.5718332,122.339996337891
29.5874582,123.129997253418
29.6030832,122.949996948242
29.6187082,121.680000305176
29.6343332,119.400001525879
29.6499582,116.160003662109
29.6655832,112.019996643066
29.6812082,107.220001220703
29.6968332,102.309997558594
29.7124582,98.0599975585938
29.7280832,94.9100036621094
29.7437082,92.6100006103516
29.7593332,90.620002746582
29.7749582,88.7099990844727
29.7905832,87.0999984741211
29.8062082,86.1500015258789
29.8218332,84.870002746582
29.8374582,84.2300033569336
29.8530832,83.7699966430664
29.8687082,82.9000015258789
29.8843332,81.1999969482422
29.8999582,78.620002746582
29.9155832,75.370002746582
29.9312082,71.629997253418
29.9468332,67.5100021362305
