Time(s),Value(%)
19.0093332,-41.3899993896484
19.0249582,-34.9799995422363
19.0405832,-31.3199996948242
19.0562082,-31.6399993896484
19.0718332,-35.4000015258789
19.0874582,-40.6800003051758
19.1030832,-45.1599998474121
19.1187082,-47.0800018310547
19.1343332,-45.810001373291
19.1499582,-41.7799987792969
19.1655832,-36.1599998474121
19.1812082,-30.3199996948242
19.1968332,-25.2900009155273
19.2124582,-21.5400009155273
19.2280832,-18.9400005340576
19.2437082,-17.0100002288818
19.2593332,-15.3000001907349
19.2749582,-13.8500003814697
19.2905832,-13.1099996566772
19.3062082,-13.1000003814697
19.3218332,-12.5100002288818
19.3374582,-8.88000011444092
19.3530832,0.109999999403954
19.3687082,14.9799995422363
19.3843332,33.9000015258789
19.3999582,53.4799995422363
19.4155832,70.2900009155273
19.4312082,82.0299987792969
19.4468332,87.9700012207031
19.4624582,88.7200012207031
19.4780832,85.870002746582
19.4937082,81.3899993896484
19.5093332,76.629997253418
19.5249582,71.5899963378906
19.5405832,65.2399978637695
19.5562082,56.5
19.5718332,45.0400009155273
19.5874582,31.4400005340576
19.6030832,16.7600002288818
19.6187082,2.14000010490417
19.6343332,-11.3699998855591
19.6499582,-22.8700008392334
19.6655832,-31.6700000762939
19.6812082,-37.4799995422363
19.6968332,-40.4500007629395
19.7124582,-41.3199996948242
19.7280832,-41.2099990844727
19.7437082,-41.2799987792969
19.7593332,-42.2299995422363
19.7749582,-44.0999984741211
19.7905832,-46.3400001525879
19.8062082,-48.1500015258789
19.8218332,-48.8899993896484
19.8374582,-48.3600006103516
19.8530832,-46.7999992370605
19.8687082,-44.689998626709
19.8843332,-42.4700012207031
19.8999582,-40.4099998474121
19.9155832,-38.6699981689453
19.9312082,-37.3400001525879
19.9468332,-36.5099983215332
19.9624582,-36.1599998474121
19.9780832,-36.2200012207031
19.9937082,-36.3499984741211
20.0093332,-35.7799987792969
20.0249582,-32.9799995422363
20.0405832,-25.8600006103516
20.0562082,-12.5699996948242
20.0718332,6.92000007629395
20.0874582,29.9599990844727
20.1030832,52.0699996948242
20.1187082,69.3600006103516
20.1343332,80.2900009155273
20.1499582,85.5299987792969
20.1655832,86.4300003051758
20.1812082,83.9599990844727
20.1968332,78.8000030517578
20.2124582,71.7399978637695
20.2280832,63.810001373291
20.2437082,55.7299995422363
20.2593332,47.2999992370605
20.2749582,37.4000015258789
20.2905832,25.0499992370605
20.3062082,10.5900001525879
20.3218332,-4.40999984741211
20.3374582,-18.2600002288818
20.3530832,-30.0
20.3687082,-39.3300018310547
20.3843332,-46.2099990844727
20.3999582,-50.6300010681152
20.4155832,-52.8199996948242
20.4312082,-53.3899993896484
20.4468332,-53.0499992370605
20.4624582,-52.2599983215332
20.4780832,-50.9500007629395
20.4937082,-48.7700004577637
20.5093332,-45.7400016784668
20.5249582,-42.5299987792969
20.5405832,-40.0900001525879
20.5562082,-38.9700012207031
20.5718332,-39.0800018310547
20.5874582,-39.7400016784668
20.6030832,-39.7400016784668
20.6187082,-37.9199981689453
20.6343332,-34.0299987792969
20.6499582,-28.9799995422363
20.6655832,-24.0900001525879
20.6812082,-20.1499996185303
20.6968332,-17.1800003051758
20.7124582,-14.5799999237061
20.7280832,-11.3599996566772
20.7437082,-6.32999992370605
20.7593332,1.63999998569489
20.7749582,13.2600002288818
20.7905832,28.2900009155273
20.8062082,45.2099990844727
20.8218332,61.4799995422363
20.8374582,74.5599975585938
20.8530832,83.0800018310547
20.8687082,87.4199981689453
20.8843332,89.0899963378906
20.8999582,89.6500015258789
20.9155832,89.879997253418
20.9312082,89.4899978637695
20.9468332,87.5299987792969
20.9624582,82.7799987792969
20.9780832,74.0299987792969
20.9937082,60.4199981689453
21.0093332,42.0099983215332
21.0249582,20.3600006103516
21.0405832,-1.52999997138977
21.0562082,-20.2800006866455
21.0718332,-33.6300010681152
21.0874582,-41.2400016784668
21.1030832,-44.2799987792969
21.1187082,-44.5499992370605
21.1343332,-43.6399993896484
21.1499582,-42.6800003051758
21.1655832,-42.2700004577637
21.1812082,-42.7799987792969
21.1968332,-44.4700012207031
21.2124582,-47.3199996948242
21.2280832,-50.7999992370605
21.2437082,-53.7000007629395
21.2593332,-54.5699996948242
21.2749582,-52.6599998474121
21.2905832,-48.7000007629395
21.3062082,-44.4300003051758
21.3218332,-41.2700004577637
21.3374582,-39.5200004577637
21.3530832,-38.4599990844727
21.3687082,-37.0400009155273
21.3843332,-34.6800003051758
21.3999582,-31.7299995422363
21.4155832,-29.0799999237061
21.4312082,-27.0499992370605
21.4468332,-24.7700004577637
21.4624582,-20.0100002288818
21.4780832,-9.97000026702881
21.4937082,6.84000015258789
21.5093332,29.0799999237061
21.5249582,52.8199996948242
21.5405832,73.6800003051758
21.5562082,88.8499984741211
21.5718332,97.6500015258789
21.5874582,100.879997253418
21.6030832,99.8499984741211
21.6187082,95.9499969482422
21.6343332,90.2799987792969
21.6499582,83.1999969482422
21.6655832,74.1500015258789
21.6812082,62.2099990844727
21.6968332,47.060001373291
21.7124582,29.5100002288818
21.7280832,11.2799997329712
21.7437082,-5.57999992370605
21.7593332,-19.3999996185303
21.7749582,-29.3199996948242
21.7905832,-35.4700012207031
21.8062082,-38.8600006103516
21.8218332,-40.9700012207031
21.8374582,-43.1199989318848
21.8530832,-45.9099998474121
21.8687082,-49.2599983215332
21.8843332,-52.5900001525879
21.8999582,-54.9900016784668
21.9155832,-55.5800018310547
21.9312082,-54.0400009155273
21.9468332,-50.6500015258789
21.9624582,-46.0
21.9780832,-40.8499984741211
21.9937082,-36.2799987792969
22.0093332,-33.3600006103516
22.0249582,-32.5900001525879
22.0405832,-33.4599990844727
22.0562082,-34.7400016784668
22.0718332,-35.2099990844727
22.0874582,-34.4199981689453
22.1030832,-32.8499984741211
22.1187082,-31.4099998474121
22.1343332,-30.6800003051758
22.1499582,-30.2600002288818
22.1655832,-28.6100006103516
22.1812082,-23.3999996185303
22.1968332,-12.460000038147
22.2124582,5.0
22.2280832,27.3899993896484
22.2437082,50.7299995422363
22.2593332,70.120002746582
22.2749582,82.25
22.2905832,86.9599990844727
22.3062082,86.8000030517578
22.3218332,84.9499969482422
22.3374582,83.4300003051758
22.3530832,82.4800033569336
22.3687082,80.9400024414063
22.3843332,77.129997253418
22.3999582,69.8300018310547
22.4155832,58.8300018310547
22.4312082,44.8400001525879
22.4468332,29.2199993133545
22.4624582,13.6499996185303
22.4780832,-0.259999990463257
22.4937082,-11.4799995422363
22.5093332,-19.7199993133545
22.5249582,-25.3099994659424
22.5405832,-28.8700008392334
22.5562082,-31.25
22.5718332,-33.4199981689453
22.5874582,-36.1300010681152
22.6030832,-39.5499992370605
22.6187082,-43.0900001525879
22.6343332,-45.9000015258789
22.6499582,-47.4300003051758
22.6655832,-47.6199989318848
22.6812082,-46.8600006103516
22.6968332,-45.7000007629395
22.7124582,-44.3499984741211
22.7280832,-42.5800018310547
22.7437082,-40.0400009155273
22.7593332,-36.5299987792969
22.7749582,-32.1800003051758
22.7905832,-27.4699993133545
22.8062082,-23.25
22.8218332,-20.2900009155273
22.8374582,-18.6499996185303
22.8530832,-17.25
22.8687082,-13.7700004577637
22.8843332,-5.63000011444092
22.8999582,8.53999996185303
22.9155832,27.7000007629395
22.9312082,48.5099983215332
22.9468332,66.9000015258789
22.9624582,79.6999969482422
22.9780832,85.5699996948242
22.9937082,85.5
23.0093332,82.0500030517578
23.0249582,77.7399978637695
23.0405832,73.6999969482422
23.0562082,69.4899978637695
23.0718332,63.8600006103516
23.0874582,55.4099998474121
23.1030832,43.1699981689453
23.1187082,27.0400009155273
23.1343332,8.0
23.1499582,-12.0799999237061
23.1655832,-30.8199996948242
23.1812082,-45.8699989318848
23.1968332,-55.6199989318848
23.2124582,-59.9300003051758
23.2280832,-60.0200004577637
23.2437082,-57.7599983215332
23.2593332,-54.75
23.2749582,-52.1300010681152
23.2905832,-50.6500015258789
23.3062082,-50.6100006103516
23.3218332,-51.7999992370605
23.3374582,-53.5299987792969
23.3530832,-54.8400001525879
23.3687082,-54.8899993896484
23.3843332,-53.25
23.3999582,-50.0400009155273
23.4155832,-45.7400016784668
23.4312082,-40.9099998474121
23.4468332,-35.8800010681152
23.4624582,-31.0
23.4780832,-26.8400001525879
23.4937082,-23.8299999237061
23.5093332,-21.7600002288818
23.5249582,-20.0300006866455
23.5405832,-18.0900001525879
23.5562082,-15.6499996185303
23.5718332,-12.3199996948242
23.5874582,-6.98000001907349
23.6030832,2.25
23.6187082,16.8299999237061
23.6343332,36.3800010681152
23.6499582,58.1300010681152
23.6655832,77.9599990844727
23.6812082,92.2799987792969
23.6968332,99.6399993896484
23.7124582,100.970001220703
23.7280832,98.7300033569336
23.7437082,95.4400024414063
23.7593332,92.4000015258789
23.7749582,89.2900009155273
23.7905832,84.870002746582
23.8062082,77.8300018310547
23.8218332,67.0599975585938
23.8374582,51.8699989318848
23.8530832,32.5999984741211
23.8687082,11.1199998855591
23.8843332,-9.47000026702881
23.8999582,-26.1599998474121
23.9155832,-37.2999992370605
23.9312082,-42.9700012207031
23.9468332,-44.4300003051758
23.9624582,-43.5999984741211
23.9780832,-42.560001373291
23.9937082,-42.8499984741211
24.0093332,-44.8899993896484
24.0249582,-48.0999984741211
24.0405832,-51.4599990844727
24.0562082,-53.9799995422363
24.0718332,-55.0999984741211
24.0874582,-54.7799987792969
24.1030832,-53.3300018310547
24.1187082,-50.8800010681152
24.1343332,-47.2999992370605
24.1499582,-42.7299995422363
24.1655832,-37.8199996948242
24.1812082,-33.4099998474121
24.1968332,-30.1700000762939
24.2124582,-28.6499996185303
24.2280832,-29.0900001525879
24.2437082,-30.7099990844727
24.2593332,-31.4899997711182
24.2749582,-29.0900001525879
24.2905832,-21.6700000762939
24.3062082,-8.27999973297119
24.3218332,10.8599996566772
24.3374582,33.9500007629395
24.3530832,57.7400016784668
24.3687082,78.5500030517578
24.3843332,93.3399963378906
24.3999582,100.839996337891
24.4155832,101.889999389648
24.4312082,98.6900024414063
24.4468332,93.5699996948242
24.4624582,88.1900024414063
24.4780832,83.0999984741211
24.4937082,77.6100006103516
24.5093332,70.1900024414063
24.5249582,59.2099990844727
24.5405832,43.9599990844727
24.5562082,25.2600002288818
24.5718332,5.36999988555908
24.5874582,-12.9099998474121
24.6030832,-27.4799995422363
24.6187082,-37.5699996948242
24.6343332,-43.5
24.6499582,-46.1100006103516
24.6655832,-46.3800010681152
24.6812082,-45.3899993896484
24.6968332,-44.25
24.7124582,-44.0800018310547
24.7280832,-45.6300010681152
24.7437082,-48.7799987792969
24.7593332,-52.6599998474121
24.7749582,-56.3300018310547
24.7905832,-59.060001373291
24.8062082,-60.1699981689453
24.8218332,-58.810001373291
24.8374582,-54.3899993896484
24.8530832,-47.2000007629395
24.8687082,-38.7599983215332
24.8843332,-31.25
24.8999582,-26.2800006866455
24.9155832,-24.0200004577637
24.9312082,-23.5300006866455
24.9468332,-23.5599994659424
24.9624582,-23.1399993896484
24.9780832,-21.7000007629395
24.9937082,-18.4500007629395
25.0093332,-12.0299997329712
25.0249582,-0.850000023841858
25.0405832,15.8199996948242
25.0562082,36.8199996948242
25.0718332,58.8899993896484
25.0874582,77.9000015258789
25.1030832,90.7399978637695
25.1187082,96.4800033569336
25.1343332,96.0599975585938
25.1499582,91.4300003051758
25.1655832,84.5599975585938
25.1812082,76.8300018310547
25.1968332,68.7200012207031
25.2124582,60.0699996948242
25.2280832,50.3400001525879
25.2437082,38.8600006103516
25.2593332,25.2199993133545
25.2749582,9.77000045776367
25.2905832,-6.30999994277954
25.3062082,-21.3099994659424
25.3218332,-33.5099983215332
25.3374582,-41.8800010681152
25.3530832,-46.439998626709
25.3687082,-48.0200004577637
25.3843332,-47.8800010681152
25.3999582,-47.3600006103516
25.4155832,-47.3499984741211
25.4312082,-47.8699989318848
25.4468332,-48.2000007629395
25.4624582,-47.3499984741211
25.4780832,-44.8199996948242
25.4937082,-41.0099983215332
25.5093332,-37.1100006103516
25.5249582,-34.25
25.5405832,-32.939998626709
25.5562082,-33.0400009155273
25.5718332,-34.0800018310547
25.5874582,-35.3499984741211
25.6030832,-36.060001373291
25.6187082,-35.7999992370605
25.6343332,-34.6699981689453
25.6499582,-33.1100006103516
25.6655832,-31.1800003051758
25.6812082,-27.6900005340576
25.6968332,-20.3799991607666
25.7124582,-7.36999988555908
25.7280832,11.25
25.7437082,33.0200004577637
25.7593332,54.0499992370605
25.7749582,70.9899978637695
25.7905832,82.2699966430664
25.8062082,88.0800018310547
25.8218332,89.6600036621094
25.8374582,88.5299987792969
25.8530832,85.8199996948242
25.8687082,82.0599975585938
25.8843332,77.1800003051758
25.8999582,70.5400009155273
25.9155832,61.0
25.9312082,47.3899993896484
25.9468332,29.7399997711182
25.9624582,9.9399995803833
25.9780832,-8.96000003814697
25.9937082,-24.2099990844727
26.0093332,-34.5699996948242
26.0249582,-40.7599983215332
26.0405832,-44.3199996948242
26.0562082,-46.3899993896484
26.0718332,-47.5200004577637
26.0874582,-48.3899993896484
26.1030832,-49.9500007629395
26.1187082,-52.689998626709
26.1343332,-56.2599983215332
26.1499582,-59.6699981689453
26.1655832,-61.6599998474121
26.1812082,-61.060001373291
26.1968332,-57.5099983215332
26.2124582,-52.0400009155273
26.2280832,-46.5099983215332
26.2437082,-42.3300018310547
26.2593332,-39.8300018310547
26.2749582,-38.5299987792969
26.2905832,-37.6300010681152
26.3062082,-36.3699989318848
26.3218332,-34.2900009155273
26.3374582,-31.1900005340576
26.3530832,-27.0499992370605
26.3687082,-21.5599994659424
26.3843332,-13.6300001144409
26.3999582,-1.49000000953674
26.4155832,16.0
26.4312082,37.9900016784668
26.4468332,61.4599990844727
26.4624582,82.5299987792969
26.4780832,98.2200012207031
26.4937082,107.279998779297
26.5093332,109.940002441406
26.5249582,107.209999084473
26.5405832,100.540000915527
26.5562082,91.5999984741211
26.5718332,81.8300018310547
26.5874582,72.1500015258789
26.6030832,62.8899993896484
26.6187082,53.5400009155273
26.6343332,42.7099990844727
26.6499582,28.6800003051758
26.6655832,10.6700000762939
26.6812082,-9.86999988555908
26.6968332,-29.6200008392334
26.7124582,-45.0
26.7280832,-54.0200004577637
26.7437082,-56.75
26.7593332,-54.9700012207031
26.7749582,-51.2000007629395
26.7905832,-47.6699981689453
26.8062082,-45.6100006103516
26.8218332,-45.2900009155273
26.8374582,-46.4500007629395
26.8530832,-48.5299987792969
26.8687082,-50.6300010681152
26.8843332,-51.689998626709
26.8999582,-50.9700012207031
26.9155832,-48.4799995422363
26.9312082,-44.9500007629395
26.9468332,-41.560001373291
26.9624582,-39.0900001525879
26.9780832,-37.4599990844727
26.9937082,-36.0400009155273
27.0093332,-34.4500007629395
27.0249582,-32.7599983215332
27.0405832,-30.8899993896484
27.0562082,-28.2800006866455
27.0718332,-23.8700008392334
27.0874582,-16.1200008392334
27.1030832,-3.33999991416931
27.1187082,15.1700000762939
27.1343332,38.0299987792969
27.1499582,61.7799987792969
27.1655832,82.1900024414063
27.1812082,95.9700012207031
27.1968332,101.919998168945
27.2124582,101.120002746582
27.2280832,96.4199981689453
27.2437082,90.9400024414063
27.2593332,86.4300003051758
27.2749582,82.4499969482422
27.2905832,77.2900009155273
27.3062082,69.4300003051758
27.3218332,58.2299995422363
27.3374582,44.0999984741211
27.3530832,28.5200004577637
27.3687082,13.6000003814697
27.3843332,1.20000004768372
27.3999582,-7.80999994277954
27.4155832,-13.8599996566772
27.4312082,-18.2199993133545
27.4468332,-22.3199996948242
27.4624582,-27.0400009155273
27.4780832,-32.439998626709
27.4937082,-38.1100006103516
27.5093332,-43.7000007629395
27.5249582,-49.1100006103516
27.5405832,-54.3400001525879
27.5562082,-59.3199996948242
27.5718332,-63.6599998474121
27.5874582,-66.7600021362305
27.6030832,-68.0999984741211
27.6187082,-67.5800018310547
27.6343332,-65.4700012207031
27.6499582,-62.2599983215332
27.6655832,-58.5499992370605
27.6812082,-54.9700012207031
27.6968332,-52.0699996948242
27.7124582,-50.0800018310547
27.7280832,-48.7000007629395
27.7437082,-47.1399993896484
27.7593332,-44.4300003051758
27.7749582,-39.3699989318848
27.7905832,-30.5100002288818
27.8062082,-16.6800003051758
27.8218332,2.20000004768372
27.8374582,24.5200004577637
27.8530832,47.2299995422363
27.8687082,67.1999969482422
27.8843332,82.4400024414063
27.8999582,92.3899993896484
27.9155832,97.5800018310547
27.9312082,99.25
27.9468332,98.7699966430664
27.9624582,96.9599990844727
27.9780832,93.7300033569336
27.9937082,88.2099990844727
28.0093332,79.2399978637695
28.0249582,66.0299987792969
28.0405832,48.6599998474121
28.0562082,28.5400009155273
28.0718332,8.03999996185303
28.0874582,-10.4899997711182
28.1030832,-25.7199993133545
28.1187082,-37.3400001525879
28.1343332,-45.5200004577637
28.1499582,-50.5699996948242
28.1655832,-52.9500007629395
28.1812082,-53.3899993896484
28.1968332,-52.9799995422363
28.2124582,-52.7700004577637
28.2280832,-53.3699989318848
28.2437082,-54.8499984741211
28.2593332,-56.7400016784668
28.2749582,-58.2799987792969
28.2905832,-58.7799987792969
28.3062082,-57.9799995422363
28.3218332,-56.0099983215332
28.3374582,-53.1500015258789
28.3530832,-49.439998626709
28.3687082,-44.75
28.3843332,-39.3499984741211
28.3999582,-34.2400016784668
28.4155832,-30.4200000762939
28.4312082,-28.0200004577637
28.4468332,-25.8799991607666
28.4624582,-21.75
28.4780832,-12.7799997329712
28.4937082,2.98000001907349
28.5093332,24.8999996185303
28.5249582,49.3699989318848
28.5405832,71.3199996948242
28.5562082,86.5899963378906
28.5718332,93.7099990844727
28.5874582,94.1999969482422
28.6030832,91.3300018310547
28.6187082,88.0100021362305
28.6343332,85.1699981689453
28.6499582,81.7799987792969
28.6655832,76.2399978637695
28.6812082,67.4899978637695
28.6968332,55.3199996948242
28.7124582,40.1599998474121
28.7280832,23.1000003814697
28.7437082,5.78999996185303
28.7593332,-10.1199998855591
28.7749582,-23.5900001525879
28.7905832,-34.1300010681152
28.8062082,-41.3899993896484
28.8218332,-45.1199989318848
28.8374582,-45.6300010681152
28.8530832,-44.1399993896484
28.8687082,-42.5699996948242
28.8843332,-42.6800003051758
28.8999582,-45.1300010681152
28.9155832,-49.1199989318848
28.9312082,-52.8300018310547
28.9468332,-54.4599990844727
28.9624582,-53.2700004577637
28.9780832,-49.7700004577637
28.9937082,-45.3199996948242
29.0093332,-41.4199981689453
29.0249582,-38.8199996948242
29.0405832,-37.2099990844727
29.0562082,-35.6800003051758
29.0718332,-33.4099998474121
29.0874582,-30.0400009155273
29.1030832,-25.6299991607666
29.1187082,-20.5499992370605
29.1343332,-15.2200002670288
29.1499582,-9.19999980926514
29.1655832,-0.689999997615814
29.1812082,12.1899995803833
29.1968332,29.5100002288818
29.2124582,49.0299987792969
29.2280832,67.6699981689453
29.2437082,82.7799987792969
29.2593332,92.7200012207031
29.2749582,96.8899993896484
29.2905832,95.8300018310547
29.3062082,91.0199966430664
29.3218332,84.4400024414063
29.3374582,77.9300003051758
29.3530832,72.3600006103516
29.3687082,67.3899993896484
29.3843332,61.8400001525879
29.3999582,54.1399993896484
29.4155832,42.75
29.4312082,27.0400009155273
29.4468332,7.92000007629395
29.4624582,-12.0600004196167
29.4780832,-29.6000003814697
29.4937082,-41.9799995422363
29.5093332,-48.2999992370605
29.5249582,-49.6699981689453
29.5405832,-48.3800010681152
29.5562082,-46.6500015258789
29.5718332,-45.7000007629395
29.5874582,-45.7599983215332
29.6030832,-46.5800018310547
29.6187082,-47.8400001525879
29.6343332,-49.1199989318848
29.6499582,-49.9099998474121
29.6655832,-49.7200012207031
29.6812082,-48.3600006103516
29.6968332,-46.0099983215332
29.7124582,-42.9099998474121
29.7280832,-39.3300018310547
29.7437082,-35.7999992370605
29.7593332,-33.1300010681152
29.7749582,-31.9400005340576
29.7905832,-32.0499992370605
29.8062082,-32.5299987792969
29.8218332,-32.1500015258789
29.8374582,-29.3299999237061
29.8530832,-22.0200004577637
29.8687082,-8.31999969482422
29.8843332,11.8900003433228
29.8999582,36.0200004577637
29.9155832,59.5299987792969
29.9312082,78.0999984741211
29.9468332,89.5699996948242
29.9624582,94.2099990844727
29.9780832,93.6500015258789
29.9937082,89.6999969482422
30.0093332,83.9000015258789
30.0249582,77.4899978637695
30.0405832,71.2900009155273
30.0562082,65.2600021362305
30.0718332,58.3499984741211
