Time(s),Value(%)
1002.0126751,46.2000007629395
1002.0283001,58.4900016784668
1002.0439251,64.3300018310547
1002.0595501,62.2400016784668
1002.0751751,53.2299995422363
1002.0908001,39.9799995422363
1002.1064251,25.4200000762939
1002.1220501,11.460000038147
1002.1376751,-1.19000005722046
1002.1533001,-12.5299997329712
1002.1689251,-22.4099998474121
1002.1845501,-30.4300003051758
1002.2001751,-36.2200012207031
1002.2158001,-39.7999992370605
1002.2314251,-41.4700012207031
1002.2470501,-41.6399993896484
1002.2626751,-40.7200012207031
1002.2783001,-39.2299995422363
1002.2939251,-37.689998626709
1002.3095501,-36.4099998474121
1002.3251751,-35.3499984741211
1002.3408001,-34.2999992370605
1002.3564251,-33.1300010681152
1002.3720501,-31.8099994659424
1002.3876751,-30.3299999237061
1002.4033001,-28.6299991607666
1002.4189251,-26.6700000762939
1002.4345501,-24.4500007629395
1002.4501751,-22.0599994659424
1002.4658001,-19.6599998474121
1002.4814251,-17.3999996185303
1002.4970501,-15.3000001907349
1002.5126751,-13.2700004577637
1002.5283001,-11.1800003051758
1002.5439251,-8.8100004196167
1002.5595501,-5.65999984741211
1002.5751751,-0.720000028610229
1002.5908001,7.63000011444092
1002.6064251,20.8899993896484
1002.6220501,38.8300018310547
1002.6376751,58.1800003051758
1002.6533001,73.5899963378906
1002.6689251,80.6399993896484
1002.6845501,78.0599975585938
1002.7001751,67.75
1002.7158001,53.3699989318848
1002.7314251,38.4700012207031
1002.7470501,25.1000003814697
1002.7626751,13.4899997711182
1002.7783001,2.89000010490417
1002.7939251,-7.34999990463257
1002.8095501,-17.1000003814697
1002.8251751,-25.4599990844727
1002.8408001,-31.3400001525879
1002.8564251,-34.1300010681152
1002.8720501,-34.0
1002.8876751,-31.8099994659424
1002.9033001,-28.6700000762939
1002.9189251,-25.5200004577637
1002.9345501,-22.9300003051758
1002.9501751,-21.0599994659424
1002.9658001,-19.7800006866455
1002.9814251,-18.75
1002.9970501,-17.6700000762939
1003.0126751,-16.3700008392334
1003.0283001,-14.8100004196167
1003.0439251,-13.0699996948242
1003.0595501,-11.3400001525879
1003.0751751,-9.78999996185303
1003.0908001,-8.51000022888184
1003.1064251,-7.44999980926514
1003.1220501,-6.46999979019165
1003.1376751,-5.3600001335144
1003.1533001,-3.82999992370605
1003.1689251,-1.45000004768372
1003.1845501,2.75999999046326
1003.2001751,10.75
1003.2158001,24.5300006866455
1003.2314251,43.8800010681152
1003.2470501,65.0699996948242
1003.2626751,82.2399978637695
1003.2783001,90.5400009155273
1003.2939251,88.6999969482422
1003.3095501,78.9800033569336
1003.3251751,65.1999969482422
1003.3408001,50.6399993896484
1003.3564251,37.2200012207031
1003.3720501,25.4899997711182
1003.3876751,14.9899997711182
1003.4033001,4.63000011444092
1003.4189251,-6.55000019073486
1003.4345501,-18.6200008392334
1003.4501751,-30.5499992370605
1003.4658001,-40.7700004577637
1003.4814251,-47.75
1003.4970501,-50.6699981689453
1003.5126751,-49.8499984741211
1003.5283001,-46.6500015258789
1003.5439251,-42.8899993896484
1003.5595501,-39.9300003051758
1003.5751751,-38.1699981689453
1003.5908001,-37.1800003051758
1003.6064251,-36.310001373291
1003.6220501,-35.1100006103516
1003.6376751,-33.3400001525879
1003.6533001,-31.0499992370605
1003.6689251,-28.4599990844727
1003.6845501,-25.8099994659424
1003.7001751,-23.2199993133545
1003.7158001,-20.7099990844727
1003.7314251,-18.25
1003.7470501,-15.7799997329712
1003.7626751,-13.210000038147
1003.7783001,-10.3400001525879
1003.7939251,-6.84999990463257
1003.8095501,-2.04999995231628
1003.8251751,5.30000019073486
1003.8408001,16.8199996948242
1003.8564251,33.4500007629395
1003.8720501,53.6800003051758
1003.8876751,73.2200012207031
1003.9033001,86.8099975585938
1003.9189251,90.9499969482422
1003.9345501,85.5
1003.9501751,73.2300033569336
1003.9658001,58.0800018310547
1003.9814251,43.1399993896484
1003.9970501,29.5200004577637
1004.0126751,16.7000007629395
1004.0283001,3.84999990463257
1004.0439251,-8.96000003814697
1004.0595501,-20.6900005340576
1004.0751751,-29.9799995422363
1004.0908001,-35.9700012207031
1004.1064251,-38.6699981689453
1004.1220501,-38.7599983215332
1004.1376751,-37.0800018310547
1004.1533001,-34.4500007629395
1004.1689251,-31.5900001525879
1004.1845501,-29.0799999237061
1004.2001751,-27.2700004577637
1004.2158001,-26.2000007629395
1004.2314251,-25.6200008392334
1004.2470501,-25.1200008392334
1004.2626751,-24.3700008392334
1004.2783001,-23.1900005340576
1004.2939251,-21.6100006103516
1004.3095501,-19.8500003814697
1004.3251751,-18.1100006103516
1004.3408001,-16.4500007629395
1004.3564251,-14.8000001907349
1004.3720501,-13.039999961853
1004.3876751,-11.0900001525879
1004.4033001,-8.81999969482422
1004.4189251,-6.05000019073486
1004.4345501,-2.50999999046326
1004.4501751,2.19000005722046
1004.4658001,8.67000007629395
1004.4814251,17.5900001525879
1004.4970501,29.1100006103516
1004.5126751,42.0999984741211
1004.5283001,54.1599998474121
1004.5439251,62.5200004577637
1004.5595501,65.2300033569336
1004.5751751,61.9000015258789
1004.5908001,53.5999984741211
1004.6064251,42.1399993896484
1004.6220501,29.2900009155273
1004.6376751,16.4200000762939
1004.6533001,4.53000020980835
1004.6689251,-5.67999982833862
1004.6845501,-13.7700004577637
1004.7001751,-19.5799999237061
1004.7158001,-23.2399997711182
1004.7314251,-25.0400009155273
1004.7470501,-25.3500003814697
1004.7626751,-24.5699996948242
1004.7783001,-23.1800003051758
1004.7939251,-21.6499996185303
1004.8095501,-20.4099998474121
1004.8251751,-19.6800003051758
1004.8408001,-19.2900009155273
1004.8564251,-18.8899993896484
1004.8720501,-18.1200008392334
1004.8876751,-16.9099998474121
1004.9033001,-15.4799995422363
1004.9189251,-14.1400003433228
1004.9345501,-13.0100002288818
1004.9501751,-11.9799995422363
1004.9658001,-10.9499998092651
1004.9814251,-9.84000015258789
1004.9970501,-8.5600004196167
1005.0126751,-7.01000022888184
1005.0283001,-5.05999994277954
1005.0439251,-2.63000011444092
1005.0595501,0.519999980926514
1005.0751751,5.05999994277954
1005.0908001,11.9300003051758
1005.1064251,21.7800006866455
1005.1220501,34.0999984741211
1005.1376751,46.810001373291
1005.1533001,56.8499984741211
1005.1689251,61.5499992370605
1005.1845501,59.7599983215332
1005.2001751,52.1300010681152
1005.2158001,40.5400009155273
1005.2314251,27.2800006866455
1005.2470501,14.210000038147
1005.2626751,2.41000008583069
1005.2783001,-7.65999984741211
1005.2939251,-15.7799997329712
1005.3095501,-21.8299999237061
1005.3251751,-25.8500003814697
1005.3408001,-27.9899997711182
1005.3564251,-28.5599994659424
1005.3720501,-28.0100002288818
1005.3876751,-26.8299999237061
1005.4033001,-25.4899997711182
1005.4189251,-24.3500003814697
1005.4345501,-23.6000003814697
1005.4501751,-23.1599998474121
1005.4658001,-22.6599998474121
1005.4814251,-21.7800006866455
1005.4970501,-20.3899993896484
1005.5126751,-18.6399993896484
1005.5283001,-16.8700008392334
1005.5439251,-15.3999996185303
1005.5595501,-14.3400001525879
1005.5751751,-13.5100002288818
1005.5908001,-12.6400003433228
1005.6064251,-11.539999961853
1005.6220501,-10.1499996185303
1005.6376751,-8.53999996185303
1005.6533001,-6.78000020980835
1005.6689251,-4.78999996185303
1005.6845501,-2.24000000953674
1005.7001751,1.55999994277954
1005.7158001,7.67999982833862
1005.7314251,17.0900001525879
1005.7470501,29.7600002288818
1005.7626751,43.9700012207031
1005.7783001,56.4500007629395
1005.7939251,63.7400016784668
1005.8095501,63.8899993896484
1005.8251751,57.2000007629395
1005.8408001,45.7000007629395
1005.8564251,31.9500007629395
1005.8720501,18.0499992370605
1005.8876751,5.23999977111816
1005.9033001,-5.82000017166138
1005.9189251,-14.8400001525879
1005.9345501,-21.5200004577637
1005.9501751,-25.6700000762939
1005.9658001,-27.5300006866455
1005.9814251,-27.8600006103516
1005.9970501,-27.5
1006.0126751,-26.9099998474121
1006.0283001,-26.1700000762939
1006.0439251,-25.2600002288818
1006.0595501,-24.1599998474121
1006.0751751,-23.0100002288818
1006.0908001,-21.9599990844727
1006.1064251,-21.0200004577637
1006.1220501,-19.9599990844727
1006.1376751,-18.6599998474121
1006.1533001,-17.25
1006.1689251,-15.9700002670288
1006.1845501,-14.960000038147
1006.2001751,-14.0799999237061
1006.2158001,-12.9799995422363
1006.2314251,-11.3100004196167
1006.2470501,-9.0600004196167
1006.2626751,-6.57000017166138
1006.2783001,-4.26000022888184
1006.2939251,-2.33999991416931
1006.3095501,-0.629999995231628
1006.3251751,1.55999994277954
1006.3408001,5.44000005722046
1006.3564251,12.4499998092651
1006.3720501,23.4400005340576
1006.3876751,37.7900009155273
1006.4033001,52.939998626709
1006.4189251,65.0899963378906
1006.4345501,70.9899978637695
1006.4501751,69.4000015258789
1006.4658001,61.310001373291
1006.4814251,49.0200004577637
1006.4970501,34.9000015258789
1006.5126751,20.6700000762939
1006.5283001,7.28999996185303
1006.5439251,-4.73000001907349
1006.5595501,-15.0100002288818
1006.5751751,-23.1499996185303
1006.5908001,-28.8299999237061
1006.6064251,-32.0900001525879
1006.6220501,-33.310001373291
1006.6376751,-33.1300010681152
1006.6533001,-32.1399993896484
1006.6689251,-30.7900009155273
1006.6845501,-29.3500003814697
1006.7001751,-27.9699993133545
1006.7158001,-26.6599998474121
1006.7314251,-25.4599990844727
1006.7470501,-24.3700008392334
1006.7626751,-23.2999992370605
1006.7783001,-22.1299991607666
1006.7939251,-20.7800006866455
1006.8095501,-19.3400001525879
1006.8251751,-17.9400005340576
1006.8408001,-16.5900001525879
1006.8564251,-15.1899995803833
1006.8720501,-13.539999961853
1006.8876751,-11.539999961853
1006.9033001,-9.26000022888184
1006.9189251,-6.73999977111816
1006.9345501,-3.86999988555908
1006.9501751,-0.259999990463257
1006.9658001,4.92000007629395
1006.9814251,13.0799999237061
1006.9970501,25.25
1007.0126751,40.7000007629395
1007.0283001,56.4300003051758
1007.0439251,68.3600006103516
1007.0595501,73.2699966430664
1007.0751751,70.2200012207031
1007.0908001,60.6699981689453
1007.1064251,47.2900009155273
1007.1220501,32.6500015258789
1007.1376751,18.4300003051758
1007.1533001,5.42000007629395
1007.1689251,-6.01999998092651
1007.1845501,-15.6599998474121
1007.2001751,-23.1800003051758
1007.2158001,-28.4200000762939
1007.2314251,-31.4699993133545
1007.2470501,-32.5900001525879
1007.2626751,-32.2000007629395
1007.2783001,-30.8600006103516
1007.2939251,-29.1599998474121
1007.3095501,-27.5100002288818
1007.3251751,-26.0599994659424
1007.3408001,-24.7299995422363
1007.3564251,-23.3700008392334
1007.3720501,-21.8500003814697
1007.3876751,-20.1900005340576
1007.4033001,-18.5200004577637
1007.4189251,-17.0100002288818
1007.4345501,-15.6899995803833
1007.4501751,-14.4300003051758
1007.4658001,-13.0299997329712
1007.4814251,-11.3900003433228
1007.4970501,-9.51000022888184
1007.5126751,-7.46000003814697
1007.5283001,-5.32000017166138
1007.5439251,-3.22000002861023
1007.5595501,-1.12999999523163
1007.5751751,1.35000002384186
1007.5908001,5.17000007629395
1007.6064251,11.6300001144409
1007.6220501,21.9200000762939
1007.6376751,35.9599990844727
1007.6533001,51.4599990844727
1007.6689251,64.5
1007.6845501,71.4700012207031
1007.7001751,70.6900024414063
1007.7158001,62.8699989318848
1007.7314251,50.2700004577637
1007.7470501,35.4900016784668
1007.7626751,20.6200008392334
1007.7783001,6.96000003814697
1007.7939251,-4.82999992370605
1007.8095501,-14.4300003051758
1007.8251751,-21.6299991607666
1007.8408001,-26.4300003051758
1007.8564251,-29.0200004577637
1007.8720501,-29.8099994659424
1007.8876751,-29.3199996948242
1007.9033001,-28.2000007629395
1007.9189251,-27.0100002288818
1007.9345501,-26.0100002288818
1007.9501751,-25.0400009155273
1007.9658001,-23.8700008392334
1007.9814251,-22.5300006866455
1007.9970501,-21.25
1008.0126751,-20.1499996185303
1008.0283001,-19.0900001525879
1008.0439251,-17.8600006103516
1008.0595501,-16.3799991607666
1008.0751751,-14.710000038147
1008.0908001,-12.9200000762939
1008.1064251,-11.0500001907349
1008.1220501,-9.17000007629395
1008.1376751,-7.30000019073486
1008.1533001,-5.5
1008.1689251,-3.80999994277954
1008.1845501,-2.13000011444092
1008.2001751,-0.0700000002980232
1008.2158001,3.08999991416931
1008.2314251,8.55000019073486
1008.2470501,17.4300003051758
1008.2626751,29.8099994659424
1008.2783001,43.9799995422363
1008.2939251,56.5999984741211
1008.3095501,64.0299987792969
1008.3251751,64.0500030517578
1008.3408001,56.7700004577637
1008.3564251,44.2799987792969
1008.3720501,29.4400005340576
1008.3876751,14.7200002670288
1008.4033001,1.75
1008.4189251,-8.6899995803833
1008.4345501,-16.4300003051758
1008.4501751,-21.5599994659424
1008.4658001,-24.4500007629395
1008.4814251,-25.75
1008.4970501,-26.0799999237061
1008.5126751,-25.9099998474121
1008.5283001,-25.4500007629395
1008.5439251,-24.7199993133545
1008.5595501,-23.6200008392334
1008.5751751,-22.2000007629395
1008.5908001,-20.6900005340576
1008.6064251,-19.2999992370605
1008.6220501,-18.1399993896484
1008.6376751,-17.1499996185303
1008.6533001,-16.2299995422363
1008.6689251,-15.210000038147
1008.6845501,-13.9899997711182
1008.7001751,-12.5600004196167
1008.7158001,-10.9799995422363
1008.7314251,-9.32999992370605
1008.7470501,-7.73999977111816
1008.7626751,-6.26999998092651
1008.7783001,-4.84000015258789
1008.7939251,-3.3199999332428
1008.8095501,-1.62999999523163
1008.8251751,0.25
1008.8408001,2.69000005722046
1008.8564251,6.57999992370605
1008.8720501,13.1999998092651
1008.8876751,23.2700004577637
1008.9033001,36.0800018310547
1008.9189251,49.1199989318848
1008.9345501,58.810001373291
1008.9501751,62.2900009155273
1008.9658001,58.6800003051758
1008.9814251,49.1399993896484
1008.9970501,35.8699989318848
1009.0126751,21.2600002288818
1009.0283001,7.34000015258789
1009.0439251,-4.42000007629395
1009.0595501,-13.3800001144409
1009.0751751,-19.5200004577637
1009.0908001,-23.2900009155273
1009.1064251,-25.2999992370605
1009.1220501,-26.1200008392334
1009.1376751,-26.1100006103516
1009.1533001,-25.4500007629395
1009.1689251,-24.3299999237061
1009.1845501,-22.9899997711182
1009.2001751,-21.6700000762939
1009.2158001,-20.4500007629395
1009.2314251,-19.2900009155273
1009.2470501,-18.1499996185303
1009.2626751,-17.0300006866455
1009.2783001,-15.960000038147
1009.2939251,-14.9200000762939
1009.3095501,-13.8800001144409
1009.3251751,-12.8599996566772
1009.3408001,-11.8400001525879
1009.3564251,-10.75
1009.3720501,-9.51000022888184
1009.3876751,-8.13000011444092
1009.4033001,-6.69000005722046
1009.4189251,-5.25
1009.4345501,-3.78999996185303
1009.4501751,-2.21000003814697
1009.4658001,-0.300000011920929
1009.4814251,2.32999992370605
1009.4970501,6.67999982833862
1009.5126751,14.25
1009.5283001,26.0100002288818
1009.5439251,40.7099990844727
1009.5595501,54.7900009155273
1009.5751751,63.9500007629395
1009.5908001,65.379997253418
1009.6064251,58.9799995422363
1009.6220501,46.8400001525879
1009.6376751,31.9099998474121
1009.6533001,16.8299999237061
1009.6689251,3.44000005722046
1009.6845501,-7.32999992370605
1009.7001751,-15.2700004577637
1009.7158001,-20.7000007629395
1009.7314251,-24.25
1009.7470501,-26.4899997711182
1009.7626751,-27.7900009155273
1009.7783001,-28.2199993133545
1009.7939251,-27.7600002288818
1009.8095501,-26.5699996948242
1009.8251751,-25.0499992370605
1009.8408001,-23.5400009155273
1009.8564251,-22.1900005340576
1009.8720501,-21.0400009155273
1009.8876751,-20.0799999237061
1009.9033001,-19.1800003051758
1009.9189251,-18.1599998474121
1009.9345501,-16.9300003051758
1009.9501751,-15.5200004577637
1009.9658001,-14.0500001907349
1009.9814251,-12.5600004196167
1009.9970501,-11.0900001525879
1010.0126751,-9.61999988555908
1010.0283001,-8.14999961853027
1010.0439251,-6.61999988555908
1010.0595501,-4.92999982833862
1010.0751751,-2.92000007629395
1010.0908001,-0.219999998807907
1010.1064251,4.07000017166138
1010.1220501,11.3500003814697
1010.1376751,22.5799999237061
1010.1533001,36.9000015258789
1010.1689251,51.2400016784668
1010.1845501,61.4700012207031
1010.2001751,64.4499969482422
1010.2158001,59.5400009155273
1010.2314251,48.6399993896484
1010.2470501,34.75
1010.2626751,20.4300003051758
1010.2783001,7.26999998092651
1010.2939251,-3.88000011444092
1010.3095501,-12.6999998092651
1010.3251751,-19.2199993133545
1010.3408001,-23.6499996185303
1010.3564251,-26.1900005340576
1010.3720501,-27.1800003051758
1010.3876751,-27.0699996948242
1010.4033001,-26.3099994659424
1010.4189251,-25.2600002288818
1010.4345501,-24.1100006103516
1010.4501751,-22.9200000762939
1010.4658001,-21.6399993896484
1010.4814251,-20.2600002288818
1010.4970501,-18.9099998474121
1010.5126751,-17.7999992370605
1010.5283001,-16.9300003051758
1010.5439251,-16.0400009155273
1010.5595501,-14.8400001525879
1010.5751751,-13.25
1010.5908001,-11.4499998092651
1010.6064251,-9.72999954223633
1010.6220501,-8.27000045776367
1010.6376751,-7.03000020980835
1010.6533001,-5.76000022888184
1010.6689251,-4.19999980926514
1010.6845501,-2.13000011444092
1010.7001751,0.740000009536743
1010.7158001,5.05000019073486
1010.7314251,11.6899995803833
1010.7470501,21.4799995422363
1010.7626751,34.2799987792969
1010.7783001,48.0900001525879
1010.7939251,59.0699996948242
1010.8095501,63.5200004577637
1010.8251751,59.9700012207031
1010.8408001,49.6599998474121
1010.8564251,35.4700012207031
1010.8720501,20.3799991607666
1010.8876751,6.59000015258789
1010.9033001,-4.59000015258789
1010.9189251,-12.7700004577637
1010.9345501,-18.1599998474121
1010.9501751,-21.3600006103516
1010.9658001,-22.9599990844727
1010.9814251,-23.3999996185303
1010.9970501,-23.0300006866455
1011.0126751,-22.1399993896484
1011.0283001,-21.0300006866455
1011.0439251,-19.8899993896484
1011.0595501,-18.8099994659424
1011.0751751,-17.8400001525879
1011.0908001,-16.9599990844727
1011.1064251,-16.1399993896484
1011.1220501,-15.3400001525879
1011.1376751,-14.6099996566772
1011.1533001,-13.8999996185303
1011.1689251,-13.0699996948242
1011.1845501,-11.9700002670288
1011.2001751,-10.6000003814697
1011.2158001,-9.07999992370605
1011.2314251,-7.57999992370605
1011.2470501,-6.15000009536743
1011.2626751,-4.65999984741211
1011.2783001,-2.82999992370605
1011.2939251,-0.180000007152557
1011.3095501,4.0
1011.3251751,10.710000038147
1011.3408001,20.7000007629395
1011.3564251,33.5400009155273
1011.3720501,47.0
1011.3876751,57.4700012207031
1011.4033001,61.6399993896484
1011.4189251,58.1800003051758
1011.4345501,48.2299995422363
1011.4501751,34.5099983215332
1011.4658001,19.9099998474121
1011.4814251,6.48000001907349
1011.4970501,-4.73999977111816
1011.5126751,-13.5200004577637
1011.5283001,-19.9099998474121
1011.5439251,-24.1299991607666
1011.5595501,-26.5400009155273
1011.5751751,-27.5
1011.5908001,-27.3799991607666
1011.6064251,-26.5699996948242
1011.6220501,-25.4300003051758
1011.6376751,-24.1499996185303
1011.6533001,-22.7399997711182
1011.6689251,-21.2199993133545
1011.6845501,-19.7700004577637
1011.7001751,-18.4899997711182
1011.7158001,-17.3799991607666
1011.7314251,-16.3600006103516
1011.7470501,-15.4399995803833
1011.7626751,-14.6499996185303
1011.7783001,-13.9499998092651
1011.7939251,-13.1899995803833
1011.8095501,-12.1400003433228
1011.8251751,-10.6400003433228
1011.8408001,-8.61999988555908
1011.8564251,-6.07999992370605
1011.8720501,-2.80999994277954
1011.8876751,1.69000005722046
1011.9033001,8.39999961853027
1011.9189251,18.3299999237061
1011.9345501,31.5400009155273
1011.9501751,46.1599998474121
1011.9658001,58.560001373291
1011.9814251,65.1100006103516
1011.9970501,63.9900016784668
1012.0126751,55.8300018310547
1012.0283001,42.9199981689453
1012.0439251,28.0699996948242
1012.0595501,13.5100002288818
1012.0751751,0.620000004768372
1012.0908001,-9.97999954223633
1012.1064251,-18.1100006103516
1012.1220501,-23.8799991607666
1012.1376751,-27.6200008392334
1012.1533001,-29.6399993896484
1012.1689251,-30.2399997711182
1012.1845501,-29.7600002288818
1012.2001751,-28.5699996948242
1012.2158001,-27.0599994659424
1012.2314251,-25.5200004577637
1012.2470501,-24.0599994659424
1012.2626751,-22.5900001525879
1012.2783001,-21.0200004577637
1012.2939251,-19.4200000762939
1012.3095501,-18.0
1012.3251751,-16.8700008392334
