Time(s),Value(%)
845.0030072,-15.3900003433228
845.0186322,-16.5
845.0342572,-17.0300006866455
845.0498822,-16.6200008392334
845.0655072,-14.9399995803833
845.0811322,-11.8100004196167
845.0967572,-7.42999982833862
845.1123822,-2.28999996185303
845.1280072,2.92000007629395
845.1436322,7.59000015258789
845.1592572,11.1999998092651
845.1748822,13.4499998092651
845.1905072,14.3400001525879
845.2061322,14.039999961853
845.2217572,12.8299999237061
845.2373822,11.0900001525879
845.2530072,9.10999965667725
845.2686322,7.01999998092651
845.2842572,4.84000015258789
845.2998822,2.54999995231628
845.3155072,0.230000004172325
845.3311322,-1.89999997615814
845.3467572,-3.58999991416931
845.3623822,-4.71999979019165
845.3780072,-5.48000001907349
845.3936322,-6.19999980926514
845.4092572,-7.15999984741211
845.4248822,-8.5
845.4405072,-10.210000038147
845.4561322,-12.1300001144409
845.4717572,-14.0299997329712
845.4873822,-15.6899995803833
845.5030072,-17.0100002288818
845.5186322,-18.0499992370605
845.5342572,-19.0100002288818
845.5498822,-20.1000003814697
845.5655072,-21.3600006103516
845.5811322,-22.5200004577637
845.5967572,-23.2800006866455
845.6123822,-23.5300006866455
845.6280072,-23.2800006866455
845.6436322,-22.4799995422363
845.6592572,-20.8400001525879
845.6748822,-18.0
845.6905072,-13.789999961853
845.7061322,-8.47999954223633
845.7217572,-2.67000007629395
845.7373822,2.94000005722046
845.7530072,7.76000022888184
845.7686322,11.3599996566772
845.7842572,13.5600004196167
845.7998822,14.4200000762939
845.8155072,14.1899995803833
845.8311322,13.1999998092651
845.8467572,11.7399997711182
845.8623822,9.9399995803833
845.8780072,7.86999988555908
845.8936322,5.67000007629395
845.9092572,3.6800000667572
845.9248822,2.24000000953674
845.9405072,1.41999995708466
845.9561322,1.03999996185303
845.9717572,0.810000002384186
845.9873822,0.509999990463257
846.0030072,0.0
846.0186322,-0.740000009536743
846.0342572,-1.67999994754791
846.0498822,-2.70000004768372
846.0655072,-3.70000004768372
846.0811322,-4.63000011444092
846.0967572,-5.55000019073486
846.1123822,-6.61999988555908
846.1280072,-7.8600001335144
846.1436322,-9.14999961853027
846.1592572,-10.3299999237061
846.1748822,-11.2700004577637
846.1905072,-11.9899997711182
846.2061322,-12.5100002288818
846.2217572,-12.8000001907349
846.2373822,-12.6700000762939
846.2530072,-11.75
846.2686322,-9.56999969482422
846.2842572,-5.76999998092651
846.2998822,-0.529999971389771
846.3155072,5.38000011444092
846.3311322,11.0299997329712
846.3467572,15.6400003433228
846.3623822,18.8199996948242
846.3780072,20.5599994659424
846.3936322,21.2000007629395
846.4092572,21.1800003051758
846.4248822,20.7900009155273
846.4405072,19.9799995422363
846.4561322,18.5200004577637
846.4717572,16.3700008392334
846.4873822,13.8100004196167
846.5030072,11.2600002288818
846.5186322,9.07999992370605
846.5342572,7.48999977111816
846.5498822,6.51000022888184
846.5655072,5.90000009536743
846.5811322,5.28000020980835
846.5967572,4.30000019073486
846.6123822,2.75
846.6280072,0.699999988079071
846.6436322,-1.50999999046326
846.6592572,-3.50999999046326
846.6748822,-5.1100001335144
846.6905072,-6.44999980926514
846.7061322,-7.75
846.7217572,-9.10999965667725
846.7373822,-10.3999996185303
846.7530072,-11.4099998474121
846.7686322,-12.039999961853
846.7842572,-12.3800001144409
846.7998822,-12.5100002288818
846.8155072,-12.3800001144409
846.8311322,-11.8699998855591
846.8467572,-10.8199996948242
846.8623822,-8.94999980926514
846.8780072,-5.8600001335144
846.8936322,-1.12000000476837
846.9092572,5.21999979019165
846.9248822,12.4499998092651
846.9405072,19.4699993133545
846.9561322,25.3600006103516
846.9717572,29.7900009155273
846.9873822,32.8499984741211
847.0030072,34.7299995422363
847.0186322,35.5400009155273
847.0342572,35.2599983215332
847.0498822,33.7400016784668
847.0655072,30.9400005340576
847.0811322,27.0699996948242
847.0967572,22.7199993133545
847.1123822,18.5300006866455
847.1280072,14.9300003051758
847.1436322,11.9799995422363
847.1592572,9.4399995803833
847.1748822,7.05000019073486
847.1905072,4.59000015258789
847.2061322,1.95000004768372
847.2217572,-0.870000004768372
847.2373822,-3.77999997138977
847.2530072,-6.61999988555908
847.2686322,-9.26000022888184
847.2842572,-11.6499996185303
847.2998822,-13.8299999237061
847.3155072,-15.8800001144409
847.3311322,-17.8099994659424
847.3467572,-19.5300006866455
847.3623822,-20.9799995422363
847.3780072,-22.1599998474121
847.3936322,-23.1100006103516
847.4092572,-23.8199996948242
847.4248822,-24.25
847.4405072,-24.4599990844727
847.4561322,-24.4799995422363
847.4717572,-24.1800003051758
847.4873822,-23.2000007629395
847.5030072,-20.9899997711182
847.5186322,-17.0100002288818
847.5342572,-11.1499996185303
847.5498822,-3.95000004768372
847.5655072,3.5699999332428
847.5811322,10.3000001907349
847.5967572,15.4399995803833
847.6123822,18.7800006866455
847.6280072,20.6700000762939
847.6436322,21.6499996185303
847.6592572,22.0100002288818
847.6748822,21.6499996185303
847.6905072,20.2800006866455
847.7061322,17.7800006866455
847.7217572,14.4099998474121
847.7373822,10.7299995422363
847.7530072,7.36999988555908
847.7686322,4.84000015258789
847.7842572,3.25
847.7998822,2.27999997138977
847.8155072,1.4099999666214
847.8311322,0.200000002980232
847.8467572,-1.46000003814697
847.8623822,-3.47000002861023
847.8780072,-5.63000011444092
847.8936322,-7.86999988555908
847.9092572,-10.0600004196167
847.9248822,-12.0299997329712
847.9405072,-13.6999998092651
847.9561322,-15.0699996948242
847.9717572,-16.2000007629395
847.9873822,-17.1100006103516
848.0030072,-17.7900009155273
848.0186322,-18.1599998474121
848.0342572,-18.0799999237061
848.0498822,-17.2900009155273
848.0655072,-15.5500001907349
848.0811322,-12.9399995803833
848.0967572,-9.85999965667725
848.1123822,-6.82999992370605
848.1280072,-4.1399998664856
848.1436322,-1.67999994754791
848.1592572,0.970000028610229
848.1748822,4.30000019073486
848.1905072,8.35000038146973
848.2061322,12.6300001144409
848.2217572,16.3600006103516
848.2373822,18.8799991607666
848.2530072,19.8799991607666
848.2686322,19.5100002288818
848.2842572,18.1800003051758
848.2998822,16.3199996948242
848.3155072,14.1199998855591
848.3311322,11.6199998855591
848.3467572,8.85000038146973
848.3623822,5.94999980926514
848.3780072,3.21000003814697
848.3936322,0.939999997615814
848.4092572,-0.709999978542328
848.4248822,-1.9099999666214
848.4405072,-2.90000009536743
848.4561322,-3.80999994277954
848.4717572,-4.76000022888184
848.4873822,-5.8600001335144
848.5030072,-7.25
848.5186322,-8.97999954223633
848.5342572,-10.9300003051758
848.5498822,-12.960000038147
848.5655072,-14.8400001525879
848.5811322,-16.3799991607666
848.5967572,-17.5200004577637
848.6123822,-18.3600006103516
848.6280072,-19.1299991607666
848.6436322,-20.0699996948242
848.6592572,-21.2399997711182
848.6748822,-22.4799995422363
848.6905072,-23.4400005340576
848.7061322,-23.7600002288818
848.7217572,-23.2900009155273
848.7373822,-21.9300003051758
848.7530072,-19.4200000762939
848.7686322,-15.460000038147
848.7842572,-9.94999980926514
848.7998822,-3.29999995231628
848.8155072,3.65000009536743
848.8311322,9.97999954223633
848.8467572,14.9799995422363
848.8623822,18.2600002288818
848.8780072,19.8600006103516
848.8936322,20.1700000762939
848.9092572,19.7299995422363
848.9248822,18.8700008392334
848.9405072,17.7199993133545
848.9561322,16.3299999237061
848.9717572,14.7600002288818
848.9873822,13.1099996566772
849.0030072,11.4899997711182
849.0186322,9.94999980926514
849.0342572,8.51000022888184
849.0498822,7.19000005722046
849.0655072,6.05000019073486
849.0811322,5.1100001335144
849.0967572,4.30999994277954
849.1123822,3.52999997138977
849.1280072,2.67000007629395
849.1436322,1.63999998569489
849.1592572,0.430000007152557
849.1748822,-0.829999983310699
849.1905072,-1.99000000953674
849.2061322,-2.97000002861023
849.2217572,-3.80999994277954
849.2373822,-4.59000015258789
849.2530072,-5.34999990463257
849.2686322,-6.19000005722046
849.2842572,-7.09999990463257
849.2998822,-7.96999979019165
849.3155072,-8.61999988555908
849.3311322,-8.9399995803833
849.3467572,-8.82999992370605
849.3623822,-8.28999996185303
849.3780072,-7.28999996185303
849.3936322,-5.65999984741211
849.4092572,-3.02999997138977
849.4248822,0.810000002384186
849.4405072,5.6399998664856
849.4561322,10.6099996566772
849.4717572,14.75
849.4873822,17.4699993133545
849.5030072,18.6599998474121
849.5186322,18.6800003051758
849.5342572,18.0499992370605
849.5498822,17.2299995422363
849.5655072,16.2700004577637
849.5811322,14.9700002670288
849.5967572,13.1199998855591
849.6123822,10.8400001525879
849.6280072,8.40999984741211
849.6436322,6.1399998664856
849.6592572,4.26999998092651
849.6748822,2.8199999332428
849.6905072,1.72000002861023
849.7061322,0.829999983310699
849.7217572,0.0199999995529652
849.7373822,-0.870000004768372
849.7530072,-1.95000004768372
849.7686322,-3.22000002861023
849.7842572,-4.63000011444092
849.7998822,-6.09000015258789
849.8155072,-7.51000022888184
849.8311322,-8.73999977111816
849.8467572,-9.67000007629395
849.8623822,-10.3199996948242
849.8780072,-10.8100004196167
849.8936322,-11.2799997329712
849.9092572,-11.8999996185303
849.9248822,-12.710000038147
849.9405072,-13.5299997329712
849.9561322,-14.0299997329712
849.9717572,-14.0500001907349
849.9873822,-13.6700000762939
850.0030072,-12.9499998092651
850.0186322,-11.6499996185303
850.0342572,-9.34000015258789
850.0498822,-5.71999979019165
850.0655072,-0.839999973773956
850.0811322,4.82999992370605
850.0967572,10.5699996948242
850.1123822,15.539999961853
850.1280072,19.0799999237061
850.1436322,20.8799991607666
850.1592572,21.1000003814697
850.1748822,20.2000007629395
850.1905072,18.6700000762939
850.2061322,16.8799991607666
850.2217572,15.039999961853
850.2373822,13.1199998855591
850.2530072,11.0299997329712
850.2686322,8.78999996185303
850.2842572,6.59000015258789
850.2998822,4.61999988555908
850.3155072,2.97000002861023
850.3311322,1.5900000333786
850.3467572,0.360000014305115
850.3623822,-0.810000002384186
850.3780072,-2.03999996185303
850.3936322,-3.44000005722046
850.4092572,-5.07999992370605
850.4248822,-6.82999992370605
850.4405072,-8.47000026702881
850.4561322,-9.84000015258789
850.4717572,-11.0200004577637
850.4873822,-12.1300001144409
850.5030072,-13.2700004577637
850.5186322,-14.460000038147
850.5342572,-15.6700000762939
850.5498822,-16.7800006866455
850.5655072,-17.6100006103516
850.5811322,-18.0300006866455
850.5967572,-18.0100002288818
850.6123822,-17.5300006866455
850.6280072,-16.5499992370605
850.6436322,-14.8699998855591
850.6592572,-12.1800003051758
850.6748822,-8.22000026702881
850.6905072,-3.03999996185303
850.7061322,2.83999991416931
850.7217572,8.59000015258789
850.7373822,13.4200000762939
850.7530072,16.8899993896484
850.7686322,18.9799995422363
850.7842572,19.9400005340576
850.7998822,20.1100006103516
850.8155072,19.7199993133545
850.8311322,18.8600006103516
850.8467572,17.5499992370605
850.8623822,15.8299999237061
850.8780072,13.8199996948242
850.8936322,11.6700000762939
850.9092572,9.60999965667725
850.9248822,7.78999996185303
850.9405072,6.26999998092651
850.9561322,4.96000003814697
850.9717572,3.73000001907349
850.9873822,2.45000004768372
851.0030072,1.03999996185303
851.0186322,-0.560000002384186
851.0342572,-2.29999995231628
851.0498822,-4.09000015258789
851.0655072,-5.84000015258789
851.0811322,-7.6100001335144
851.0967572,-9.44999980926514
851.1123822,-11.3299999237061
851.1280072,-13.1199998855591
851.1436322,-14.6599998474121
851.1592572,-15.8699998855591
851.1748822,-16.7800006866455
851.1905072,-17.5
851.2061322,-18.0499992370605
851.2217572,-18.3999996185303
851.2373822,-18.5499992370605
851.2530072,-18.6000003814697
851.2686322,-18.6100006103516
851.2842572,-18.4200000762939
851.2998822,-17.6200008392334
851.3155072,-15.6400003433228
851.3311322,-12.0200004577637
851.3467572,-6.73999977111816
851.3623822,-0.349999994039536
851.3780072,6.17000007629395
851.3936322,11.8100004196167
851.4092572,15.8000001907349
851.4248822,17.9300003051758
851.4405072,18.7099990844727
851.4561322,18.9200000762939
851.4717572,19.1100006103516
851.4873822,19.4599990844727
851.5030072,19.8299999237061
851.5186322,19.8999996185303
851.5342572,19.4500007629395
851.5498822,18.4599990844727
851.5655072,17.0499992370605
851.5811322,15.3400001525879
851.5967572,13.3699998855591
851.6123822,11.2399997711182
851.6280072,9.15999984741211
851.6436322,7.36999988555908
851.6592572,5.86999988555908
851.6748822,4.34000015258789
851.6905072,2.45000004768372
851.7061322,0.189999997615814
851.7217572,-2.29999995231628
851.7373822,-4.86999988555908
851.7530072,-7.30999994277954
851.7686322,-9.52000045776367
851.7842572,-11.4700002670288
851.7998822,-13.2799997329712
851.8155072,-15.0500001907349
851.8311322,-16.7199993133545
851.8467572,-18.1299991607666
851.8623822,-19.1900005340576
851.8780072,-19.9500007629395
851.8936322,-20.4300003051758
851.9092572,-20.5799999237061
851.9248822,-20.2999992370605
851.9405072,-19.3999996185303
851.9561322,-17.5699996948242
851.9717572,-14.4899997711182
851.9873822,-10.0900001525879
852.0030072,-4.67999982833862
852.0186322,1.11000001430511
852.0342572,6.59999990463257
852.0498822,11.1400003433228
852.0655072,14.3299999237061
852.0811322,16.0200004577637
852.0967572,16.3700008392334
852.1123822,15.8299999237061
852.1280072,14.8400001525879
852.1436322,13.6999998092651
852.1592572,12.4700002670288
852.1748822,11.1199998855591
852.1905072,9.64999961853027
852.2061322,8.09000015258789
852.2217572,6.51999998092651
852.2373822,5.05000019073486
852.2530072,3.85999989509583
852.2686322,2.98000001907349
852.2842572,2.19000005722046
852.2998822,1.22000002861023
852.3155072,-0.0099999997764825
852.3311322,-1.38999998569489
852.3467572,-2.75999999046326
852.3623822,-3.98000001907349
852.3780072,-5.1100001335144
852.3936322,-6.30999994277954
852.4092572,-7.67000007629395
852.4248822,-9.15999984741211
852.4405072,-10.6999998092651
852.4561322,-12.1800003051758
852.4717572,-13.4499998092651
852.4873822,-14.3400001525879
852.5030072,-14.8199996948242
852.5186322,-14.9899997711182
852.5342572,-15.0600004196167
852.5498822,-15.2200002670288
852.5655072,-15.4799995422363
852.5811322,-15.4700002670288
852.5967572,-14.5699996948242
852.6123822,-12.1400003433228
852.6280072,-7.84000015258789
852.6436322,-1.89999997615814
852.6592572,4.90000009536743
852.6748822,11.6000003814697
852.6905072,17.3899993896484
852.7061322,21.7900009155273
852.7217572,24.6399993896484
852.7373822,26.1299991607666
852.7530072,26.6100006103516
852.7686322,26.4699993133545
852.7842572,25.8400001525879
852.7998822,24.6200008392334
852.8155072,22.7099990844727
852.8311322,20.2099990844727
852.8467572,17.4400005340576
852.8623822,14.7600002288818
852.8780072,12.4099998474121
852.8936322,10.4399995803833
852.9092572,8.73999977111816
852.9248822,7.15000009536743
852.9405072,5.51999998092651
852.9561322,3.71000003814697
852.9717572,1.72000002861023
852.9873822,-0.389999985694885
853.0030072,-2.53999996185303
853.0186322,-4.59999990463257
853.0342572,-6.53999996185303
853.0498822,-8.36999988555908
853.0655072,-10.1199998855591
853.0811322,-11.7399997711182
853.0967572,-13.1300001144409
853.1123822,-14.2299995422363
853.1280072,-15.0900001525879
853.1436322,-15.8599996566772
853.1592572,-16.6100006103516
853.1748822,-17.3500003814697
853.1905072,-17.9899997711182
853.2061322,-18.3799991607666
853.2217572,-18.2299995422363
853.2373822,-17.1399993896484
853.2530072,-14.7399997711182
853.2686322,-10.8500003814697
853.2842572,-5.53000020980835
853.2998822,0.889999985694885
853.3155072,7.67000007629395
853.3311322,13.6899995803833
853.3467572,17.9599990844727
853.3623822,20.1599998474121
853.3780072,20.7099990844727
853.3936322,20.2999992370605
853.4092572,19.4300003051758
853.4248822,18.1599998474121
853.4405072,16.3199996948242
853.4561322,13.8599996566772
853.4717572,11.0299997329712
853.4873822,8.25
853.5030072,5.78999996185303
853.5186322,3.73000001907349
853.5342572,2.04999995231628
853.5498822,0.589999973773956
853.5655072,-0.889999985694885
853.5811322,-2.54999995231628
853.5967572,-4.40999984741211
853.6123822,-6.38000011444092
853.6280072,-8.27000045776367
853.6436322,-9.97999954223633
853.6592572,-11.5299997329712
853.6748822,-13.0100002288818
853.6905072,-14.4200000762939
853.7061322,-15.7399997711182
853.7217572,-16.8799991607666
853.7373822,-17.7700004577637
853.7530072,-18.3899993896484
853.7686322,-18.8500003814697
853.7842572,-19.2399997711182
853.7998822,-19.5400009155273
853.8155072,-19.7000007629395
853.8311322,-19.6000003814697
853.8467572,-19.0400009155273
853.8623822,-17.7399997711182
853.8780072,-15.3699998855591
853.8936322,-11.5900001525879
853.9092572,-6.15999984741211
853.9248822,0.730000019073486
853.9405072,8.5
853.9561322,16.2600002288818
853.9717572,23.0100002288818
853.9873822,28.0499992370605
854.0030072,31.25
854.0186322,32.9000015258789
854.0342572,33.3800010681152
854.0498822,32.939998626709
854.0655072,31.6399993896484
854.0811322,29.4799995422363
854.0967572,26.6100006103516
854.1123822,23.2900009155273
854.1280072,19.7900009155273
854.1436322,16.3700008392334
854.1592572,13.1899995803833
854.1748822,10.3900003433228
854.1905072,7.94999980926514
854.2061322,5.73000001907349
854.2217572,3.57999992370605
854.2373822,1.36000001430511
854.2530072,-0.990000009536743
854.2686322,-3.48000001907349
854.2842572,-6.01999998092651
854.2998822,-8.51000022888184
854.3155072,-10.8199996948242
854.3311322,-12.9099998474121
854.3467572,-14.789999961853
854.3623822,-16.5
854.3780072,-18.1399993896484
854.3936322,-19.7399997711182
854.4092572,-21.2099990844727
854.4248822,-22.4300003051758
854.4405072,-23.3400001525879
854.4561322,-24.0400009155273
854.4717572,-24.5699996948242
854.4873822,-24.8299999237061
854.5030072,-24.5699996948242
854.5186322,-23.3500003814697
854.5342572,-20.6299991607666
854.5498822,-16.0100002288818
854.5655072,-9.42000007629395
854.5811322,-1.41999995708466
854.5967572,6.84000015258789
854.6123822,14.0900001525879
854.6280072,19.5200004577637
854.6436322,23.0300006866455
854.6592572,25.0499992370605
854.6748822,25.9699993133545
854.6905072,25.9200000762939
854.7061322,24.9699993133545
854.7217572,23.3199996948242
854.7373822,21.2000007629395
854.7530072,18.6200008392334
854.7686322,15.539999961853
854.7842572,12.0500001907349
854.7998822,8.52999973297119
854.8155072,5.40999984741211
854.8311322,2.9300000667572
854.8467572,0.939999997615814
854.8623822,-0.949999988079071
854.8780072,-3.01999998092651
854.8936322,-5.21999979019165
854.9092572,-7.40000009536743
854.9248822,-9.47000026702881
854.9405072,-11.4300003051758
854.9561322,-13.3500003814697
854.9717572,-15.3400001525879
854.9873822,-17.3999996185303
855.0030072,-19.4200000762939
855.0186322,-21.25
855.0342572,-22.7900009155273
855.0498822,-24.0
855.0655072,-24.8999996185303
855.0811322,-25.6100006103516
855.0967572,-26.2000007629395
855.1123822,-26.5699996948242
855.1280072,-26.6200008392334
855.1436322,-26.2099990844727
855.1592572,-25.1499996185303
855.1748822,-23.1599998474121
855.1905072,-19.8999996185303
855.2061322,-15.0100002288818
855.2217572,-8.27000045776367
855.2373822,0.0
855.2530072,8.80000019073486
855.2686322,16.9099998474121
855.2842572,23.5300006866455
855.2998822,28.3899993896484
855.3155072,31.5300006866455
855.3311322,33.310001373291
855.3467572,34.1199989318848
855.3623822,34.0400009155273
855.3780072,32.9099998474121
855.3936322,30.6399993896484
855.4092572,27.3400001525879
855.4248822,23.3500003814697
855.4405072,19.1299991607666
855.4561322,15.1599998474121
855.4717572,11.7299995422363
855.4873822,8.85999965667725
855.5030072,6.42000007629395
855.5186322,4.21999979019165
855.5342572,2.08999991416931
855.5498822,-0.109999999403954
855.5655072,-2.49000000953674
855.5811322,-5.03999996185303
855.5967572,-7.67999982833862
855.6123822,-10.3000001907349
855.6280072,-12.8400001525879
855.6436322,-15.1899995803833
855.6592572,-17.2199993133545
855.6748822,-18.8199996948242
