Time(s),Value(%)
1386.0103744,-17.2999992370605
1386.0259994,-22.2999992370605
1386.0416244,-26.8600006103516
1386.0572494,-29.9500007629395
1386.0728744,-30.9200000762939
1386.0884994,-29.5599994659424
1386.1041244,-26.4500007629395
1386.1197494,-22.9200000762939
1386.1353744,-20.3799991607666
1386.1509994,-19.4899997711182
1386.1666244,-19.9699993133545
1386.1822494,-20.9500007629395
1386.1978744,-21.4400005340576
1386.2134994,-20.7199993133545
1386.2291244,-18.6299991607666
1386.2447494,-15.4899997711182
1386.2603744,-11.9499998092651
1386.2759994,-8.86999988555908
1386.2916244,-7.21000003814697
1386.3072494,-7.51999998092651
1386.3228744,-9.47000026702881
1386.3384994,-11.8000001907349
1386.3541244,-12.8199996948242
1386.3697494,-11.0100002288818
1386.3853744,-5.07999992370605
1386.4009994,5.71000003814697
1386.4166244,20.6299991607666
1386.4322494,36.8300018310547
1386.4478744,50.4000015258789
1386.4634994,58.3199996948242
1386.4791244,59.75
1386.4947494,56.060001373291
1386.5103744,49.8300018310547
1386.5259994,43.6300010681152
1386.5416244,38.9799995422363
1386.5572494,36.060001373291
1386.5728744,34.0900001525879
1386.5884994,31.8299999237061
1386.6041244,27.8299999237061
1386.6197494,20.8099994659424
1386.6353744,10.3299999237061
1386.6509994,-2.4300000667572
1386.6666244,-14.8199996948242
1386.6822494,-24.0799999237061
1386.6978744,-28.8999996185303
1386.7134994,-29.7099990844727
1386.7291244,-27.9400005340576
1386.7447494,-25.1900005340576
1386.7603744,-22.6800003051758
1386.7759994,-21.1200008392334
1386.7916244,-20.7299995422363
1386.8072494,-21.25
1386.8228744,-22.1800003051758
1386.8384994,-23.0100002288818
1386.8541244,-23.4200000762939
1386.8697494,-23.4099998474121
1386.8853744,-23.5200004577637
1386.9009994,-24.4899997711182
1386.9166244,-26.5499992370605
1386.9322494,-29.1200008392334
1386.9478744,-31.0599994659424
1386.9634994,-31.3500003814697
1386.9791244,-29.5300006866455
1386.9947494,-25.9500007629395
1387.0103744,-21.4500007629395
1387.0259994,-16.9200000762939
1387.0416244,-12.9799995422363
1387.0572494,-10.1400003433228
1387.0728744,-8.89999961853027
1387.0884994,-9.26000022888184
1387.1041244,-10.5900001525879
1387.1197494,-12.1300001144409
1387.1353744,-13.3500003814697
1387.1509994,-13.8500003814697
1387.1666244,-13.4399995803833
1387.1822494,-12.1599998474121
1387.1978744,-9.97999954223633
1387.2134994,-6.28999996185303
1387.2291244,0.389999985694885
1387.2447494,11.5299997329712
1387.2603744,26.8899993896484
1387.2759994,43.8699989318848
1387.2916244,58.5999984741211
1387.3072494,67.9400024414063
1387.3228744,70.7900009155273
1387.3384994,68.2200012207031
1387.3541244,62.7099990844727
1387.3697494,56.8300018310547
1387.3853744,52.310001373291
1387.4009994,49.4599990844727
1387.4166244,47.4000015258789
1387.4322494,44.7000007629395
1387.4478744,40.2099990844727
1387.4634994,33.439998626709
1387.4791244,24.5200004577637
1387.4947494,14.1199998855591
1387.5103744,3.41000008583069
1387.5259994,-6.21000003814697
1387.5416244,-13.6000003814697
1387.5572494,-18.2099990844727
1387.5728744,-20.25
1387.5884994,-20.5699996948242
1387.6041244,-20.4200000762939
1387.6197494,-20.9699993133545
1387.6353744,-22.7099990844727
1387.6509994,-25.1499996185303
1387.6666244,-27.1499996185303
1387.6822494,-27.7800006866455
1387.6978744,-26.9400005340576
1387.7134994,-25.4500007629395
1387.7291244,-24.5300006866455
1387.7447494,-25.0400009155273
1387.7603744,-27.2600002288818
1387.7759994,-30.7900009155273
1387.7916244,-34.4900016784668
1387.8072494,-36.8199996948242
1387.8228744,-36.5299987792969
1387.8384994,-33.560001373291
1387.8541244,-29.1100006103516
1387.8697494,-24.7299995422363
1387.8853744,-21.2600002288818
1387.9009994,-18.75
1387.9166244,-16.8400001525879
1387.9322494,-15.0699996948242
1387.9478744,-13.1599998474121
1387.9634994,-11.1099996566772
1387.9791244,-9.21000003814697
1387.9947494,-7.69000005722046
1388.0103744,-6.53999996185303
1388.0259994,-5.38000011444092
1388.0416244,-3.53999996185303
1388.0572494,0.0599999986588955
1388.0728744,6.86999988555908
1388.0884994,17.6700000762939
1388.1041244,31.4200000762939
1388.1197494,45.2799987792969
1388.1353744,56.0800018310547
1388.1509994,61.7999992370605
1388.1666244,62.1800003051758
1388.1822494,58.6500015258789
1388.1978744,53.5999984741211
1388.2134994,49.1699981689453
1388.2291244,46.4199981689453
1388.2447494,45.060001373291
1388.2603744,43.6300010681152
1388.2759994,40.2299995422363
1388.2916244,33.4799995422363
1388.3072494,23.0900001525879
1388.3228744,9.82999992370605
1388.3384994,-4.46999979019165
1388.3541244,-17.2999992370605
1388.3697494,-26.3600006103516
1388.3853744,-30.4799995422363
1388.4009994,-30.0100002288818
1388.4166244,-26.5599994659424
1388.4322494,-22.3500003814697
1388.4478744,-19.3400001525879
1388.4634994,-18.6700000762939
1388.4791244,-20.4899997711182
1388.4947494,-24.0799999237061
1388.5103744,-28.2000007629395
1388.5259994,-31.6299991607666
1388.5416244,-33.6800003051758
1388.5572494,-34.25
1388.5728744,-33.8199996948242
1388.5884994,-33.3199996948242
1388.6041244,-33.7099990844727
1388.6197494,-35.5299987792969
1388.6353744,-38.6599998474121
1388.6509994,-42.4099998474121
1388.6666244,-45.8400001525879
1388.6822494,-48.0699996948242
1388.6978744,-48.4599990844727
1388.7134994,-46.6100006103516
1388.7291244,-42.4799995422363
1388.7447494,-36.5999984741211
1388.7603744,-29.7299995422363
1388.7759994,-22.5
1388.7916244,-15.3000001907349
1388.8072494,-8.34000015258789
1388.8228744,-1.70000004768372
1388.8384994,4.48000001907349
1388.8541244,9.73999977111816
1388.8697494,13.3500003814697
1388.8853744,15.0200004577637
1388.9009994,15.8400001525879
1388.9166244,18.3400001525879
1388.9322494,25.0400009155273
1388.9478744,36.3600006103516
1388.9634994,49.9300003051758
1388.9791244,61.9900016784668
1388.9947494,69.629997253418
1389.0103744,72.1900024414063
1389.0259994,70.9599990844727
1389.0416244,68.0500030517578
1389.0572494,65.2600021362305
1389.0728744,63.3400001525879
1389.0884994,61.8499984741211
1389.1041244,59.7200012207031
1389.1197494,56.0
1389.1353744,50.0499992370605
1389.1509994,41.4599990844727
1389.1666244,30.3600006103516
1389.1822494,17.8899993896484
1389.1978744,6.19999980926514
1389.2134994,-2.54999995231628
1389.2291244,-7.44000005722046
1389.2447494,-9.02999973297119
1389.2603744,-8.8100004196167
1389.2759994,-8.30000019073486
1389.2916244,-8.38000011444092
1389.3072494,-9.27000045776367
1389.3228744,-10.8199996948242
1389.3384994,-12.710000038147
1389.3541244,-14.5699996948242
1389.3697494,-16.2000007629395
1389.3853744,-17.7299995422363
1389.4009994,-19.3700008392334
1389.4166244,-21.0900001525879
1389.4322494,-22.8299999237061
1389.4478744,-24.9500007629395
1389.4634994,-28.1000003814697
1389.4791244,-32.3600006103516
1389.4947494,-36.7099990844727
1389.5103744,-39.4599990844727
1389.5259994,-39.4000015258789
1389.5416244,-36.439998626709
1389.5572494,-31.3700008392334
1389.5728744,-25.5499992370605
1389.5884994,-20.8799991607666
1389.6041244,-19.2999992370605
1389.6197494,-21.6599998474121
1389.6353744,-26.7299995422363
1389.6509994,-31.7099990844727
1389.6666244,-34.0299987792969
1389.6822494,-32.7799987792969
1389.6978744,-28.6499996185303
1389.7134994,-22.9699993133545
1389.7291244,-16.8999996185303
1389.7447494,-10.7700004577637
1389.7603744,-3.97000002861023
1389.7759994,4.34000015258789
1389.7916244,14.3000001907349
1389.8072494,24.8299999237061
1389.8228744,34.5299987792969
1389.8384994,42.6199989318848
1389.8541244,49.1699981689453
1389.8697494,54.5800018310547
1389.8853744,58.9199981689453
1389.9009994,61.5699996948242
1389.9166244,61.4500007629395
1389.9322494,57.7900009155273
1389.9478744,50.8300018310547
1389.9634994,41.8499984741211
1389.9791244,32.3899993896484
1389.9947494,23.3299999237061
1390.0103744,14.5500001907349
1390.0259994,5.5
1390.0416244,-3.59999990463257
1390.0572494,-11.4799995422363
1390.0728744,-16.6299991607666
1390.0884994,-18.5799999237061
1390.1041244,-18.2999992370605
1390.1197494,-17.6599998474121
1390.1353744,-18.3899993896484
1390.1509994,-21.3700008392334
1390.1666244,-26.3500003814697
1390.1822494,-32.2400016784668
1390.1978744,-37.5099983215332
1390.2134994,-40.8400001525879
1390.2291244,-41.7099990844727
1390.2447494,-40.5400009155273
1390.2603744,-38.3300018310547
1390.2759994,-36.2299995422363
1390.2916244,-35.0499992370605
1390.3072494,-35.1199989318848
1390.3228744,-36.0499992370605
1390.3384994,-36.810001373291
1390.3541244,-36.25
1390.3697494,-33.939998626709
1390.3853744,-30.3400001525879
1390.4009994,-26.4799995422363
1390.4166244,-23.4200000762939
1390.4322494,-21.8999996185303
1390.4478744,-22.1900005340576
1390.4634994,-24.0300006866455
1390.4791244,-26.6700000762939
1390.4947494,-29.0
1390.5103744,-30.0699996948242
1390.5259994,-29.5400009155273
1390.5416244,-27.5599994659424
1390.5572494,-24.1299991607666
1390.5728744,-18.5599994659424
1390.5884994,-9.39000034332275
1390.6041244,4.5
1390.6197494,22.4400005340576
1390.6353744,41.6199989318848
1390.6509994,58.5999984741211
1390.6666244,71.0699996948242
1390.6822494,78.5
1390.6978744,81.8199996948242
1390.7134994,82.6699981689453
1390.7291244,82.5800018310547
1390.7447494,82.25
1390.7603744,81.1699981689453
1390.7759994,78.0299987792969
1390.7916244,71.6699981689453
1390.8072494,61.7599983215332
1390.8228744,48.7000007629395
1390.8384994,33.1699981689453
1390.8541244,16.2399997711182
1390.8697494,-0.0700000002980232
1390.8853744,-12.8100004196167
1390.9009994,-19.5100002288818
1390.9166244,-19.7399997711182
1390.9322494,-15.4300003051758
1390.9478744,-9.8100004196167
1390.9634994,-5.98000001907349
1390.9791244,-5.71000003814697
1390.9947494,-9.06999969482422
1391.0103744,-14.8500003814697
1391.0259994,-21.4699993133545
1391.0416244,-27.7800006866455
1391.0572494,-33.2900009155273
1391.0728744,-37.8699989318848
1391.0884994,-41.2999992370605
1391.1041244,-43.3800010681152
1391.1197494,-44.1399993896484
1391.1353744,-43.9000015258789
1391.1509994,-42.9900016784668
1391.1666244,-41.1599998474121
1391.1822494,-37.6699981689453
1391.1978744,-31.9599990844727
1391.2134994,-24.5
1391.2291244,-17.0
1391.2447494,-11.6199998855591
1391.2603744,-9.67000007629395
1391.2759994,-10.6400003433228
1391.2916244,-12.5600004196167
1391.3072494,-13.4499998092651
1391.3228744,-12.6400003433228
1391.3384994,-11.039999961853
1391.3541244,-10.1400003433228
1391.3697494,-10.7600002288818
1391.3853744,-12.3900003433228
1391.4009994,-12.9799995422363
1391.4166244,-9.38000011444092
1391.4322494,1.37000000476837
1391.4478744,19.9200000762939
1391.4634994,43.5099983215332
1391.4791244,67.1500015258789
1391.4947494,86.1699981689453
1391.5103744,98.1399993896484
1391.5259994,103.050003051758
1391.5416244,102.269996643066
1391.5572494,97.4199981689453
1391.5728744,89.7600021362305
1391.5884994,80.2300033569336
1391.6041244,69.6100006103516
1391.6197494,58.8400001525879
1391.6353744,48.9599990844727
1391.6509994,40.4300003051758
1391.6666244,32.5900001525879
1391.6822494,24.0599994659424
1391.6978744,13.9899997711182
1391.7134994,2.97000002861023
1391.7291244,-7.3600001335144
1391.7447494,-15.6099996566772
1391.7603744,-21.4699993133545
1391.7759994,-25.75
1391.7916244,-29.6000003814697
1391.8072494,-33.7900009155273
1391.8228744,-38.189998626709
1391.8384994,-42.1100006103516
1391.8541244,-44.8899993896484
1391.8697494,-46.2000007629395
1391.8853744,-45.8800010681152
1391.9009994,-44.0400009155273
1391.9166244,-41.1300010681152
1391.9322494,-37.8800010681152
1391.9478744,-34.8699989318848
1391.9634994,-32.5
1391.9791244,-31.2900009155273
1391.9947494,-31.9899997711182
1392.0103744,-34.8499984741211
1392.0259994,-39.0699996948242
1392.0416244,-43.1199989318848
1392.0572494,-45.5800018310547
1392.0728744,-45.7400016784668
1392.0884994,-43.4700012207031
1392.1041244,-38.9500007629395
1392.1197494,-32.7200012207031
1392.1353744,-25.7000007629395
1392.1509994,-18.6000003814697
1392.1666244,-11.5500001907349
1392.1822494,-4.69000005722046
1392.1978744,1.00999999046326
1392.2134994,4.6100001335144
1392.2291244,7.07000017166138
1392.2447494,11.5900001525879
1392.2603744,21.6800003051758
1392.2759994,38.6100006103516
1392.2916244,60.5099983215332
1392.3072494,83.5999984741211
1392.3228744,104.169998168945
1392.3384994,119.849998474121
1392.3541244,129.369995117188
1392.3697494,131.610000610352
1392.3853744,125.370002746582
1392.4009994,110.169998168945
1392.4166244,87.4300003051758
1392.4322494,60.5999984741211
1392.4478744,33.8899993896484
1392.4634994,10.8100004196167
1392.4791244,-6.25
1392.4947494,-15.5699996948242
1392.5103744,-16.0499992370605
1392.5259994,-8.5
1392.5416244,3.27999997138977
1392.5572494,13.3000001907349
1392.5728744,15.8400001525879
1392.5884994,8.01000022888184
1392.6041244,-9.17000007629395
1392.6197494,-31.5699996948242
1392.6353744,-54.0800018310547
1392.6509994,-72.7200012207031
1392.6666244,-85.3499984741211
1392.6822494,-91.4400024414063
1392.6978744,-91.8300018310547
1392.7134994,-88.6500015258789
1392.7291244,-84.2699966430664
1392.7447494,-79.7900009155273
1392.7603744,-74.5899963378906
1392.7759994,-67.5899963378906
1392.7916244,-58.7599983215332
1392.8072494,-49.3600006103516
1392.8228744,-40.939998626709
1392.8384994,-34.1800003051758
1392.8541244,-28.6100006103516
1392.8697494,-23.3999996185303
1392.8853744,-18.6200008392334
1392.9009994,-15.8299999237061
1392.9166244,-17.2900009155273
1392.9322494,-23.6499996185303
1392.9478744,-32.5099983215332
1392.9634994,-39.3199996948242
1392.9791244,-40.0200004577637
1392.9947494,-32.7299995422363
1393.0103744,-17.6800003051758
1393.0259994,3.67000007629395
1393.0416244,28.6599998474121
1393.0572494,53.1100006103516
1393.0728744,72.2900009155273
1393.0884994,82.9100036621094
1393.1041244,84.4400024414063
1393.1197494,79.0899963378906
1393.1353744,70.7699966430664
1393.1509994,63.75
1393.1666244,60.9000015258789
1393.1822494,62.2799987792969
1393.1978744,65.120002746582
1393.2134994,65.370002746582
1393.2291244,59.8800010681152
1393.2447494,47.8699989318848
1393.2603744,30.5699996948242
1393.2759994,10.0900001525879
1393.2916244,-11.2299995422363
1393.3072494,-30.7299995422363
1393.3228744,-45.6300010681152
1393.3384994,-54.0999984741211
1393.3541244,-56.1500015258789
1393.3697494,-53.4700012207031
1393.3853744,-48.4799995422363
1393.4009994,-43.3300018310547
1393.4166244,-39.2000007629395
1393.4322494,-36.7099990844727
1393.4478744,-36.5999984741211
1393.4634994,-39.6599998474121
1393.4791244,-45.8800010681152
1393.4947494,-54.1500015258789
1393.5103744,-62.7700004577637
1393.5259994,-70.0400009155273
1393.5416244,-74.3600006103516
1393.5572494,-74.4800033569336
1393.5728744,-69.8899993896484
1393.5884994,-61.2200012207031
1393.6041244,-50.3199996948242
1393.6197494,-39.8499984741211
1393.6353744,-32.0099983215332
1393.6509994,-27.5
1393.6666244,-25.6200008392334
1393.6822494,-25.5
1393.6978744,-26.8099994659424
1393.7134994,-29.4200000762939
1393.7291244,-32.7900009155273
1393.7447494,-35.689998626709
1393.7603744,-36.1500015258789
1393.7759994,-31.3299999237061
1393.7916244,-18.2299995422363
1393.8072494,4.28999996185303
1393.8228744,33.4900016784668
1393.8384994,62.9199981689453
1393.8541244,85.7300033569336
1393.8697494,98.4499969482422
1393.8853744,102.319999694824
1393.9009994,101.300003051758
1393.9166244,98.7600021362305
1393.9322494,95.5599975585938
1393.9478744,90.7200012207031
1393.9634994,83.4199981689453
1393.9791244,74.2399978637695
1393.9947494,64.4899978637695
1394.0103744,54.5099983215332
1394.0259994,43.2599983215332
1394.0416244,29.7900009155273
1394.0572494,15.0600004196167
1394.0728744,1.92999994754791
1394.0884994,-6.80999994277954
1394.1041244,-10.6700000762939
1394.1197494,-11.9099998474121
1394.1353744,-13.9099998474121
1394.1509994,-18.5599994659424
1394.1666244,-25.2399997711182
1394.1822494,-31.8600006103516
1394.1978744,-36.6100006103516
1394.2134994,-38.939998626709
1394.2291244,-39.4000015258789
1394.2447494,-38.8199996948242
1394.2603744,-37.689998626709
1394.2759994,-36.1699981689453
1394.2916244,-34.2900009155273
1394.3072494,-32.0299987792969
1394.3228744,-29.0699996948242
1394.3384994,-24.8099994659424
1394.3541244,-19.1599998474121
1394.3697494,-13.039999961853
1394.3853744,-8.10999965667725
1394.4009994,-5.73999977111816
1394.4166244,-6.03999996185303
1394.4322494,-7.73999977111816
1394.4478744,-8.98999977111816
1394.4634994,-8.53999996185303
1394.4791244,-6.63000011444092
1394.4947494,-4.73999977111816
1394.5103744,-4.32000017166138
1394.5259994,-5.48000001907349
1394.5416244,-6.13000011444092
1394.5572494,-1.98000001907349
1394.5728744,11.6499996185303
1394.5884994,36.2200012207031
1394.6041244,67.5199966430664
1394.6197494,97.3099975585938
1394.6353744,117.919998168945
1394.6509994,126.220001220703
1394.6666244,124.110000610352
1394.6822494,116.279998779297
1394.6978744,107.370002746582
1394.7134994,100.029998779297
1394.7291244,94.620002746582
1394.7447494,89.9199981689453
1394.7603744,84.1600036621094
1394.7759994,75.8099975585938
1394.7916244,64.25
1394.8072494,49.6599998474121
1394.8228744,32.7200012207031
1394.8384994,14.6300001144409
1394.8541244,-2.82999992370605
1394.8697494,-17.9500007629395
1394.8853744,-29.5900001525879
1394.9009994,-37.5299987792969
1394.9166244,-42.4000015258789
1394.9322494,-45.4300003051758
1394.9478744,-47.75
1394.9634994,-49.75
1394.9791244,-51.0
1394.9947494,-50.9000015258789
1395.0103744,-49.4000015258789
1395.0259994,-47.1100006103516
1395.0416244,-44.810001373291
1395.0572494,-43.0699996948242
1395.0728744,-42.2099990844727
1395.0884994,-42.5
1395.1041244,-43.9900016784668
1395.1197494,-46.2700004577637
1395.1353744,-48.4300003051758
1395.1509994,-49.4300003051758
1395.1666244,-48.5400009155273
1395.1822494,-45.810001373291
1395.1978744,-42.0699996948242
1395.2134994,-38.5299987792969
1395.2291244,-35.8899993896484
1395.2447494,-34.1399993896484
1395.2603744,-33.1300010681152
1395.2759994,-33.0
1395.2916244,-33.8899993896484
1395.3072494,-35.2900009155273
1395.3228744,-35.8699989318848
1395.3384994,-33.4599990844727
1395.3541244,-25.2399997711182
1395.3697494,-8.46000003814697
1395.3853744,17.3099994659424
1395.4009994,48.3899993896484
1395.4166244,77.7600021362305
1395.4322494,98.4700012207031
1395.4478744,106.910003662109
1395.4634994,104.169998168945
1395.4791244,94.6999969482422
1395.4947494,83.5899963378906
1395.5103744,74.3199996948242
1395.5259994,67.9899978637695
1395.5416244,63.689998626709
1395.5572494,59.5200004577637
1395.5728744,53.6399993896484
1395.5884994,44.8499984741211
1395.6041244,32.5499992370605
1395.6197494,16.8700008392334
1395.6353744,-0.949999988079071
1395.6509994,-18.3799991607666
1395.6666244,-32.2799987792969
1395.6822494,-40.4900016784668
1395.6978744,-42.8800010681152
1395.7134994,-41.3800010681152
1395.7291244,-38.8499984741211
1395.7447494,-37.6500015258789
1395.7603744,-38.6800003051758
1395.7759994,-41.560001373291
1395.7916244,-45.3800010681152
1395.8072494,-49.2900009155273
1395.8228744,-52.7599983215332
1395.8384994,-55.7099990844727
1395.8541244,-58.2799987792969
1395.8697494,-60.4099998474121
1395.8853744,-61.6699981689453
1395.9009994,-61.6199989318848
1395.9166244,-60.1699981689453
1395.9322494,-57.7099990844727
1395.9478744,-54.8400001525879
1395.9634994,-52.0
1395.9791244,-49.3600006103516
1395.9947494,-46.8400001525879
1396.0103744,-44.2900009155273
1396.0259994,-41.7700004577637
1396.0416244,-39.7200012207031
1396.0572494,-38.6300010681152
1396.0728744,-38.4500007629395
1396.0884994,-38.6199989318848
1396.1041244,-38.6300010681152
1396.1197494,-38.3600006103516
1396.1353744,-37.4599990844727
1396.1509994,-34.5200004577637
1396.1666244,-26.7000007629395
1396.1822494,-10.5200004577637
1396.1978744,15.6999998092651
1396.2134994,49.3800010681152
1396.2291244,83.5400009155273
1396.2447494,109.959999084473
1396.2603744,123.089996337891
1396.2759994,122.370002746582
1396.2916244,111.569999694824
1396.3072494,96.3000030517578
1396.3228744,81.4599990844727
1396.3384994,69.8600006103516
1396.3541244,61.9199981689453
