Time(s),Value(%)
307.0039886,24.6299991607666
307.0196136,28.7999992370605
307.0352386,32.3400001525879
307.0508636,34.8699989318848
307.0664886,36.2200012207031
307.0821136,36.6100006103516
307.0977386,36.3899993896484
307.1133636,35.75
307.1289886,34.4599990844727
307.1446136,32.1599998474121
307.1602386,28.6100006103516
307.1758636,23.5799999237061
307.1914886,16.5699996948242
307.2071136,7.1100001335144
307.2227386,-4.53999996185303
307.2383636,-17.3299999237061
307.2539886,-29.7000007629395
307.2696136,-40.4199981689453
307.2852386,-49.0200004577637
307.3008636,-55.4199981689453
307.3164886,-59.310001373291
307.3321136,-60.3400001525879
307.3477386,-58.6100006103516
307.3633636,-54.9099998474121
307.3789886,-50.3300018310547
307.3946136,-45.6599998474121
307.4102386,-41.0900001525879
307.4258636,-36.3699989318848
307.4414886,-31.2800006866455
307.4571136,-25.9500007629395
307.4727386,-20.8799991607666
307.4883636,-16.6399993896484
307.5039886,-13.5100002288818
307.5196136,-11.4300003051758
307.5352386,-10.1999998092651
307.5508636,-9.78999996185303
307.5664886,-10.3299999237061
307.5821136,-11.8400001525879
307.5977386,-13.9200000762939
307.6133636,-15.9099998474121
307.6289886,-17.25
307.6446136,-17.7700004577637
307.6602386,-17.5900001525879
307.6758636,-16.6700000762939
307.6914886,-14.5699996948242
307.7071136,-10.7600002288818
307.7227386,-5.19000005722046
307.7383636,1.55999994277954
307.7539886,8.57999992370605
307.7696136,15.039999961853
307.7852386,20.4899997711182
307.8008636,24.7900009155273
307.8164886,27.9500007629395
307.8321136,30.0699996948242
307.8477386,31.5699996948242
307.8633636,33.0
307.8789886,34.8300018310547
307.8946136,37.2400016784668
307.9102386,40.0800018310547
307.9258636,43.0200004577637
307.9414886,45.6699981689453
307.9571136,47.4199981689453
307.9727386,47.3699989318848
307.9883636,44.7799987792969
308.0039886,39.6199989318848
308.0196136,32.4199981689453
308.0352386,23.75
308.0508636,14.0699996948242
308.0664886,3.83999991416931
308.0821136,-6.09000015258789
308.0977386,-14.6800003051758
308.1133636,-21.3299999237061
308.1289886,-26.4799995422363
308.1446136,-31.0799999237061
308.1602386,-35.5999984741211
308.1758636,-39.75
308.1914886,-43.0200004577637
308.2071136,-45.1599998474121
308.2227386,-46.3899993896484
308.2383636,-47.4000015258789
308.2539886,-49.2099990844727
308.2696136,-52.6300010681152
308.2852386,-57.8300018310547
308.3008636,-64.5500030517578
308.3164886,-72.5800018310547
308.3321136,-81.8000030517578
308.3477386,-91.7699966430664
308.3633636,-101.23999786377
308.3789886,-108.209999084473
308.3946136,-111.0
308.4102386,-109.339996337891
308.4258636,-104.190002441406
308.4414886,-96.75
308.4571136,-87.879997253418
308.4727386,-78.1399993896484
308.4883636,-67.9800033569336
308.5039886,-57.810001373291
308.5196136,-47.8600006103516
308.5352386,-38.189998626709
308.5508636,-28.7800006866455
308.5664886,-19.7600002288818
308.5821136,-11.3599996566772
308.5977386,-3.75
308.6133636,3.01999998092651
308.6289886,9.13000011444092
308.6446136,14.7700004577637
308.6602386,20.0900001525879
308.6758636,24.9899997711182
308.6914886,29.1100006103516
308.7071136,32.0800018310547
308.7227386,33.7599983215332
308.7383636,34.2900009155273
308.7539886,33.810001373291
308.7696136,32.4199981689453
308.7852386,30.3799991607666
308.8008636,28.2900009155273
308.8164886,27.0300006866455
308.8321136,27.2399997711182
308.8477386,28.8799991607666
308.8633636,31.4200000762939
308.8789886,34.4000015258789
308.8946136,37.6300010681152
308.9102386,41.0999984741211
308.9258636,44.7599983215332
308.9414886,48.689998626709
308.9571136,53.810001373291
308.9727386,62.1199989318848
308.9883636,75.5299987792969
309.0039886,94.4000015258789
309.0196136,117.690002441406
309.0352386,144.149993896484
309.0508636,172.789993286133
309.0664886,202.380004882813
309.0821136,230.649993896484
309.0977386,254.580001831055
309.1133636,272.279998779297
309.1289886,284.609985351563
309.1446136,293.950012207031
309.1602386,301.779998779297
309.1758636,307.880004882813
309.1914886,311.440002441406
309.2071136,312.160003662109
309.2227386,310.359985351563
309.2383636,306.149993896484
309.2539886,298.779998779297
309.2696136,287.239990234375
309.2852386,271.489990234375
309.3008636,252.830001831055
309.3164886,233.320007324219
309.3321136,214.779998779297
309.3477386,196.630004882813
309.3633636,180.669998168945
309.3789886,166.270004272461
309.3946136,152.520004272461
309.4102386,138.419998168945
309.4258636,123.190002441406
309.4414886,106.599998474121
309.4571136,89.0500030517578
309.4727386,71.2900009155273
309.4883636,54.1100006103516
309.5039886,38.0299987792969
309.5196136,23.3400001525879
309.5352386,10.2200002670288
309.5508636,-1.26999998092651
309.5664886,-11.3599996566772
309.5821136,-20.5
309.5977386,-29.2999992370605
309.6133636,-38.2700004577637
309.6289886,-47.5099983215332
309.6446136,-56.7299995422363
309.6602386,-65.3499984741211
309.6758636,-72.9199981689453
309.6914886,-79.3899993896484
309.7071136,-84.9499969482422
309.7227386,-89.8000030517578
309.7383636,-94.0299987792969
309.7539886,-97.6699981689453
309.7696136,-100.790000915527
309.7852386,-103.610000610352
309.8008636,-106.660003662109
309.8164886,-110.849998474121
309.8321136,-116.919998168945
309.8477386,-124.949996948242
309.8633636,-134.199996948242
309.8789886,-143.619995117188
309.8946136,-152.309997558594
309.9102386,-159.610000610352
309.9258636,-164.320007324219
309.9414886,-164.369995117188
309.9571136,-157.899993896484
309.9727386,-144.800003051758
309.9883636,-126.610000610352
310.0039886,-105.309997558594
310.0196136,-82.4700012207031
310.0352386,-59.4099998474121
310.0508636,-37.7599983215332
310.0664886,-19.5799999237061
310.0821136,-6.53000020980835
310.0977386,1.12000000476837
310.1133636,4.25
310.1289886,3.90000009536743
310.1446136,1.00999999046326
310.1602386,-3.25
310.1758636,-7.67999982833862
310.1914886,-11.3500003814697
310.2071136,-13.9899997711182
310.2227386,-15.8000001907349
310.2383636,-16.8799991607666
310.2539886,-16.8999996185303
310.2696136,-15.4700002670288
310.2852386,-12.8699998855591
310.3008636,-9.94999980926514
310.3164886,-7.63000011444092
310.3321136,-6.34999990463257
310.3477386,-6.03000020980835
310.3633636,-6.67000007629395
310.3789886,-8.48999977111816
310.3946136,-11.7700004577637
310.4102386,-16.4500007629395
310.4258636,-21.9400005340576
310.4414886,-27.3099994659424
310.4571136,-31.7700004577637
310.4727386,-35.0200004577637
310.4883636,-37.3199996948242
310.5039886,-39.2299995422363
310.5196136,-41.2000007629395
310.5352386,-43.4199981689453
310.5508636,-45.8400001525879
310.5664886,-48.3400001525879
310.5821136,-50.6100006103516
310.5977386,-51.9700012207031
310.6133636,-51.7200012207031
310.6289886,-49.6800003051758
310.6446136,-46.3499984741211
310.6602386,-42.5900001525879
310.6758636,-38.9900016784668
310.6914886,-35.6100006103516
310.7071136,-32.3499984741211
310.7227386,-29.5599994659424
310.7383636,-27.8799991607666
310.7539886,-27.7000007629395
310.7696136,-28.8500003814697
310.7852386,-30.7299995422363
310.8008636,-32.5299987792969
310.8164886,-33.4700012207031
310.8321136,-33.1300010681152
310.8477386,-31.5599994659424
310.8633636,-29.2399997711182
310.8789886,-26.7600002288818
310.8946136,-24.5499992370605
310.9102386,-22.75
310.9258636,-21.1700000762939
310.9414886,-19.3600006103516
310.9571136,-16.9200000762939
310.9727386,-13.7299995422363
310.9883636,-9.96000003814697
311.0039886,-5.80999994277954
311.0196136,-1.5
311.0352386,2.71000003814697
311.0508636,6.15999984741211
311.0664886,7.53000020980835
311.0821136,5.09000015258789
311.0977386,-2.73000001907349
311.1133636,-16.4099998474121
311.1289886,-35.25
311.1446136,-58.7400016784668
311.1602386,-87.8399963378906
311.1758636,-123.919998168945
311.1914886,-166.419998168945
311.2071136,-211.830001831055
311.2227386,-255.110000610352
311.2383636,-293.029998779297
311.2539886,-326.040008544922
311.2696136,-327.679992675781
311.2852386,-327.679992675781
311.3008636,-327.679992675781
311.3164886,-327.679992675781
311.3321136,-327.679992675781
311.3477386,-327.679992675781
311.3633636,-327.679992675781
311.3789886,-327.679992675781
311.3946136,-327.679992675781
311.4102386,-327.679992675781
311.4258636,-327.679992675781
311.4414886,-327.679992675781
311.4571136,-318.980010986328
311.4727386,-306.5
311.4883636,-294.019989013672
311.5039886,-279.769989013672
311.5196136,-262.089996337891
311.5352386,-240.630004882813
311.5508636,-216.460006713867
311.5664886,-191.330001831055
311.5821136,-166.75
311.5977386,-143.619995117188
311.6133636,-122.190002441406
311.6289886,-102.370002746582
311.6446136,-84.2699966430664
311.6602386,-68.4000015258789
311.6758636,-55.3300018310547
311.6914886,-45.1300010681152
311.7071136,-37.3199996948242
311.7227386,-31.3199996948242
311.7383636,-26.6599998474121
311.7539886,-22.8199996948242
311.7696136,-19.0300006866455
311.7852386,-14.2299995422363
311.8008636,-7.67999982833862
311.8164886,0.600000023841858
311.8321136,10.0299997329712
311.8477386,20.0300006866455
311.8633636,30.3099994659424
311.8789886,40.7099990844727
311.8946136,51.0900001525879
311.9102386,61.2700004577637
311.9258636,71.25
311.9414886,81.2799987792969
311.9571136,91.7099990844727
311.9727386,102.589996337891
311.9883636,113.639999389648
312.0039886,124.389999389648
312.0196136,134.399993896484
312.0352386,143.449996948242
312.0508636,151.470001220703
312.0664886,158.429992675781
312.0821136,164.399993896484
312.0977386,169.660003662109
312.1133636,174.610000610352
312.1289886,179.529998779297
312.1446136,184.509994506836
312.1602386,189.410003662109
312.1758636,194.020004272461
312.1914886,198.179992675781
312.2071136,201.960006713867
312.2227386,205.649993896484
312.2383636,209.580001831055
312.2539886,213.860000610352
312.2696136,218.460006713867
312.2852386,223.300003051758
312.3008636,228.330001831055
312.3164886,233.380004882813
312.3321136,237.979995727539
312.3477386,245.399993896484
312.3633636,250.850006103516
312.3789886,254.100006103516
312.3946136,255.350006103516
312.4102386,254.970001220703
312.4258636,253.289993286133
312.4414886,250.619995117188
312.4571136,247.279998779297
312.4727386,243.460006713867
312.4883636,239.119995117188
312.5039886,233.830001831055
312.5196136,227.130004882813
312.5352386,218.970001220703
312.5508636,209.940002441406
312.5664886,201.070007324219
312.5821136,193.330001831055
312.5977386,187.130004882813
312.6133636,182.460006713867
312.6289886,179.279998779297
312.6446136,177.889999389648
312.6602386,178.880004882813
312.6758636,182.380004882813
312.6914886,187.550003051758
312.7071136,192.860000610352
312.7227386,196.960006713867
312.7383636,199.229995727539
312.7539886,199.710006713867
312.7696136,198.330001831055
312.7852386,194.389999389648
312.8008636,187.029998779297
312.8164886,176.210006713867
312.8321136,163.080001831055
312.8477386,149.550003051758
312.8633636,137.279998779297
312.8789886,127.089996337891
312.8946136,118.930000305176
312.9102386,112.459999084473
312.9258636,107.639999389648
312.9414886,104.769996643066
312.9571136,103.980003356934
312.9727386,104.690002441406
312.9883636,105.910003662109
313.0039886,106.940002441406
313.0196136,107.629997253418
313.0352386,108.080001831055
313.0508636,108.019996643066
313.0664886,106.75
313.0821136,103.980003356934
313.0977386,100.540000915527
313.1133636,97.8499984741211
313.1289886,96.620002746582
313.1446136,96.4400024414063
313.1602386,96.3000030517578
313.1758636,95.3600006103516
313.1914886,93.3499984741211
313.2071136,90.6600036621094
313.2227386,88.1699981689453
313.2383636,86.6699981689453
313.2539886,86.2799987792969
313.2696136,86.0100021362305
313.2852386,83.9800033569336
313.3008636,78.5299987792969
313.3164886,69.0599975585938
313.3321136,55.75
313.3477386,39.3400001525879
313.3633636,17.6000003814697
313.3789886,-10.0699996948242
313.3946136,-42.8499984741211
313.4102386,-77.8199996948242
313.4258636,-111.180000305176
313.4414886,-140.220001220703
313.4571136,-164.410003662109
313.4727386,-184.729995727539
313.4883636,-201.889999389648
313.5039886,-215.089996337891
313.5196136,-222.770004272461
313.5352386,-224.399993896484
313.5508636,-221.169998168945
313.5664886,-215.339996337891
313.5821136,-209.100006103516
313.5977386,-203.839996337891
313.6133636,-200.330001831055
313.6289886,-199.039993286133
313.6446136,-200.240005493164
313.6602386,-203.690002441406
313.6758636,-208.660003662109
313.6914886,-214.259994506836
313.7071136,-219.779998779297
313.7227386,-224.800003051758
313.7383636,-229.199996948242
313.7539886,-233.039993286133
313.7696136,-236.289993286133
313.7852386,-238.800003051758
313.8008636,-240.350006103516
313.8164886,-240.929992675781
313.8321136,-240.929992675781
313.8477386,-241.009994506836
313.8633636,-241.800003051758
313.8789886,-243.520004272461
313.8946136,-245.990005493164
313.9102386,-248.910003662109
313.9258636,-252.149993896484
313.9414886,-255.710006713867
313.9571136,-259.480010986328
313.9727386,-263.0
313.9883636,-265.630004882813
314.0039886,-266.970001220703
314.0196136,-267.040008544922
314.0352386,-266.190002441406
314.0508636,-264.769989013672
314.0664886,-262.950012207031
314.0821136,-260.730010986328
314.0977386,-258.0
314.1133636,-254.580001831055
314.1289886,-250.190002441406
314.1446136,-244.600006103516
314.1602386,-237.850006103516
314.1758636,-230.25
314.1914886,-222.160003662109
314.2071136,-213.940002441406
314.2227386,-205.940002441406
314.2383636,-198.619995117188
314.2539886,-192.449996948242
314.2696136,-187.679992675781
314.2852386,-184.179992675781
314.3008636,-181.440002441406
314.3164886,-179.0
314.3321136,-177.050003051758
314.3477386,-180.020004272461
314.3633636,-185.589996337891
314.3789886,-194.210006713867
314.3946136,-205.149993896484
314.4102386,-217.059997558594
314.4258636,-228.679992675781
314.4414886,-239.039993286133
314.4571136,-247.070007324219
314.4727386,-251.300003051758
314.4883636,-250.699996948242
314.5039886,-245.729995727539
314.5196136,-238.149993896484
314.5352386,-229.850006103516
314.5508636,-221.949996948242
314.5664886,-214.639999389648
314.5821136,-207.559997558594
314.5977386,-200.339996337891
314.6133636,-193.059997558594
314.6289886,-186.429992675781
314.6446136,-181.25
314.6602386,-177.979995727539
314.6758636,-177.039993286133
314.6914886,-179.300003051758
314.7071136,-185.570007324219
314.7227386,-195.460006713867
314.7383636,-206.820007324219
314.7539886,-216.429992675781
314.7696136,-221.949996948242
314.7852386,-223.350006103516
314.8008636,-221.860000610352
314.8164886,-217.990005493164
314.8321136,-211.179992675781
314.8477386,-200.940002441406
314.8633636,-187.679992675781
314.8789886,-172.600006103516
314.8946136,-157.029998779297
314.9102386,-141.869995117188
314.9258636,-127.360000610352
314.9414886,-113.400001525879
314.9571136,-99.9199981689453
314.9727386,-87.1500015258789
314.9883636,-75.4599990844727
315.0039886,-64.8600006103516
315.0196136,-54.6100006103516
315.0352386,-43.2400016784668
315.0508636,-29.4500007629395
315.0664886,-12.8999996185303
315.0821136,5.69999980926514
315.0977386,25.4099998474121
315.1133636,45.6399993896484
315.1289886,66.2699966430664
315.1446136,87.379997253418
315.1602386,108.839996337891
315.1758636,130.229995727539
315.1914886,151.070007324219
315.2071136,170.929992675781
315.2227386,189.460006713867
315.2383636,206.339996337891
315.2539886,221.169998168945
315.2696136,233.729995727539
315.2852386,244.199996948242
315.3008636,253.089996337891
315.3164886,260.989990234375
315.3321136,268.290008544922
315.3477386,271.0
315.3633636,273.040008544922
315.3789886,274.290008544922
315.3946136,274.609985351563
315.4102386,273.859985351563
315.4258636,271.980010986328
315.4414886,269.119995117188
315.4571136,265.779998779297
315.4727386,262.600006103516
315.4883636,259.920013427734
315.5039886,257.540008544922
315.5196136,255.029998779297
315.5352386,252.270004272461
315.5508636,249.5
315.5664886,247.050003051758
315.5821136,245.029998779297
315.5977386,243.380004882813
315.6133636,242.059997558594
315.6289886,241.210006713867
315.6446136,241.039993286133
315.6602386,241.619995117188
315.6758636,243.029998779297
315.6914886,245.479995727539
315.7071136,249.179992675781
315.7227386,254.0
315.7383636,259.369995117188
315.7539886,264.649993896484
315.7696136,269.519989013672
315.7852386,274.220001220703
315.8008636,278.929992675781
315.8164886,283.269989013672
315.8321136,286.429992675781
315.8477386,287.790008544922
315.8633636,287.339996337891
315.8789886,285.510009765625
315.8946136,282.700012207031
315.9102386,278.920013427734
315.9258636,273.910003662109
315.9414886,267.600006103516
315.9571136,260.170013427734
315.9727386,251.970001220703
315.9883636,243.350006103516
316.0039886,234.580001831055
316.0196136,225.820007324219
316.0352386,217.119995117188
316.0508636,208.5
316.0664886,200.050003051758
316.0821136,191.910003662109
316.0977386,184.259994506836
316.1133636,177.210006713867
316.1289886,170.710006713867
316.1446136,164.539993286133
316.1602386,158.389999389648
316.1758636,151.679992675781
316.1914886,143.460006713867
316.2071136,132.979995727539
316.2227386,120.23999786377
316.2383636,106.059997558594
316.2539886,91.6100006103516
316.2696136,77.8899993896484
316.2852386,65.4599990844727
316.3008636,54.6500015258789
316.3164886,45.8899993896484
316.3321136,39.4099998474121
316.3477386,34.1800003051758
316.3633636,30.0400009155273
316.3789886,25.9599990844727
316.3946136,21.3899993896484
316.4102386,16.3099994659424
316.4258636,11.039999961853
316.4414886,5.94000005722046
316.4571136,1.22000002861023
316.4727386,-3.07999992370605
316.4883636,-7.1100001335144
316.5039886,-11.0
316.5196136,-14.960000038147
316.5352386,-19.2700004577637
316.5508636,-24.1399993896484
316.5664886,-29.5
316.5821136,-34.9700012207031
316.5977386,-40.0200004577637
316.6133636,-44.4700012207031
316.6289886,-48.7700004577637
316.6446136,-53.5699996948242
316.6602386,-59.0299987792969
316.6758636,-64.75
316.6914886,-70.0899963378906
316.7071136,-74.6500015258789
316.7227386,-78.3600006103516
316.7383636,-81.4499969482422
316.7539886,-84.2300033569336
316.7696136,-86.9400024414063
316.7852386,-89.6800003051758
316.8008636,-92.5899963378906
316.8164886,-95.9000015258789
316.8321136,-99.8099975585938
316.8477386,-104.23999786377
316.8633636,-108.610000610352
316.8789886,-111.930000305176
316.8946136,-113.480003356934
316.9102386,-113.360000610352
316.9258636,-112.230003356934
316.9414886,-110.690002441406
316.9571136,-108.910003662109
316.9727386,-106.860000610352
316.9883636,-104.48999786377
317.0039886,-101.870002746582
317.0196136,-99.2399978637695
317.0352386,-96.9100036621094
317.0508636,-95.1500015258789
317.0664886,-93.9899978637695
317.0821136,-93.2300033569336
317.0977386,-92.5999984741211
317.1133636,-91.8600006103516
317.1289886,-90.8399963378906
317.1446136,-89.2900009155273
317.1602386,-86.7699966430664
317.1758636,-82.7900009155273
317.1914886,-77.129997253418
317.2071136,-70.0500030517578
317.2227386,-62.1300010681152
317.2383636,-53.8800010681152
317.2539886,-45.4199981689453
317.2696136,-36.5800018310547
317.2852386,-27.3299999237061
317.3008636,-17.9599990844727
317.3164886,-9.03999996185303
317.3321136,-1.04999995231628
317.3477386,5.80000019073486
317.3633636,11.5100002288818
317.3789886,16.1100006103516
317.3946136,19.5100002288818
317.4102386,21.7099990844727
317.4258636,22.9400005340576
317.4414886,23.6000003814697
317.4571136,24.0799999237061
317.4727386,24.6900005340576
317.4883636,25.5699996948242
317.5039886,26.6599998474121
317.5196136,27.7900009155273
317.5352386,28.7600002288818
317.5508636,29.4300003051758
317.5664886,29.7600002288818
317.5821136,29.6900005340576
317.5977386,29.0900001525879
317.6133636,27.8600006103516
317.6289886,26.0900001525879
317.6446136,24.0799999237061
317.6602386,22.1299991607666
317.6758636,20.4400005340576
317.6914886,19.0599994659424
317.7071136,17.8899993896484
317.7227386,16.7900009155273
317.7383636,15.6599998474121
