Time(s),Value(%)
307.0039886,-57.6599998474121
307.0196136,-56.4099998474121
307.0352386,-54.4199981689453
307.0508636,-52.7900009155273
307.0664886,-51.8199996948242
307.0821136,-51.0200004577637
307.0977386,-49.7999992370605
307.1133636,-48.0299987792969
307.1289886,-45.939998626709
307.1446136,-43.5499992370605
307.1602386,-40.3899993896484
307.1758636,-35.8400001525879
307.1914886,-29.6499996185303
307.2071136,-22.2900009155273
307.2227386,-14.8199996948242
307.2383636,-8.5600004196167
307.2539886,-4.40999984741211
307.2696136,-2.24000000953674
307.2852386,-0.259999990463257
307.3008636,4.63000011444092
307.3164886,15.25
307.3321136,32.2000007629395
307.3477386,53.3899993896484
307.3633636,74.9100036621094
307.3789886,92.5
307.3946136,103.150001525879
307.4102386,106.209999084473
307.4258636,103.410003662109
307.4414886,97.620002746582
307.4571136,91.129997253418
307.4727386,84.5899963378906
307.4883636,77.1600036621094
307.5039886,67.5999984741211
307.5196136,55.3199996948242
307.5352386,40.6199989318848
307.5508636,24.5400009155273
307.5664886,8.57999992370605
307.5821136,-5.82000017166138
307.5977386,-17.5900001525879
307.6133636,-26.1700000762939
307.6289886,-31.7399997711182
307.6446136,-35.2599983215332
307.6602386,-37.9700012207031
307.6758636,-40.8800010681152
307.6914886,-44.5699996948242
307.7071136,-48.7700004577637
307.7227386,-52.3499984741211
307.7383636,-54.1300010681152
307.7539886,-53.8600006103516
307.7696136,-52.4099998474121
307.7852386,-50.9199981689453
307.8008636,-49.9599990844727
307.8164886,-49.4799995422363
307.8321136,-49.1699981689453
307.8477386,-48.7099990844727
307.8633636,-48.0200004577637
307.8789886,-47.0699996948242
307.8946136,-45.75
307.9102386,-44.1100006103516
307.9258636,-42.3400001525879
307.9414886,-40.2900009155273
307.9571136,-37.4199981689453
307.9727386,-33.4199981689453
307.9883636,-28.6000003814697
308.0039886,-23.9300003051758
308.0196136,-20.6100006103516
308.0352386,-19.3899993896484
308.0508636,-19.3199996948242
308.0664886,-17.1000003814697
308.0821136,-8.34000015258789
308.0977386,9.43000030517578
308.1133636,34.5800018310547
308.1289886,61.6800003051758
308.1446136,84.3399963378906
308.1602386,98.2200012207031
308.1758636,102.589996337891
308.1914886,99.8300018310547
308.2071136,93.6699981689453
308.2227386,86.9800033569336
308.2383636,80.6699981689453
308.2539886,74.2600021362305
308.2696136,67.2900009155273
308.2852386,59.9000015258789
308.3008636,52.1300010681152
308.3164886,43.3400001525879
308.3321136,32.4700012207031
308.3477386,19.1599998474121
308.3633636,4.44000005722046
308.3789886,-9.72999954223633
308.3946136,-21.5699996948242
308.4102386,-30.3600006103516
308.4258636,-36.5499992370605
308.4414886,-41.2799987792969
308.4571136,-45.5499992370605
308.4727386,-49.7999992370605
308.4883636,-53.9700012207031
308.5039886,-57.6500015258789
308.5196136,-60.2099990844727
308.5352386,-61.0099983215332
308.5508636,-59.810001373291
308.5664886,-56.9500007629395
308.5821136,-53.0900001525879
308.5977386,-48.6800003051758
308.6133636,-43.8699989318848
308.6289886,-38.7700004577637
308.6446136,-33.8699989318848
308.6602386,-29.8099994659424
308.6758636,-26.7199993133545
308.6914886,-24.1000003814697
308.7071136,-21.6100006103516
308.7227386,-19.6200008392334
308.7383636,-18.8400001525879
308.7539886,-19.2700004577637
308.7696136,-19.6100006103516
308.7852386,-17.3500003814697
308.8008636,-9.69999980926514
308.8164886,4.8600001335144
308.8321136,25.3400001525879
308.8477386,48.2900009155273
308.8633636,69.3300018310547
308.8789886,84.879997253418
308.8946136,93.4199981689453
308.9102386,95.5699996948242
308.9258636,93.4499969482422
308.9414886,89.5
308.9571136,85.2600021362305
308.9727386,80.7699966430664
308.9883636,75.3000030517578
309.0039886,68.370002746582
309.0196136,59.8400001525879
309.0352386,49.2700004577637
309.0508636,35.9900016784668
309.0664886,20.1000003814697
309.0821136,3.00999999046326
309.0977386,-13.0
309.1133636,-25.75
309.1289886,-34.0200004577637
309.1446136,-37.9700012207031
309.1602386,-38.939998626709
309.1758636,-38.9300003051758
309.1914886,-39.8400001525879
309.2071136,-42.7400016784668
309.2227386,-47.5299987792969
309.2383636,-53.3199996948242
309.2539886,-58.8800010681152
309.2696136,-62.810001373291
309.2852386,-63.8899993896484
309.3008636,-61.8899993896484
309.3164886,-57.8499984741211
309.3321136,-53.5099983215332
309.3477386,-50.2799987792969
309.3633636,-48.5200004577637
309.3789886,-47.6800003051758
309.3946136,-46.7999992370605
309.4102386,-44.75
309.4258636,-40.5800018310547
309.4414886,-34.1599998474121
309.4571136,-26.4899997711182
309.4727386,-19.3099994659424
309.4883636,-14.3500003814697
309.5039886,-12.5799999237061
309.5196136,-13.4399995803833
309.5352386,-14.5
309.5508636,-11.960000038147
309.5664886,-2.3199999332428
309.5821136,15.1400003433228
309.5977386,37.3600006103516
309.6133636,59.060001373291
309.6289886,75.7900009155273
309.6446136,85.9199981689453
309.6602386,90.5299987792969
309.6758636,92.0
309.6914886,92.3899993896484
309.7071136,92.4199981689453
309.7227386,91.7099990844727
309.7383636,89.5999984741211
309.7539886,85.6800003051758
309.7696136,79.7399978637695
309.7852386,71.3499984741211
309.8008636,59.7599983215332
309.8164886,44.5900001525879
309.8321136,26.7700004577637
309.8477386,8.39999961853027
309.8633636,-8.23999977111816
309.8789886,-21.5100002288818
309.8946136,-30.7600002288818
309.9102386,-36.6500015258789
309.9258636,-40.7400016784668
309.9414886,-44.689998626709
309.9571136,-49.3400001525879
309.9727386,-54.310001373291
309.9883636,-58.3600006103516
310.0039886,-60.4799995422363
310.0196136,-60.6699981689453
310.0352386,-59.6800003051758
310.0508636,-58.2099990844727
310.0664886,-56.7799987792969
310.0821136,-55.6100006103516
310.0977386,-54.2400016784668
310.1133636,-51.7700004577637
310.1289886,-47.8600006103516
310.1446136,-43.2000007629395
310.1602386,-39.0299987792969
310.1758636,-36.2299995422363
310.1914886,-34.9900016784668
310.2071136,-35.0400009155273
310.2227386,-36.0299987792969
310.2383636,-37.439998626709
310.2539886,-38.4099998474121
310.2696136,-37.7700004577637
310.2852386,-33.8199996948242
310.3008636,-24.2700004577637
310.3164886,-7.28999996185303
310.3321136,16.6100006103516
310.3477386,43.810001373291
310.3633636,69.0500030517578
310.3789886,88.0299987792969
310.3946136,99.0800018310547
310.4102386,103.080001831055
310.4258636,102.139999389648
310.4414886,98.4199981689453
310.4571136,93.4899978637695
310.4727386,88.120002746582
310.4883636,82.25
310.5039886,75.0999984741211
310.5196136,65.6800003051758
310.5352386,53.5900001525879
310.5508636,39.3499984741211
310.5664886,24.25
310.5821136,9.85000038146973
310.5977386,-2.48000001907349
310.6133636,-11.9799995422363
310.6289886,-18.6599998474121
310.6446136,-23.4599990844727
310.6602386,-27.8199996948242
310.6758636,-32.7400016784668
310.6914886,-38.1399993896484
310.7071136,-43.3699989318848
310.7227386,-47.7099990844727
310.7383636,-50.7700004577637
310.7539886,-52.5999984741211
310.7696136,-53.5
310.7852386,-53.6399993896484
310.8008636,-52.9300003051758
310.8164886,-51.2000007629395
310.8321136,-48.8800010681152
310.8477386,-46.9000015258789
310.8633636,-45.9300003051758
310.8789886,-45.9500007629395
310.8946136,-46.3600006103516
310.9102386,-46.1599998474121
310.9258636,-44.5
310.9414886,-41.1100006103516
310.9571136,-36.3400001525879
310.9727386,-31.0900001525879
310.9883636,-26.3299999237061
311.0039886,-22.0400009155273
311.0196136,-16.4200000762939
311.0352386,-6.71000003814697
311.0508636,9.02000045776367
311.0664886,30.2399997711182
311.0821136,53.5999984741211
311.0977386,74.3099975585938
311.1133636,88.4400024414063
311.1289886,94.7600021362305
311.1446136,94.9599990844727
311.1602386,92.3399963378906
311.1758636,89.9100036621094
311.1914886,88.8899993896484
311.2071136,88.2399978637695
311.2227386,85.4300003051758
311.2383636,78.1900024414063
311.2539886,65.8000030517578
311.2696136,49.0900001525879
311.2852386,29.8600006103516
311.3008636,10.3900003433228
311.3164886,-6.78999996185303
311.3321136,-19.7399997711182
311.3477386,-27.9799995422363
311.3633636,-32.7099990844727
311.3789886,-35.9300003051758
311.3946136,-39.439998626709
311.4102386,-44.1500015258789
311.4258636,-49.7599983215332
311.4414886,-55.0900001525879
311.4571136,-58.8400001525879
311.4727386,-60.2799987792969
311.4883636,-59.6500015258789
311.5039886,-57.9199981689453
311.5196136,-56.2400016784668
311.5352386,-55.0099983215332
311.5508636,-53.7599983215332
311.5664886,-51.9000015258789
311.5821136,-49.4000015258789
311.5977386,-46.6300010681152
311.6133636,-43.7799987792969
311.6289886,-40.7900009155273
311.6446136,-37.7000007629395
311.6602386,-34.6500015258789
311.6758636,-31.6100006103516
311.6914886,-28.4099998474121
311.7071136,-25.2000007629395
311.7227386,-21.9699993133545
311.7383636,-17.5300006866455
311.7539886,-9.42000007629395
311.7696136,4.46999979019165
311.7852386,24.1200008392334
311.8008636,46.7700004577637
311.8164886,68.3000030517578
311.8321136,85.3000030517578
311.8477386,96.4000015258789
311.8633636,102.319999694824
311.8789886,104.879997253418
311.8946136,105.720001220703
311.9102386,105.639999389648
311.9258636,104.580001831055
311.9414886,102.01000213623
311.9571136,97.1999969482422
311.9727386,89.3600006103516
311.9883636,77.7799987792969
312.0039886,62.2200012207031
312.0196136,43.0800018310547
312.0352386,21.5400009155273
312.0508636,-0.300000011920929
312.0664886,-19.4500007629395
312.0821136,-33.0900001525879
312.0977386,-40.4500007629395
312.1133636,-43.5
312.1289886,-45.3800010681152
312.1446136,-48.1199989318848
312.1602386,-51.7599983215332
312.1758636,-55.2599983215332
312.1914886,-57.8400001525879
312.2071136,-59.5400009155273
312.2227386,-60.8699989318848
312.2383636,-62.2700004577637
312.2539886,-63.6199989318848
312.2696136,-64.129997253418
312.2852386,-62.7799987792969
312.3008636,-59.25
312.3164886,-54.4199981689453
312.3321136,-49.75
312.3477386,-46.2299995422363
312.3633636,-44.060001373291
312.3789886,-43.0
312.3946136,-42.3699989318848
312.4102386,-41.0999984741211
312.4258636,-38.3199996948242
312.4414886,-34.1699981689453
312.4571136,-29.5300006866455
312.4727386,-24.6599998474121
312.4883636,-17.8700008392334
312.5039886,-6.55000019073486
312.5196136,10.3800001144409
312.5352386,31.1000003814697
312.5508636,51.7599983215332
312.5664886,68.6800003051758
312.5821136,80.0599975585938
312.5977386,86.379997253418
312.6133636,89.3199996948242
312.6289886,90.2600021362305
312.6446136,89.6999969482422
312.6602386,87.8600006103516
312.6758636,85.129997253418
312.6914886,81.7300033569336
312.7071136,77.0899963378906
312.7227386,69.9400024414063
312.7383636,59.060001373291
312.7539886,44.2200012207031
312.7696136,26.5400009155273
312.7852386,8.28999996185303
312.8008636,-7.73000001907349
312.8164886,-19.5499992370605
312.8321136,-27.0599994659424
312.8477386,-31.9300003051758
312.8633636,-36.2400016784668
312.8789886,-41.2000007629395
312.8946136,-46.8400001525879
312.9102386,-52.6500015258789
312.9258636,-58.060001373291
312.9414886,-62.7900009155273
312.9571136,-66.75
312.9727386,-69.8399963378906
312.9883636,-71.8199996948242
313.0039886,-72.2399978637695
313.0196136,-70.5400009155273
313.0352386,-66.5500030517578
313.0508636,-60.7999992370605
313.0664886,-54.2700004577637
313.0821136,-47.9099998474121
313.0977386,-42.4300003051758
313.1133636,-37.9599990844727
313.1289886,-34.0400009155273
313.1446136,-29.9400005340576
313.1602386,-25.0599994659424
313.1758636,-19.1200008392334
313.1914886,-11.8100004196167
313.2071136,-2.25
313.2227386,10.9300003051758
313.2383636,28.1000003814697
313.2539886,47.4700012207031
313.2696136,65.629997253418
313.2852386,79.1900024414063
313.3008636,86.5699996948242
313.3164886,88.5899963378906
313.3321136,87.7200012207031
313.3477386,86.6600036621094
313.3633636,86.8399963378906
313.3789886,87.4499969482422
313.3946136,85.9499969482422
313.4102386,80.0899963378906
313.4258636,69.379997253418
313.4414886,54.8899993896484
313.4571136,38.1399993896484
313.4727386,20.4500007629395
313.4883636,3.23000001907349
313.5039886,-11.8299999237061
313.5196136,-23.2900009155273
313.5352386,-30.5699996948242
313.5508636,-34.2099990844727
313.5664886,-35.560001373291
313.5821136,-36.189998626709
313.5977386,-37.3800010681152
313.6133636,-39.8499984741211
313.6289886,-43.8300018310547
313.6446136,-49.0999984741211
313.6602386,-54.8600006103516
313.6758636,-59.8800010681152
313.6914886,-63.2599983215332
313.7071136,-64.9300003051758
313.7227386,-65.1800003051758
313.7383636,-63.8300018310547
313.7539886,-60.1800003051758
313.7696136,-53.8199996948242
313.7852386,-45.3699989318848
313.8008636,-36.6800003051758
313.8164886,-29.9599990844727
313.8321136,-26.6800003051758
313.8477386,-27.0400009155273
313.8633636,-30.2199993133545
313.8789886,-34.7400016784668
313.8946136,-38.7200012207031
313.9102386,-39.7299995422363
313.9258636,-35.0400009155273
313.9414886,-22.4899997711182
313.9571136,-1.9099999666214
313.9727386,24.0300006866455
313.9883636,50.3800010681152
314.0039886,72.120002746582
314.0196136,86.7799987792969
314.0352386,95.0999984741211
314.0508636,99.5400009155273
314.0664886,102.389999389648
314.0821136,104.400001525879
314.0977386,104.809997558594
314.1133636,102.449996948242
314.1289886,96.8600006103516
314.1446136,88.3499984741211
314.1602386,77.2300033569336
314.1758636,63.2299995422363
314.1914886,45.9700012207031
314.2071136,26.2999992370605
314.2227386,6.82000017166138
314.2383636,-9.52999973297119
314.2539886,-21.2900009155273
314.2696136,-28.8199996948242
314.2852386,-33.6100006103516
314.3008636,-37.3400001525879
314.3164886,-41.1100006103516
314.3321136,-45.1199989318848
314.3477386,-48.9700012207031
314.3633636,-52.310001373291
314.3789886,-54.9099998474121
314.3946136,-56.5900001525879
314.4102386,-57.310001373291
314.4258636,-57.1800003051758
314.4414886,-56.060001373291
314.4571136,-53.3499984741211
314.4727386,-48.810001373291
314.4883636,-43.3899993896484
314.5039886,-38.7400016784668
314.5196136,-35.9799995422363
314.5352386,-35.1199989318848
314.5508636,-35.3499984741211
314.5664886,-35.7999992370605
314.5821136,-35.8400001525879
314.5977386,-35.0800018310547
314.6133636,-33.2200012207031
314.6289886,-30.25
314.6446136,-26.0699996948242
314.6602386,-19.7000007629395
314.6758636,-9.27999973297119
314.6914886,6.51000022888184
314.7071136,26.9200000762939
314.7227386,48.8899993896484
314.7383636,68.4300003051758
314.7539886,82.5299987792969
314.7696136,90.4800033569336
314.7852386,93.6999969482422
314.8008636,94.2799987792969
314.8164886,93.6100006103516
314.8321136,91.7799987792969
314.8477386,88.25
314.8633636,82.6399993896484
314.8789886,74.8899993896484
314.8946136,64.7799987792969
314.9102386,51.8899993896484
314.9258636,36.3400001525879
314.9414886,19.3500003814697
314.9571136,2.86999988555908
314.9727386,-11.3299999237061
314.9883636,-22.2399997711182
315.0039886,-29.75
315.0196136,-34.6599998474121
315.0352386,-38.310001373291
315.0508636,-42.0499992370605
315.0664886,-46.7400016784668
315.0821136,-52.6699981689453
315.0977386,-59.310001373291
315.1133636,-65.2799987792969
315.1289886,-68.8399963378906
315.1446136,-68.7300033569336
315.1602386,-64.9000015258789
315.1758636,-58.5699996948242
315.1914886,-51.6500015258789
315.2071136,-45.7700004577637
315.2227386,-41.6599998474121
315.2383636,-39.0699996948242
315.2539886,-37.3899993896484
315.2696136,-36.3600006103516
315.2852386,-35.9000015258789
315.3008636,-35.439998626709
315.3164886,-33.9900016784668
315.3321136,-31.0
315.3477386,-26.6000003814697
315.3633636,-20.6499996185303
315.3789886,-12.0799999237061
315.3946136,0.46000000834465
315.4102386,17.3500003814697
315.4258636,37.2400016784668
315.4414886,57.4000015258789
315.4571136,74.9800033569336
315.4727386,88.2099990844727
315.4883636,96.6900024414063
315.5039886,100.550003051758
315.5196136,100.029998779297
315.5352386,95.5800018310547
315.5508636,87.8499984741211
315.5664886,77.3199996948242
315.5821136,64.5199966430664
315.5977386,50.3899993896484
315.6133636,36.2700004577637
315.6289886,23.3500003814697
315.6446136,12.1700000762939
315.6602386,2.40000009536743
315.6758636,-7.0
315.6914886,-16.9400005340576
315.7071136,-27.4400005340576
315.7227386,-37.5999984741211
315.7383636,-46.0800018310547
315.7539886,-51.7000007629395
315.7696136,-53.8499984741211
315.7852386,-52.6699981689453
315.8008636,-48.8600006103516
315.8164886,-43.5200004577637
315.8321136,-38.0499992370605
315.8477386,-33.9700012207031
315.8633636,-32.5200004577637
315.8789886,-33.9500007629395
315.8946136,-37.2700004577637
315.9102386,-40.3600006103516
315.9258636,-40.9700012207031
315.9414886,-37.8800010681152
315.9571136,-31.5799999237061
315.9727386,-24.0100002288818
315.9883636,-17.5499992370605
316.0039886,-14.0799999237061
316.0196136,-14.3000001907349
316.0352386,-17.4799995422363
316.0508636,-21.8199996948242
316.0664886,-25.1299991607666
316.0821136,-25.1499996185303
316.0977386,-19.5799999237061
316.1133636,-6.94999980926514
316.1289886,11.8500003814697
316.1446136,33.5299987792969
316.1602386,54.1300010681152
316.1758636,70.6800003051758
316.1914886,81.7900009155273
316.2071136,87.370002746582
316.2227386,88.129997253418
316.2383636,85.2799987792969
316.2539886,80.5199966430664
316.2696136,75.7600021362305
316.2852386,72.3000030517578
316.3008636,70.0599975585938
316.3164886,67.629997253418
316.3321136,63.1300010681152
316.3477386,54.9300003051758
316.3633636,42.1500015258789
316.3789886,25.2900009155273
316.3946136,6.71000003814697
316.4102386,-10.0100002288818
316.4258636,-22.2000007629395
316.4414886,-29.7999992370605
316.4571136,-34.939998626709
316.4727386,-39.8499984741211
316.4883636,-45.2999992370605
316.5039886,-50.7400016784668
316.5196136,-55.3899993896484
316.5352386,-58.689998626709
316.5508636,-60.2200012207031
316.5664886,-59.8199996948242
316.5821136,-57.8800010681152
316.5977386,-55.0900001525879
316.6133636,-52.0299987792969
316.6289886,-48.9000015258789
316.6446136,-45.8600006103516
316.6602386,-43.4500007629395
316.6758636,-42.5099983215332
316.6914886,-43.6199989318848
316.7071136,-46.4900016784668
316.7227386,-49.689998626709
316.7383636,-51.189998626709
316.7539886,-49.5699996948242
316.7696136,-45.0099983215332
316.7852386,-38.6500015258789
316.8008636,-30.9699993133545
316.8164886,-21.1499996185303
316.8321136,-7.8600001335144
316.8477386,9.35999965667725
316.8633636,29.25
316.8789886,49.0299987792969
316.8946136,65.5899963378906
316.9102386,76.7200012207031
316.9258636,81.9700012207031
316.9414886,82.4599990844727
316.9571136,80.2200012207031
316.9727386,77.1800003051758
316.9883636,74.3899993896484
317.0039886,71.9000015258789
317.0196136,69.3099975585938
317.0352386,65.9400024414063
317.0508636,60.5800018310547
317.0664886,51.6699981689453
317.0821136,38.1599998474121
317.0977386,20.4899997711182
317.1133636,0.860000014305115
317.1289886,-17.4400005340576
317.1446136,-31.3999996185303
317.1602386,-39.3899993896484
317.1758636,-41.9599990844727
317.1914886,-41.3300018310547
317.2071136,-39.9500007629395
317.2227386,-39.2999992370605
317.2383636,-39.7200012207031
317.2539886,-41.0499992370605
317.2696136,-43.1199989318848
317.2852386,-45.5099983215332
317.3008636,-47.4700012207031
317.3164886,-48.2400016784668
317.3321136,-47.7299995422363
317.3477386,-46.6300010681152
317.3633636,-45.8899993896484
317.3789886,-46.0
317.3946136,-46.7900009155273
317.4102386,-47.810001373291
317.4258636,-48.7000007629395
317.4414886,-49.0699996948242
317.4571136,-48.2000007629395
317.4727386,-45.2400016784668
317.4883636,-39.7999992370605
317.5039886,-31.8799991607666
317.5196136,-21.3299999237061
317.5352386,-7.82999992370605
317.5508636,8.63000011444092
317.5664886,27.2600002288818
317.5821136,46.3199996948242
317.5977386,63.5800018310547
317.6133636,77.120002746582
317.6289886,85.8199996948242
317.6446136,89.3000030517578
317.6602386,87.8300018310547
317.6758636,82.4499969482422
317.6914886,75.120002746582
317.7071136,68.0500030517578
