Time(s),Value(%)
1342.0137919,-24.0900001525879
1342.0294169,-21.9699993133545
1342.0450419,-20.3299999237061
1342.0606669,-18.8899993896484
1342.0762919,-16.5799999237061
1342.0919169,-11.6400003433228
1342.1075419,-2.72000002861023
1342.1231669,9.94999980926514
1342.1387919,24.4599990844727
1342.1544169,38.2799987792969
1342.1700419,49.5099983215332
1342.1856669,57.4900016784668
1342.2012919,62.5400009155273
1342.2169169,65.3099975585938
1342.2325419,66.2200012207031
1342.2481669,65.2399978637695
1342.2637919,61.9500007629395
1342.2794169,55.8800010681152
1342.2950419,47.060001373291
1342.3106669,36.2200012207031
1342.3262919,24.6800003051758
1342.3419169,13.9300003051758
1342.3575419,5.05000019073486
1342.3731669,-1.57000005245209
1342.3887919,-6.25
1342.4044169,-9.60000038146973
1342.4200419,-12.3599996566772
1342.4356669,-15.3100004196167
1342.4512919,-19.0
1342.4669169,-23.4500007629395
1342.4825419,-28.0
1342.4981669,-31.8199996948242
1342.5137919,-34.4599990844727
1342.5294169,-36.060001373291
1342.5450419,-37.0400009155273
1342.5606669,-37.75
1342.5762919,-38.3899993896484
1342.5919169,-38.9900016784668
1342.6075419,-39.2999992370605
1342.6231669,-38.8300018310547
1342.6387919,-37.1699981689453
1342.6544169,-34.4599990844727
1342.6700419,-31.3700008392334
1342.6856669,-28.8099994659424
1342.7012919,-27.5200004577637
1342.7169169,-27.6100006103516
1342.7325419,-28.6499996185303
1342.7481669,-29.8199996948242
1342.7637919,-29.9400005340576
1342.7794169,-27.5499992370605
1342.7950419,-21.2800006866455
1342.8106669,-10.539999961853
1342.8262919,4.0
1342.8419169,20.6399993896484
1342.8575419,37.0900001525879
1342.8731669,51.0999984741211
1342.8887919,60.9500007629395
1342.9044169,65.9400024414063
1342.9200419,66.4000015258789
1342.9356669,63.5800018310547
1342.9512919,59.1199989318848
1342.9669169,54.2400016784668
1342.9825419,49.3499984741211
1342.9981669,44.2299995422363
1343.0137919,38.5999984741211
1343.0294169,32.2400016784668
1343.0450419,24.9599990844727
1343.0606669,16.7299995422363
1343.0762919,8.01000022888184
1343.0919169,-0.280000001192093
1343.1075419,-7.19999980926514
1343.1231669,-12.3599996566772
1343.1387919,-16.1200008392334
1343.1544169,-19.1399993896484
1343.1700419,-21.6599998474121
1343.1856669,-23.5200004577637
1343.2012919,-24.5200004577637
1343.2169169,-24.8999996185303
1343.2325419,-25.5400009155273
1343.2481669,-27.5400009155273
1343.2637919,-31.5400009155273
1343.2794169,-37.1100006103516
1343.2950419,-42.8800010681152
1343.3106669,-47.2299995422363
1343.3262919,-49.1300010681152
1343.3419169,-48.6100006103516
1343.3575419,-46.5999984741211
1343.3731669,-44.2200012207031
1343.3887919,-42.2999992370605
1343.4044169,-41.1500015258789
1343.4200419,-40.5200004577637
1343.4356669,-39.6599998474121
1343.4512919,-37.7599983215332
1343.4669169,-34.6399993896484
1343.4825419,-30.7600002288818
1343.4981669,-26.3899993896484
1343.5137919,-20.5
1343.5294169,-11.1099996566772
1343.5450419,2.99000000953674
1343.5606669,20.7099990844727
1343.5762919,39.060001373291
1343.5919169,54.9700012207031
1343.6075419,66.6600036621094
1343.6231669,73.8199996948242
1343.6387919,76.9300003051758
1343.6544169,76.6999969482422
1343.6700419,73.8600006103516
1343.6856669,69.2300033569336
1343.7012919,63.6399993896484
1343.7169169,57.5200004577637
1343.7325419,50.6100006103516
1343.7481669,42.2200012207031
1343.7637919,32.0800018310547
1343.7794169,20.9799995422363
1343.7950419,10.539999961853
1343.8106669,2.36999988555908
1343.8262919,-2.86999988555908
1343.8419169,-5.69999980926514
1343.8575419,-7.48999977111816
1343.8731669,-9.71000003814697
1343.8887919,-13.1400003433228
1343.9044169,-17.6000003814697
1343.9200419,-22.3700008392334
1343.9356669,-26.8099994659424
1343.9512919,-30.6700000762939
1343.9669169,-34.060001373291
1343.9825419,-37.1199989318848
1343.9981669,-39.7900009155273
1344.0137919,-41.7299995422363
1344.0294169,-42.689998626709
1344.0450419,-42.8199996948242
1344.0606669,-42.4300003051758
1344.0762919,-41.7099990844727
1344.0919169,-40.6500015258789
1344.1075419,-39.1300010681152
1344.1231669,-37.1399993896484
1344.1387919,-34.9599990844727
1344.1544169,-32.8199996948242
1344.1700419,-30.5699996948242
1344.1856669,-27.9699993133545
1344.2012919,-25.25
1344.2169169,-22.9400005340576
1344.2325419,-20.9599990844727
1344.2481669,-17.9599990844727
1344.2637919,-11.8400001525879
1344.2794169,-0.930000007152557
1344.2950419,14.75
1344.3106669,33.1500015258789
1344.3262919,50.9700012207031
1344.3419169,65.129997253418
1344.3575419,73.8399963378906
1344.3731669,76.7399978637695
1344.3887919,74.7099990844727
1344.4044169,69.4700012207031
1344.4200419,62.8800010681152
1344.4356669,56.2000007629395
1344.4512919,49.75
1344.4669169,42.8899993896484
1344.4825419,34.7400016784668
1344.4981669,25.3700008392334
1344.5137919,16.2600002288818
1344.5294169,9.23999977111816
1344.5450419,5.05999994277954
1344.5606669,3.13000011444092
1344.5762919,2.25
1344.5919169,1.30999994277954
1344.6075419,-0.360000014305115
1344.6231669,-3.01999998092651
1344.6387919,-6.46000003814697
1344.6544169,-10.1599998474121
1344.6700419,-13.3999996185303
1344.6856669,-15.8100004196167
1344.7012919,-17.6800003051758
1344.7169169,-19.6100006103516
1344.7325419,-22.0400009155273
1344.7481669,-25.0499992370605
1344.7637919,-28.4799995422363
1344.7794169,-32.0800018310547
1344.7950419,-35.4000015258789
1344.8106669,-37.8600006103516
1344.8262919,-39.1199989318848
1344.8419169,-39.2700004577637
1344.8575419,-38.3800010681152
1344.8731669,-36.2299995422363
1344.8887919,-32.7299995422363
1344.9044169,-28.4400005340576
1344.9200419,-24.3700008392334
1344.9356669,-21.2700004577637
1344.9512919,-18.8799991607666
1344.9669169,-15.789999961853
1344.9825419,-10.039999961853
1344.9981669,-0.340000003576279
1345.0137919,13.1599998474121
1345.0294169,28.7900009155273
1345.0450419,43.9900016784668
1345.0606669,56.310001373291
1345.0762919,64.2799987792969
1345.0919169,67.4899978637695
1345.1075419,66.4000015258789
1345.1231669,62.0999984741211
1345.1387919,56.3400001525879
1345.1544169,51.0200004577637
1345.1700419,47.1500015258789
1345.1856669,44.2200012207031
1345.2012919,40.6800003051758
1345.2169169,34.9900016784668
1345.2325419,26.7099990844727
1345.2481669,16.7399997711182
1345.2637919,6.86999988555908
1345.2794169,-1.22000002861023
1345.2950419,-6.76000022888184
1345.3106669,-10.0500001907349
1345.3262919,-11.960000038147
1345.3419169,-13.4499998092651
1345.3575419,-15.4899997711182
1345.3731669,-18.9200000762939
1345.3887919,-23.9500007629395
1345.4044169,-29.7299995422363
1345.4200419,-34.6300010681152
1345.4356669,-37.2599983215332
1345.4512919,-37.5
1345.4669169,-36.4199981689453
1345.4825419,-35.3499984741211
1345.4981669,-35.2099990844727
1345.5137919,-36.4000015258789
1345.5294169,-38.7900009155273
1345.5450419,-41.5299987792969
1345.5606669,-43.2400016784668
1345.5762919,-42.7000007629395
1345.5919169,-39.6199989318848
1345.6075419,-34.7900009155273
1345.6231669,-29.3600006103516
1345.6387919,-24.2700004577637
1345.6544169,-19.9500007629395
1345.6700419,-16.6900005340576
1345.6856669,-14.7600002288818
1345.7012919,-14.0699996948242
1345.7169169,-13.6199998855591
1345.7325419,-11.4300003051758
1345.7481669,-5.44999980926514
1345.7637919,5.21000003814697
1345.7794169,19.6900005340576
1345.7950419,35.7200012207031
1345.8106669,50.7999992370605
1345.8262919,63.1800003051758
1345.8419169,72.2099990844727
1345.8575419,77.9899978637695
1345.8731669,80.7399978637695
1345.8887919,80.370002746582
1345.9044169,76.6999969482422
1345.9200419,70.1600036621094
1345.9356669,61.8899993896484
1345.9512919,52.8699989318848
1345.9669169,43.1100006103516
1345.9825419,32.060001373291
1345.9981669,19.6499996185303
1346.0137919,6.92999982833862
1346.0294169,-4.40999984741211
1346.0450419,-13.0799999237061
1346.0606669,-18.7900009155273
1346.0762919,-21.9899997711182
1346.0919169,-23.3799991607666
1346.1075419,-23.5200004577637
1346.1231669,-22.9200000762939
1346.1387919,-22.2299995422363
1346.1544169,-22.2099990844727
1346.1700419,-23.5699996948242
1346.1856669,-26.6299991607666
1346.2012919,-30.7900009155273
1346.2169169,-34.5400009155273
1346.2325419,-36.2999992370605
1346.2481669,-35.560001373291
1346.2637919,-33.1100006103516
1346.2794169,-30.2199993133545
1346.2950419,-27.9500007629395
1346.3106669,-26.9400005340576
1346.3262919,-27.4300003051758
1346.3419169,-29.4699993133545
1346.3575419,-32.939998626709
1346.3731669,-37.0499992370605
1346.3887919,-40.2099990844727
1346.4044169,-40.8899993896484
1346.4200419,-38.6399993896484
1346.4356669,-34.4099998474121
1346.4512919,-29.8600006103516
1346.4669169,-26.1700000762939
1346.4825419,-23.1000003814697
1346.4981669,-19.1599998474121
1346.5137919,-12.4099998474121
1346.5294169,-1.48000001907349
1346.5450419,13.25
1346.5606669,29.0900001525879
1346.5762919,42.1100006103516
1346.5919169,49.5699996948242
1346.6075419,51.5400009155273
1346.6231669,50.2799987792969
1346.6387919,48.4799995422363
1346.6544169,47.7599983215332
1346.6700419,48.1699981689453
1346.6856669,48.6699981689453
1346.7012919,48.1300010681152
1346.7169169,46.1300010681152
1346.7325419,42.8699989318848
1346.7481669,38.4700012207031
1346.7637919,32.5699996948242
1346.7794169,24.6800003051758
1346.7950419,14.9700002670288
1346.8106669,4.59000015258789
1346.8262919,-4.78999996185303
1346.8419169,-11.7399997711182
1346.8575419,-15.5699996948242
1346.8731669,-16.6700000762939
1346.8887919,-16.3600006103516
1346.9044169,-16.2000007629395
1346.9200419,-17.1399993896484
1346.9356669,-19.1399993896484
1346.9512919,-21.5900001525879
1346.9669169,-23.8099994659424
1346.9825419,-25.1900005340576
1346.9981669,-25.1399993896484
1347.0137919,-23.3199996948242
1347.0294169,-20.1800003051758
1347.0450419,-16.9400005340576
1347.0606669,-15.0100002288818
1347.0762919,-15.3599996566772
1347.0919169,-18.3700008392334
1347.1075419,-23.7299995422363
1347.1231669,-30.1000003814697
1347.1387919,-35.2000007629395
1347.1544169,-36.7099990844727
1347.1700419,-33.6699981689453
1347.1856669,-27.2999992370605
1347.2012919,-20.3400001525879
1347.2169169,-15.2700004577637
1347.2325419,-12.9700002670288
1347.2481669,-12.8599996566772
1347.2637919,-13.2200002670288
1347.2794169,-11.5500001907349
1347.2950419,-5.28000020980835
1347.3106669,6.5
1347.3262919,22.0
1347.3419169,37.2999992370605
1347.3575419,48.7099990844727
1347.3731669,54.5299987792969
1347.3887919,55.439998626709
1347.4044169,53.2400016784668
1347.4200419,49.6800003051758
1347.4356669,45.9500007629395
1347.4512919,42.6599998474121
1347.4669169,39.6100006103516
1347.4825419,35.9199981689453
1347.4981669,30.7999992370605
1347.5137919,24.3799991607666
1347.5294169,17.7700004577637
1347.5450419,12.2600002288818
1347.5606669,8.43000030517578
1347.5762919,5.84000015258789
1347.5919169,3.57999992370605
1347.6075419,0.769999980926514
1347.6231669,-3.05999994277954
1347.6387919,-7.98999977111816
1347.6544169,-13.7200002670288
1347.6700419,-19.5699996948242
1347.6856669,-24.3700008392334
1347.7012919,-27.0799999237061
1347.7169169,-27.6200008392334
1347.7325419,-26.9699993133545
1347.7481669,-26.4599990844727
1347.7637919,-26.7800006866455
1347.7794169,-27.4699993133545
1347.7950419,-27.2700004577637
1347.8106669,-25.2199993133545
1347.8262919,-21.5699996948242
1347.8419169,-17.8299999237061
1347.8575419,-15.6000003814697
1347.8731669,-15.460000038147
1347.8887919,-16.6200008392334
1347.9044169,-17.9300003051758
1347.9200419,-18.8799991607666
1347.9356669,-19.6000003814697
1347.9512919,-20.25
1347.9669169,-20.6200008392334
1347.9825419,-19.8600006103516
1347.9981669,-16.4500007629395
1348.0137919,-8.76000022888184
1348.0294169,3.6800000667572
1348.0450419,19.3799991607666
1348.0606669,35.1399993896484
1348.0762919,47.3600006103516
1348.0919169,53.4799995422363
1348.1075419,53.0999984741211
1348.1231669,47.9799995422363
1348.1387919,40.8800010681152
1348.1544169,34.310001373291
1348.1700419,29.7800006866455
1348.1856669,27.4099998474121
1348.2012919,26.1100006103516
1348.2169169,24.25
1348.2325419,20.6499996185303
1348.2481669,15.2299995422363
1348.2637919,9.06999969482422
1348.2794169,3.92000007629395
1348.2950419,1.30999994277954
1348.3106669,1.51999998092651
1348.3262919,2.99000000953674
1348.3419169,3.35999989509583
1348.3575419,1.30999994277954
1348.3731669,-2.79999995231628
1348.3887919,-7.55000019073486
1348.4044169,-11.4499998092651
1348.4200419,-13.8599996566772
1348.4356669,-15.4200000762939
1348.4512919,-17.3400001525879
1348.4669169,-20.1900005340576
1348.4825419,-23.4899997711182
1348.4981669,-26.3299999237061
1348.5137919,-28.1499996185303
1348.5294169,-28.8600006103516
1348.5450419,-28.6299991607666
1348.5606669,-27.7199993133545
1348.5762919,-26.3299999237061
1348.5919169,-24.7399997711182
1348.6075419,-23.1800003051758
1348.6231669,-21.5900001525879
1348.6387919,-19.6800003051758
1348.6544169,-17.2800006866455
1348.6700419,-14.4300003051758
1348.6856669,-11.1999998092651
1348.7012919,-7.65999984741211
1348.7169169,-3.9300000667572
1348.7325419,0.0
1348.7481669,4.28999996185303
1348.7637919,9.14999961853027
1348.7794169,14.6300001144409
1348.7950419,20.3400001525879
1348.8106669,25.6299991607666
1348.8262919,29.9899997711182
1348.8419169,33.1399993896484
1348.8575419,34.9700012207031
1348.8731669,35.6800003051758
1348.8887919,35.7099990844727
1348.9044169,35.3800010681152
1348.9200419,34.4799995422363
1348.9356669,32.5099983215332
1348.9512919,29.2800006866455
1348.9669169,24.9200000762939
1348.9825419,19.5599994659424
1348.9981669,13.2600002288818
1349.0137919,6.25
1349.0294169,-1.0
1349.0450419,-7.6100001335144
1349.0606669,-12.3699998855591
1349.0762919,-14.6300001144409
1349.0919169,-15.1199998855591
1349.1075419,-15.6499996185303
1349.1231669,-17.6599998474121
1349.1387919,-21.2299995422363
1349.1544169,-25.2099990844727
1349.1700419,-27.9899997711182
1349.1856669,-28.5699996948242
1349.2012919,-27.0400009155273
1349.2169169,-24.2600002288818
1349.2325419,-21.0200004577637
1349.2481669,-17.75
1349.2637919,-14.5799999237061
1349.2794169,-11.7399997711182
1349.2950419,-9.78999996185303
1349.3106669,-9.35000038146973
1349.3262919,-10.4700002670288
1349.3419169,-12.4499998092651
1349.3575419,-14.4399995803833
1349.3731669,-16.1599998474121
1349.3887919,-17.9300003051758
1349.4044169,-19.9099998474121
1349.4200419,-21.6399993896484
1349.4356669,-22.4799995422363
1349.4512919,-22.3999996185303
1349.4669169,-21.6000003814697
1349.4825419,-19.5300006866455
1349.4981669,-14.6599998474121
1349.5137919,-5.65000009536743
1349.5294169,7.21999979019165
1349.5450419,21.6499996185303
1349.5606669,34.3699989318848
1349.5762919,42.8699989318848
1349.5919169,46.4700012207031
1349.6075419,46.2700004577637
1349.6231669,44.1800003051758
1349.6387919,41.7099990844727
1349.6544169,39.3300018310547
1349.6700419,36.6399993896484
1349.6856669,32.9700012207031
1349.7012919,28.0699996948242
1349.7169169,22.0200004577637
1349.7325419,15.1700000762939
1349.7481669,8.0600004196167
1349.7637919,1.37000000476837
1349.7794169,-4.51999998092651
1349.7950419,-9.64999961853027
1349.8106669,-13.9799995422363
1349.8262919,-17.2700004577637
1349.8419169,-19.2099990844727
1349.8575419,-19.8600006103516
1349.8731669,-19.75
1349.8887919,-19.75
1349.9044169,-20.4200000762939
1349.9200419,-21.4599990844727
1349.9356669,-22.0900001525879
1349.9512919,-22.0
1349.9669169,-21.8600006103516
1349.9825419,-22.6700000762939
1349.9981669,-24.8299999237061
1350.0137919,-27.7199993133545
1350.0294169,-30.2000007629395
1350.0450419,-31.3600006103516
1350.0606669,-30.5799999237061
1350.0762919,-27.6299991607666
1350.0919169,-22.8600006103516
1350.1075419,-17.3500003814697
1350.1231669,-12.460000038147
1350.1387919,-9.21000003814697
1350.1544169,-7.90000009536743
1350.1700419,-8.39999961853027
1350.1856669,-10.3699998855591
1350.2012919,-13.1000003814697
1350.2169169,-15.0500001907349
1350.2325419,-14.0699996948242
1350.2481669,-8.43000030517578
1350.2637919,2.09999990463257
1350.2794169,16.0499992370605
1350.2950419,30.8799991607666
1350.3106669,43.8499984741211
1350.3262919,52.810001373291
1350.3419169,56.8499984741211
1350.3575419,56.5699996948242
1350.3731669,53.5800018310547
1350.3887919,49.3800010681152
1350.4044169,44.5800018310547
1350.4200419,39.1699981689453
1350.4356669,33.0
1350.4512919,26.0599994659424
1350.4669169,18.7600002288818
1350.4825419,11.9499998092651
1350.4981669,6.34999990463257
1350.5137919,2.11999988555908
1350.5294169,-0.949999988079071
1350.5450419,-3.32999992370605
1350.5606669,-5.67000007629395
1350.5762919,-8.61999988555908
1350.5919169,-12.210000038147
1350.6075419,-15.75
1350.6231669,-18.4300003051758
1350.6387919,-19.8700008392334
1350.6544169,-20.2399997711182
1350.6700419,-20.0400009155273
1350.6856669,-19.7099990844727
1350.7012919,-19.2000007629395
1350.7169169,-18.0799999237061
1350.7325419,-16.2399997711182
1350.7481669,-14.2799997329712
1350.7637919,-13.1999998092651
1350.7794169,-13.8400001525879
1350.7950419,-16.2700004577637
1350.8106669,-19.5599994659424
1350.8262919,-22.2999992370605
1350.8419169,-23.5699996948242
1350.8575419,-23.3999996185303
1350.8731669,-22.4400005340576
1350.8887919,-21.2700004577637
1350.9044169,-19.6800003051758
1350.9200419,-16.5499992370605
1350.9356669,-10.4200000762939
1350.9512919,-0.519999980926514
1350.9669169,12.3699998855591
1350.9825419,26.0699996948242
1350.9981669,37.7799987792969
1351.0137919,45.3499984741211
1351.0294169,48.0499992370605
1351.0450419,46.6599998474121
1351.0606669,42.7799987792969
1351.0762919,38.060001373291
1351.0919169,33.5400009155273
1351.1075419,29.4799995422363
1351.1231669,25.5900001525879
1351.1387919,21.4200000762939
1351.1544169,16.5
1351.1700419,10.6599998474121
1351.1856669,4.3899998664856
1351.2012919,-1.25999999046326
1351.2169169,-5.44999980926514
1351.2325419,-8.11999988555908
1351.2481669,-9.96000003814697
1351.2637919,-11.6999998092651
1351.2794169,-13.6499996185303
1351.2950419,-15.7200002670288
1351.3106669,-17.6900005340576
1351.3262919,-19.2999992370605
1351.3419169,-20.25
1351.3575419,-20.2700004577637
1351.3731669,-19.5100002288818
1351.3887919,-18.6299991607666
1351.4044169,-18.5
1351.4200419,-19.7199993133545
1351.4356669,-22.0300006866455
1351.4512919,-24.4500007629395
1351.4669169,-25.9599990844727
1351.4825419,-26.2000007629395
1351.4981669,-25.3099994659424
1351.5137919,-23.6599998474121
1351.5294169,-21.6399993896484
1351.5450419,-19.6599998474121
1351.5606669,-18.0400009155273
1351.5762919,-16.7700004577637
1351.5919169,-15.5799999237061
1351.6075419,-13.9300003051758
1351.6231669,-10.8900003433228
1351.6387919,-5.15000009536743
1351.6544169,4.15000009536743
1351.6700419,16.6299991607666
1351.6856669,30.5200004577637
1351.7012919,43.5400009155273
1351.7169169,53.8600006103516
1351.7325419,60.3400001525879
1351.7481669,62.5
1351.7637919,60.7700004577637
1351.7794169,56.4700012207031
1351.7950419,51.3499984741211
1351.8106669,46.6500015258789
1351.8262919,42.689998626709
1351.8419169,38.9900016784668
1351.8575419,34.7200012207031
1351.8731669,28.9899997711182
1351.8887919,21.2099990844727
1351.9044169,11.6599998474121
1351.9200419,1.49000000953674
1351.9356669,-7.8899998664856
1351.9512919,-15.4700002670288
1351.9669169,-20.9099998474121
1351.9825419,-24.7900009155273
1351.9981669,-28.0300006866455
1352.0137919,-30.9300003051758
1352.0294169,-32.8300018310547
1352.0450419,-32.8400001525879
1352.0606669,-30.7999992370605
1352.0762919,-27.6200008392334
1352.0919169,-24.8299999237061
1352.1075419,-23.7399997711182
1352.1231669,-24.75
1352.1387919,-27.2900009155273
1352.1544169,-30.2099990844727
1352.1700419,-32.2999992370605
1352.1856669,-32.7999992370605
1352.2012919,-31.7399997711182
1352.2169169,-29.8700008392334
1352.2325419,-28.1000003814697
1352.2481669,-27.0300006866455
1352.2637919,-26.6800003051758
1352.2794169,-26.5300006866455
1352.2950419,-25.8500003814697
1352.3106669,-24.1900005340576
1352.3262919,-21.6700000762939
1352.3419169,-18.4400005340576
1352.3575419,-13.9700002670288
1352.3731669,-7.1399998664856
