Time(s),Value(%)
193.0083798,-7.1100001335144
193.0240048,-5.40000009536743
193.0396298,-4.19999980926514
193.0552548,-3.76999998092651
193.0708798,-4.21000003814697
193.0865048,-5.42000007629395
193.1021298,-7.19999980926514
193.1177548,-9.31999969482422
193.1333798,-11.5799999237061
193.1490048,-13.8100004196167
193.1646298,-15.8900003433228
193.1802548,-17.7800006866455
193.1958798,-19.4599990844727
193.2115048,-20.9400005340576
193.2271298,-22.25
193.2427548,-23.4599990844727
193.2583798,-24.6700000762939
193.2740048,-25.9500007629395
193.2896298,-27.3199996948242
193.3052548,-28.6900005340576
193.3208798,-29.9400005340576
193.3365048,-30.9699993133545
193.3521298,-31.7399997711182
193.3677548,-32.25
193.3833798,-32.5299987792969
193.3990048,-32.5900001525879
193.4146298,-32.4500007629395
193.4302548,-32.1599998474121
193.4458798,-31.7900009155273
193.4615048,-31.3500003814697
193.4771298,-30.7800006866455
193.4927548,-30.0200004577637
193.5083798,-29.0300006866455
193.5240048,-27.6700000762939
193.5396298,-25.7000007629395
193.5552548,-22.8999996185303
193.5708798,-19.2800006866455
193.5865048,-15.1700000762939
193.6021298,-11.0500001907349
193.6177548,-7.23000001907349
193.6333798,-3.72000002861023
193.6490048,-0.449999988079071
193.6646298,2.42000007629395
193.6802548,4.63000011444092
193.6958798,6.01000022888184
193.7115048,6.6399998664856
193.7271298,6.76999998092651
193.7427548,6.59999990463257
193.7583798,6.05000019073486
193.7740048,4.90999984741211
193.7896298,3.13000011444092
193.8052548,0.850000023841858
193.8208798,-1.63999998569489
193.8365048,-4.07999992370605
193.8521298,-6.30000019073486
193.8677548,-8.1899995803833
193.8833798,-9.72000026702881
193.8990048,-10.9099998474121
193.9146298,-11.8900003433228
193.9302548,-12.8199996948242
193.9458798,-13.8400001525879
193.9615048,-15.0100002288818
193.9771298,-16.3899993896484
193.9927548,-18.0499992370605
194.0083798,-19.9300003051758
194.0240048,-21.8799991607666
194.0396298,-23.6499996185303
194.0552548,-25.0499992370605
194.0708798,-26.0499992370605
194.0865048,-26.7199993133545
194.1021298,-27.0699996948242
194.1177548,-27.0400009155273
194.1333798,-26.6499996185303
194.1490048,-25.9500007629395
194.1646298,-25.0699996948242
194.1802548,-23.9799995422363
194.1958798,-22.5200004577637
194.2115048,-20.4599990844727
194.2271298,-17.7399997711182
194.2427548,-14.460000038147
194.2583798,-10.75
194.2740048,-6.69999980926514
194.2896298,-2.48000001907349
194.3052548,1.62999999523163
194.3208798,5.28999996185303
194.3365048,8.14000034332275
194.3521298,10.0699996948242
194.3677548,11.1400003433228
194.3833798,11.4700002670288
194.3990048,11.1899995803833
194.4146298,10.4799995422363
194.4302548,9.55000019073486
194.4458798,8.60999965667725
194.4615048,7.78000020980835
194.4771298,7.15999984741211
194.4927548,6.73000001907349
194.5083798,6.48000001907349
194.5240048,6.32999992370605
194.5396298,6.26000022888184
194.5552548,6.26999998092651
194.5708798,6.3600001335144
194.5865048,6.5
194.6021298,6.67999982833862
194.6177548,6.82000017166138
194.6333798,6.76999998092651
194.6490048,6.38000011444092
194.6646298,5.59999990463257
194.6802548,4.51000022888184
194.6958798,3.27999997138977
194.7115048,2.05999994277954
194.7271298,0.990000009536743
194.7427548,0.129999995231628
194.7583798,-0.490000009536743
194.7740048,-0.870000004768372
194.7896298,-1.0
194.8052548,-0.810000002384186
194.8208798,-0.0700000002980232
194.8365048,1.45000004768372
194.8521298,3.75999999046326
194.8677548,6.65000009536743
194.8833798,9.81999969482422
194.8990048,13.0799999237061
194.9146298,16.3799991607666
194.9302548,19.6299991607666
194.9458798,22.5100002288818
194.9615048,24.6700000762939
194.9771298,25.9400005340576
194.9927548,26.4300003051758
195.0083798,26.4699993133545
195.0240048,26.3199996948242
195.0396298,26.0599994659424
195.0552548,25.6299991607666
195.0708798,24.9699993133545
195.0865048,24.0900001525879
195.1021298,23.1000003814697
195.1177548,22.1399993896484
195.1333798,21.2700004577637
195.1490048,20.5300006866455
195.1646298,19.8600006103516
195.1802548,19.1900005340576
195.1958798,18.4300003051758
195.2115048,17.5200004577637
195.2271298,16.4699993133545
195.2427548,15.3199996948242
195.2583798,14.1300001144409
195.2740048,12.9799995422363
195.2896298,11.8900003433228
195.3052548,10.8400001525879
195.3208798,9.76000022888184
195.3365048,8.53999996185303
195.3521298,7.17999982833862
195.3677548,5.73000001907349
195.3833798,4.30999994277954
195.3990048,3.00999999046326
195.4146298,1.88999998569489
195.4302548,1.0
195.4458798,0.419999986886978
195.4615048,0.310000002384186
195.4771298,0.810000002384186
195.4927548,1.96000003814697
195.5083798,3.61999988555908
195.5240048,5.53000020980835
195.5396298,7.3899998664856
195.5552548,9.03999996185303
195.5708798,10.4399995803833
195.5865048,11.6899995803833
195.6021298,12.8599996566772
195.6177548,14.0299997329712
195.6333798,15.2299995422363
195.6490048,16.3600006103516
195.6646298,17.2399997711182
195.6802548,17.7199993133545
195.6958798,17.75
195.7115048,17.3299999237061
195.7271298,16.4300003051758
195.7427548,15.0
195.7583798,13.1099996566772
195.7740048,10.9499998092651
195.7896298,8.88000011444092
195.8052548,7.17999982833862
195.8208798,6.0
195.8365048,5.25
195.8521298,4.71999979019165
195.8677548,4.21000003814697
195.8833798,3.58999991416931
195.8990048,2.79999995231628
195.9146298,1.88999998569489
195.9302548,0.910000026226044
195.9458798,-0.0900000035762787
195.9615048,-1.12000000476837
195.9771298,-2.17000007629395
195.9927548,-3.1800000667572
196.0083798,-4.07000017166138
196.0240048,-4.76000022888184
196.0396298,-5.19999980926514
196.0552548,-5.40000009536743
196.0708798,-5.40999984741211
196.0865048,-5.25
196.1021298,-4.98999977111816
196.1177548,-4.67000007629395
196.1333798,-4.30000019073486
196.1490048,-3.63000011444092
196.1646298,-2.16000008583069
196.1802548,0.569999992847443
196.1958798,4.65999984741211
196.2115048,9.6899995803833
196.2271298,15.0799999237061
196.2427548,20.3199996948242
196.2583798,25.0599994659424
196.2740048,28.9799995422363
196.2896298,31.6000003814697
196.3052548,32.5299987792969
196.3208798,31.75
196.3365048,29.6599998474121
196.3521298,26.8700008392334
196.3677548,23.9200000762939
196.3833798,21.1200008392334
196.3990048,18.5799999237061
196.4146298,16.2800006866455
196.4302548,14.1400003433228
196.4458798,12.1499996185303
196.4615048,10.3199996948242
196.4771298,8.64000034332275
196.4927548,7.07999992370605
196.5083798,5.51999998092651
196.5240048,3.84999990463257
196.5396298,2.04999995231628
196.5552548,0.159999996423721
196.5708798,-1.74000000953674
196.5865048,-3.61999988555908
196.6021298,-5.51000022888184
196.6177548,-7.40999984741211
196.6333798,-9.27000045776367
196.6490048,-11.0299997329712
196.6646298,-12.6499996185303
196.6802548,-14.1599998474121
196.6958798,-15.6199998855591
196.7115048,-17.0200004577637
196.7271298,-18.2399997711182
196.7427548,-19.1000003814697
196.7583798,-19.3199996948242
196.7740048,-18.7399997711182
196.7896298,-17.3799991607666
196.8052548,-15.4399995803833
196.8208798,-13.2600002288818
196.8365048,-11.1099996566772
196.8521298,-9.17000007629395
196.8677548,-7.48000001907349
196.8833798,-5.96999979019165
196.8990048,-4.57000017166138
196.9146298,-3.24000000953674
196.9302548,-2.01999998092651
196.9458798,-1.03999996185303
196.9615048,-0.469999998807907
196.9771298,-0.340000003576279
196.9927548,-0.660000026226044
197.0083798,-1.48000001907349
197.0240048,-2.88000011444092
197.0396298,-4.80999994277954
197.0552548,-7.05000019073486
197.0708798,-9.25
197.0865048,-11.0600004196167
197.1021298,-12.3100004196167
197.1177548,-13.0900001525879
197.1333798,-13.5900001525879
197.1490048,-14.1000003814697
197.1646298,-14.8599996566772
197.1802548,-16.0100002288818
197.1958798,-17.5499992370605
197.2115048,-19.3500003814697
197.2271298,-21.3299999237061
197.2427548,-23.4200000762939
197.2583798,-25.5599994659424
197.2740048,-27.5900001525879
197.2896298,-29.2399997711182
197.3052548,-30.3600006103516
197.3208798,-30.9899997711182
197.3365048,-31.3500003814697
197.3521298,-31.5699996948242
197.3677548,-31.6599998474121
197.3833798,-31.5900001525879
197.3990048,-31.3099994659424
197.4146298,-30.8299999237061
197.4302548,-29.9699993133545
197.4458798,-28.3500003814697
197.4615048,-25.6200008392334
197.4771298,-21.7299995422363
197.4927548,-16.9300003051758
197.5083798,-11.6199998855591
197.5240048,-6.09000015258789
197.5396298,-0.610000014305115
197.5552548,4.48000001907349
197.5708798,8.77999973297119
197.5865048,11.960000038147
197.6021298,13.9099998474121
197.6177548,14.8199996948242
197.6333798,14.9399995803833
197.6490048,14.5
197.6646298,13.6999998092651
197.6802548,12.710000038147
197.6958798,11.6999998092651
197.7115048,10.7700004577637
197.7271298,9.96000003814697
197.7427548,9.28999996185303
197.7583798,8.72999954223633
197.7740048,8.26000022888184
197.7896298,7.88000011444092
197.8052548,7.59999990463257
197.8208798,7.42999982833862
197.8365048,7.32999992370605
197.8521298,7.26999998092651
197.8677548,7.21000003814697
197.8833798,7.1100001335144
197.8990048,6.94999980926514
197.9146298,6.69999980926514
197.9302548,6.34000015258789
197.9458798,5.88000011444092
197.9615048,5.36999988555908
197.9771298,4.84000015258789
197.9927548,4.32000017166138
198.0083798,3.77999997138977
198.0240048,3.19000005722046
198.0396298,2.54999995231628
198.0552548,2.0
198.0708798,1.8400000333786
198.0865048,2.30999994277954
198.1021298,3.48000001907349
198.1177548,5.15000009536743
198.1333798,7.09000015258789
198.1490048,9.21000003814697
198.1646298,11.6300001144409
198.1802548,14.4499998092651
198.1958798,17.4899997711182
198.2115048,20.3199996948242
198.2271298,22.5599994659424
198.2427548,24.1100006103516
198.2583798,25.0699996948242
198.2740048,25.4799995422363
198.2896298,25.1200008392334
198.3052548,23.7099990844727
198.3208798,21.1800003051758
198.3365048,17.8299999237061
198.3521298,14.0799999237061
198.3677548,10.3400001525879
198.3833798,6.84999990463257
198.3990048,3.75999999046326
198.4146298,1.1599999666214
198.4302548,-0.930000007152557
198.4458798,-2.67000007629395
198.4615048,-4.25
198.4771298,-5.78999996185303
198.4927548,-7.30999994277954
198.5083798,-8.72999954223633
198.5240048,-10.0
198.5396298,-11.1000003814697
198.5552548,-12.0900001525879
198.5708798,-13.0200004577637
198.5865048,-13.9499998092651
198.6021298,-14.9200000762939
198.6177548,-15.9700002670288
198.6333798,-17.1700000762939
198.6490048,-18.5799999237061
198.6646298,-20.1800003051758
198.6802548,-21.8099994659424
198.6958798,-23.1900005340576
198.7115048,-24.0300006866455
198.7271298,-24.1599998474121
198.7427548,-23.5400009155273
198.7583798,-22.2099990844727
198.7740048,-20.1900005340576
198.7896298,-17.4699993133545
198.8052548,-14.0200004577637
198.8208798,-10.0100002288818
198.8365048,-5.78999996185303
198.8521298,-1.79999995231628
198.8677548,1.62999999523163
198.8833798,4.36999988555908
198.8990048,6.40000009536743
198.9146298,7.69999980926514
198.9302548,8.22999954223633
198.9458798,8.03999996185303
198.9615048,7.28999996185303
198.9771298,6.07999992370605
198.9927548,4.46000003814697
199.0083798,2.54999995231628
199.0240048,0.5
199.0396298,-1.49000000953674
199.0552548,-3.30999994277954
199.0708798,-4.88000011444092
199.0865048,-6.15999984741211
199.1021298,-7.01999998092651
199.1177548,-7.36999988555908
199.1333798,-7.19999980926514
199.1490048,-6.69999980926514
199.1646298,-6.11999988555908
199.1802548,-5.69999980926514
199.1958798,-5.51999998092651
199.2115048,-5.53000020980835
199.2271298,-5.59000015258789
199.2427548,-5.61999988555908
199.2583798,-5.55999994277954
199.2740048,-5.48000001907349
199.2896298,-5.51999998092651
199.3052548,-5.80000019073486
199.3208798,-6.34999990463257
199.3365048,-7.09999990463257
199.3521298,-7.92000007629395
199.3677548,-8.6899995803833
199.3833798,-9.32999992370605
199.3990048,-9.77999973297119
199.4146298,-9.88000011444092
199.4302548,-9.39999961853027
199.4458798,-8.07999992370605
199.4615048,-5.80000019073486
199.4771298,-2.72000002861023
199.4927548,0.810000002384186
199.5083798,4.36999988555908
199.5240048,7.67000007629395
199.5396298,10.5699996948242
199.5552548,13.0500001907349
199.5708798,15.1000003814697
199.5865048,16.7099990844727
199.6021298,17.9300003051758
199.6177548,18.8400001525879
199.6333798,19.5499992370605
199.6490048,20.1399993896484
199.6646298,20.6200008392334
199.6802548,20.9500007629395
199.6958798,20.9699993133545
199.7115048,20.5300006866455
199.7271298,19.6000003814697
199.7427548,18.2999992370605
199.7583798,16.8400001525879
199.7740048,15.4499998092651
199.7896298,14.2399997711182
199.8052548,13.2299995422363
199.8208798,12.3400001525879
199.8365048,11.4399995803833
199.8521298,10.3800001144409
199.8677548,9.05000019073486
199.8833798,7.44999980926514
199.8990048,5.69999980926514
199.9146298,3.94000005722046
199.9302548,2.28999996185303
199.9458798,0.819999992847443
199.9615048,-0.479999989271164
199.9771298,-1.64999997615814
199.9927548,-2.70000004768372
200.0083798,-3.66000008583069
200.0240048,-4.51999998092651
200.0396298,-5.28999996185303
200.0552548,-5.94999980926514
200.0708798,-6.48000001907349
200.0865048,-6.84000015258789
200.1021298,-6.92999982833862
200.1177548,-6.48999977111816
200.1333798,-5.19999980926514
200.1490048,-2.86999988555908
200.1646298,0.360000014305115
200.1802548,4.21999979019165
200.1958798,8.4399995803833
200.2115048,12.8800001144409
200.2271298,17.3899993896484
200.2427548,21.7000007629395
200.2583798,25.2999992370605
200.2740048,27.7800006866455
200.2896298,29.0300006866455
200.3052548,29.2199993133545
200.3208798,28.5799999237061
200.3365048,27.3099994659424
200.3521298,25.6000003814697
200.3677548,23.6499996185303
200.3833798,21.6599998474121
200.3990048,19.75
200.4146298,17.9899997711182
200.4302548,16.3500003814697
200.4458798,14.8100004196167
200.4615048,13.289999961853
200.4771298,11.7200002670288
200.4927548,10.0600004196167
200.5083798,8.3100004196167
200.5240048,6.53000020980835
200.5396298,4.76000022888184
200.5552548,3.00999999046326
200.5708798,1.20000004768372
200.5865048,-0.730000019073486
200.6021298,-2.75999999046326
200.6177548,-4.78000020980835
200.6333798,-6.6399998664856
200.6490048,-8.28999996185303
200.6646298,-9.75
200.6802548,-11.1300001144409
200.6958798,-12.6199998855591
200.7115048,-14.3599996566772
200.7271298,-16.3700008392334
200.7427548,-18.4200000762939
200.7583798,-20.1499996185303
200.7740048,-21.2299995422363
200.7896298,-21.5499992370605
200.8052548,-21.1599998474121
200.8208798,-20.1100006103516
200.8365048,-18.3400001525879
200.8521298,-15.7399997711182
200.8677548,-12.3999996185303
200.8833798,-8.73999977111816
200.8990048,-5.28000020980835
200.9146298,-2.45000004768372
200.9302548,-0.310000002384186
200.9458798,1.25999999046326
200.9615048,2.38000011444092
200.9771298,2.94000005722046
200.9927548,2.72000002861023
201.0083798,1.69000005722046
201.0240048,0.0900000035762787
201.0396298,-1.6599999666214
201.0552548,-3.1800000667572
201.0708798,-4.28000020980835
201.0865048,-4.94000005722046
201.1021298,-5.23000001907349
201.1177548,-5.30999994277954
201.1333798,-5.36999988555908
201.1490048,-5.65999984741211
201.1646298,-6.32999992370605
201.1802548,-7.44999980926514
201.1958798,-8.97999954223633
201.2115048,-10.8299999237061
201.2271298,-12.8299999237061
201.2427548,-14.7600002288818
201.2583798,-16.3899993896484
201.2740048,-17.5799999237061
201.2896298,-18.3600006103516
201.3052548,-18.8600006103516
201.3208798,-19.1599998474121
201.3365048,-19.2900009155273
201.3521298,-19.2399997711182
201.3677548,-19.0300006866455
201.3833798,-18.7199993133545
201.3990048,-18.4300003051758
201.4146298,-18.3199996948242
201.4302548,-18.5200004577637
201.4458798,-18.9899997711182
201.4615048,-19.4899997711182
201.4771298,-19.5599994659424
201.4927548,-18.7999992370605
201.5083798,-17.1200008392334
201.5240048,-14.6800003051758
201.5396298,-11.7299995422363
201.5552548,-8.47000026702881
201.5708798,-5.09999990463257
201.5865048,-1.9099999666214
201.6021298,0.699999988079071
201.6177548,2.42000007629395
201.6333798,3.15000009536743
201.6490048,3.15000009536743
201.6646298,2.78999996185303
201.6802548,2.35999989509583
201.6958798,1.89999997615814
201.7115048,1.27999997138977
201.7271298,0.409999996423721
201.7427548,-0.699999988079071
201.7583798,-1.91999995708466
201.7740048,-3.08999991416931
201.7896298,-4.09999990463257
201.8052548,-4.84000015258789
201.8208798,-5.23999977111816
201.8365048,-5.28000020980835
201.8521298,-5.1399998664856
201.8677548,-5.07000017166138
201.8833798,-5.26999998092651
201.8990048,-5.76999998092651
201.9146298,-6.46999979019165
201.9302548,-7.21000003814697
201.9458798,-7.8600001335144
201.9615048,-8.38000011444092
201.9771298,-8.77999973297119
201.9927548,-9.13000011444092
202.0083798,-9.5
202.0240048,-9.97999954223633
202.0396298,-10.7200002670288
202.0552548,-11.8599996566772
202.0708798,-13.3800001144409
202.0865048,-15.039999961853
202.1021298,-16.4599990844727
202.1177548,-17.2800006866455
202.1333798,-17.25
202.1490048,-16.3500003814697
202.1646298,-14.6199998855591
202.1802548,-12.2399997711182
202.1958798,-9.44999980926514
202.2115048,-6.51999998092651
202.2271298,-3.67000007629395
202.2427548,-0.930000007152557
202.2583798,1.83000004291534
202.2740048,4.80999994277954
202.2896298,8.09000015258789
202.3052548,11.5
202.3208798,14.75
202.3365048,17.5699996948242
202.3521298,19.7999992370605
202.3677548,21.3899993896484
202.3833798,22.2199993133545
202.3990048,22.2099990844727
202.4146298,21.3799991607666
202.4302548,19.9799995422363
202.4458798,18.4400005340576
202.4615048,17.1200008392334
202.4771298,16.2399997711182
202.4927548,15.7399997711182
202.5083798,15.460000038147
202.5240048,15.1000003814697
202.5396298,14.3699998855591
202.5552548,13.0699996948242
202.5708798,11.1800003051758
202.5865048,8.85999965667725
202.6021298,6.09999990463257
202.6177548,2.89000010490417
202.6333798,-0.639999985694885
202.6490048,-4.21999979019165
202.6646298,-7.3600001335144
202.6802548,-9.71000003814697
202.6958798,-11.1899995803833
202.7115048,-11.9899997711182
202.7271298,-12.2399997711182
202.7427548,-11.9899997711182
202.7583798,-11.2799997329712
202.7740048,-10.2299995422363
202.7896298,-8.98999977111816
202.8052548,-7.71999979019165
202.8208798,-6.44999980926514
202.8365048,-5.15000009536743
202.8521298,-3.77999997138977
202.8677548,-2.29999995231628
202.8833798,-0.610000014305115
202.8990048,1.30999994277954
202.9146298,3.46000003814697
202.9302548,5.75
202.9458798,8.06999969482422
202.9615048,10.3900003433228
202.9771298,12.7299995422363
202.9927548,15.0600004196167
203.0083798,17.2800006866455
203.0240048,19.2199993133545
203.0396298,20.7600002288818
203.0552548,21.9400005340576
203.0708798,22.8500003814697
203.0865048,23.6000003814697
203.1021298,24.2399997711182
203.1177548,24.7399997711182
203.1333798,25.0900001525879
203.1490048,25.2999992370605
203.1646298,25.4099998474121
203.1802548,25.4699993133545
203.1958798,25.5100002288818
203.2115048,25.5200004577637
203.2271298,25.4799995422363
203.2427548,25.3199996948242
203.2583798,25.0400009155273
203.2740048,24.6399993896484
203.2896298,24.1599998474121
203.3052548,23.6399993896484
203.3208798,23.1100006103516
203.3365048,22.6000003814697
203.3521298,22.1100006103516
203.3677548,21.6399993896484
203.3833798,21.1800003051758
203.3990048,20.7199993133545
203.4146298,20.2399997711182
203.4302548,19.7299995422363
203.4458798,19.1800003051758
203.4615048,18.5799999237061
203.4771298,17.9500007629395
203.4927548,17.2900009155273
203.5083798,16.6399993896484
203.5240048,16.1299991607666
203.5396298,15.9799995422363
203.5552548,16.3899993896484
203.5708798,17.3899993896484
203.5865048,18.9799995422363
203.6021298,21.0200004577637
203.6177548,23.4599990844727
203.6333798,26.1700000762939
203.6490048,28.8799991607666
203.6646298,31.1599998474121
203.6802548,32.7099990844727
203.6958798,33.5299987792969
203.7115048,33.7900009155273
203.7271298,33.6399993896484
