Time(s),Value(%)
195.0150509,98.9000015258789
195.0306759,98.9000015258789
195.0463009,98.8600006103516
195.0619259,98.8199996948242
195.0775509,98.7799987792969
195.0931759,98.75
195.1088009,98.7099990844727
195.1244259,98.6699981689453
195.1400509,98.629997253418
195.1556759,98.5999984741211
195.1713009,98.5999984741211
195.1869259,98.5999984741211
195.2025509,98.5999984741211
195.2181759,98.5999984741211
195.2338009,98.5999984741211
195.2494259,98.5999984741211
195.2650509,98.5999984741211
195.2806759,98.5999984741211
195.2963009,98.5999984741211
195.3119259,98.5999984741211
195.3275509,98.5999984741211
195.3431759,98.5999984741211
195.3588009,98.5999984741211
195.3744259,98.5999984741211
195.3900509,98.5999984741211
195.4056759,98.5999984741211
195.4213009,98.5999984741211
195.4369259,98.5999984741211
195.4525509,98.5999984741211
195.4681759,98.5999984741211
195.4838009,98.5999984741211
195.4994259,98.5999984741211
195.5150509,98.5999984741211
195.5306759,98.5999984741211
195.5463009,98.5999984741211
195.5619259,98.5999984741211
195.5775509,98.5999984741211
195.5931759,98.5999984741211
195.6088009,98.5999984741211
195.6244259,98.5999984741211
195.6400509,98.5999984741211
195.6556759,98.5999984741211
195.6713009,98.5999984741211
195.6869259,98.5599975585938
195.7025509,98.5199966430664
195.7181759,98.4800033569336
195.7338009,98.4499969482422
195.7494259,98.4100036621094
195.7650509,98.370002746582
195.7806759,98.3300018310547
195.7963009,98.3000030517578
195.8119259,98.3000030517578
195.8275509,98.3000030517578
195.8431759,98.3000030517578
195.8588009,98.3000030517578
195.8744259,98.3000030517578
195.8900509,98.3000030517578
195.9056759,98.3000030517578
195.9213009,98.3000030517578
195.9369259,98.3000030517578
195.9525509,98.3000030517578
195.9681759,98.3000030517578
195.9838009,98.3000030517578
195.9994259,98.3000030517578
196.0150509,98.3000030517578
196.0306759,98.3000030517578
196.0463009,98.3000030517578
196.0619259,98.3000030517578
196.0775509,98.3000030517578
196.0931759,98.3000030517578
196.1088009,98.3000030517578
196.1244259,98.3000030517578
196.1400509,98.3000030517578
196.1556759,98.3000030517578
196.1713009,98.3000030517578
196.1869259,98.3000030517578
196.2025509,98.3000030517578
196.2181759,98.3000030517578
196.2338009,98.3000030517578
196.2494259,98.3000030517578
196.2650509,98.3000030517578
196.2806759,98.3499984741211
196.2963009,98.4000015258789
196.3119259,98.4499969482422
196.3275509,98.5
196.3431759,98.5500030517578
196.3588009,98.5999984741211
196.3744259,98.6500015258789
196.3900509,98.6999969482422
196.4056759,98.6999969482422
196.4213009,98.6999969482422
196.4369259,98.6999969482422
196.4525509,98.6999969482422
196.4681759,98.6999969482422
196.4838009,98.6999969482422
196.4994259,98.6999969482422
196.5150509,98.6999969482422
196.5306759,98.6999969482422
196.5463009,98.6999969482422
196.5619259,98.6999969482422
196.5775509,98.6999969482422
196.5931759,98.6999969482422
196.6088009,98.6999969482422
196.6244259,98.6999969482422
196.6400509,98.6999969482422
196.6556759,98.6999969482422
196.6713009,98.6999969482422
196.6869259,98.6999969482422
196.7025509,98.6999969482422
196.7181759,98.6999969482422
196.7338009,98.6999969482422
196.7494259,98.6999969482422
196.7650509,98.6999969482422
196.7806759,98.6999969482422
196.7963009,98.6999969482422
196.8119259,98.6999969482422
196.8275509,98.6999969482422
196.8431759,98.6999969482422
196.8588009,98.6999969482422
196.8744259,98.6999969482422
196.8900509,98.6999969482422
196.9056759,98.6999969482422
196.9213009,98.6999969482422
196.9369259,98.6999969482422
196.9525509,98.6999969482422
196.9681759,98.6999969482422
196.9838009,98.6999969482422
196.9994259,98.6999969482422
197.0150509,98.6999969482422
197.0306759,98.6999969482422
197.0463009,98.6999969482422
197.0619259,98.6999969482422
197.0775509,98.6999969482422
197.0931759,98.6999969482422
197.1088009,98.6999969482422
197.1244259,98.6999969482422
197.1400509,98.6999969482422
197.1556759,98.6999969482422
197.1713009,98.6999969482422
197.1869259,98.6999969482422
197.2025509,98.6999969482422
197.2181759,98.6999969482422
197.2338009,98.6999969482422
197.2494259,98.6999969482422
197.2650509,98.6999969482422
197.2806759,98.6999969482422
197.2963009,98.6999969482422
197.3119259,98.6999969482422
197.3275509,98.6999969482422
197.3431759,98.6999969482422
197.3588009,98.6999969482422
197.3744259,98.6999969482422
197.3900509,98.6999969482422
197.4056759,98.6999969482422
197.4213009,98.6999969482422
197.4369259,98.6800003051758
197.4525509,98.6699981689453
197.4681759,98.6600036621094
197.4838009,98.6500015258789
197.4994259,98.629997253418
197.5150509,98.620002746582
197.5306759,98.6100006103516
197.5463009,98.5999984741211
197.5619259,98.5999984741211
197.5775509,98.5999984741211
197.5931759,98.5999984741211
197.6088009,98.5999984741211
197.6244259,98.5999984741211
197.6400509,98.5999984741211
197.6556759,98.5999984741211
197.6713009,98.5999984741211
197.6869259,98.5999984741211
197.7025509,98.5999984741211
197.7181759,98.5999984741211
197.7338009,98.5999984741211
197.7494259,98.5999984741211
197.7650509,98.5999984741211
197.7806759,98.5999984741211
197.7963009,98.5999984741211
197.8119259,98.5999984741211
197.8275509,98.5999984741211
197.8431759,98.5999984741211
197.8588009,98.5999984741211
197.8744259,98.5999984741211
197.8900509,98.5999984741211
197.9056759,98.5999984741211
197.9213009,98.5999984741211
197.9369259,98.5999984741211
197.9525509,98.5999984741211
197.9681759,98.5999984741211
197.9838009,98.5999984741211
197.9994259,98.5999984741211
198.0150509,98.5999984741211
198.0306759,98.5999984741211
198.0463009,98.5999984741211
198.0619259,98.5999984741211
198.0775509,98.5999984741211
198.0931759,98.5999984741211
198.1088009,98.5999984741211
198.1244259,98.5999984741211
198.1400509,98.5999984741211
198.1556759,98.5999984741211
198.1713009,98.5999984741211
198.1869259,98.5999984741211
198.2025509,98.5999984741211
198.2181759,98.5999984741211
198.2338009,98.5999984741211
198.2494259,98.5999984741211
198.2650509,98.5999984741211
198.2806759,98.5999984741211
198.2963009,98.5999984741211
198.3119259,98.5999984741211
198.3275509,98.5999984741211
198.3431759,98.5999984741211
198.3588009,98.5999984741211
198.3744259,98.5999984741211
198.3900509,98.5999984741211
198.4056759,98.5999984741211
198.4213009,98.5999984741211
198.4369259,98.5999984741211
198.4525509,98.5999984741211
198.4681759,98.5999984741211
198.4838009,98.5999984741211
198.4994259,98.5999984741211
198.5150509,98.5999984741211
198.5306759,98.5999984741211
198.5463009,98.620002746582
198.5619259,98.6500015258789
198.5775509,98.6699981689453
198.5931759,98.6999969482422
198.6088009,98.7200012207031
198.6244259,98.75
198.6400509,98.7699966430664
198.6556759,98.8000030517578
198.6713009,98.8000030517578
198.6869259,98.8000030517578
198.7025509,98.8000030517578
198.7181759,98.8000030517578
198.7338009,98.8000030517578
198.7494259,98.8000030517578
198.7650509,98.8000030517578
198.7806759,98.8000030517578
198.7963009,98.8000030517578
198.8119259,98.8000030517578
198.8275509,98.8000030517578
198.8431759,98.8000030517578
198.8588009,98.8000030517578
198.8744259,98.8000030517578
198.8900509,98.8000030517578
198.9056759,98.8000030517578
198.9213009,98.8000030517578
198.9369259,98.8000030517578
198.9525509,98.8000030517578
198.9681759,98.8000030517578
198.9838009,98.8000030517578
198.9994259,98.8000030517578
199.0150509,98.8000030517578
199.0306759,98.8000030517578
199.0463009,98.8000030517578
199.0619259,98.8000030517578
199.0775509,98.8000030517578
199.0931759,98.8000030517578
199.1088009,98.7600021362305
199.1244259,98.7200012207031
199.1400509,98.6800003051758
199.1556759,98.6500015258789
199.1713009,98.6100006103516
199.1869259,98.5699996948242
199.2025509,98.5299987792969
199.2181759,98.5
199.2338009,98.5
199.2494259,98.5
199.2650509,98.5
199.2806759,98.5
199.2963009,98.5
199.3119259,98.5
199.3275509,98.5
199.3431759,98.5
199.3588009,98.5
199.3744259,98.5
199.3900509,98.5
199.4056759,98.5
199.4213009,98.5
199.4369259,98.5
199.4525509,98.5
199.4681759,98.5
199.4838009,98.5
199.4994259,98.5
199.5150509,98.5
199.5306759,98.5
199.5463009,98.5
199.5619259,98.5
199.5775509,98.5
199.5931759,98.5
199.6088009,98.5
199.6244259,98.5
199.6400509,98.5
199.6556759,98.5
199.6713009,98.5
199.6869259,98.5
199.7025509,98.5
199.7181759,98.5
199.7338009,98.5
199.7494259,98.5
199.7650509,98.5
199.7806759,98.5
199.7963009,98.5
199.8119259,98.5
199.8275509,98.5
199.8431759,98.5
199.8588009,98.5
199.8744259,98.5
199.8900509,98.5
199.9056759,98.5
199.9213009,98.5
199.9369259,98.5
199.9525509,98.5
199.9681759,98.5
199.9838009,98.5
199.9994259,98.5
200.0150509,98.5
200.0306759,98.5
200.0463009,98.5
200.0619259,98.5
200.0775509,98.5
200.0931759,98.5
200.1088009,98.5
200.1244259,98.5
200.1400509,98.5
200.1556759,98.5
200.1713009,98.5
200.1869259,98.5
200.2025509,98.5
200.2181759,98.5
200.2338009,98.5
200.2494259,98.5
200.2650509,98.5
200.2806759,98.5
200.2963009,98.5
200.3119259,98.5
200.3275509,98.5
200.3431759,98.5
200.3588009,98.5
200.3744259,98.5
200.3900509,98.5
200.4056759,98.5
200.4213009,98.5
200.4369259,98.5
200.4525509,98.5
200.4681759,98.5
200.4838009,98.5
200.4994259,98.5
200.5150509,98.5
200.5306759,98.5
200.5463009,98.5
200.5619259,98.5
200.5775509,98.5
200.5931759,98.5
200.6088009,98.5
200.6244259,98.5
200.6400509,98.5
200.6556759,98.5
200.6713009,98.5
200.6869259,98.5
200.7025509,98.5
200.7181759,98.5
200.7338009,98.5
200.7494259,98.5
200.7650509,98.5
200.7806759,98.4800033569336
200.7963009,98.4700012207031
200.8119259,98.4599990844727
200.8275509,98.4499969482422
200.8431759,98.4300003051758
200.8588009,98.4199981689453
200.8744259,98.4100036621094
200.8900509,98.4000015258789
200.9056759,98.4000015258789
200.9213009,98.4000015258789
200.9369259,98.4000015258789
200.9525509,98.4000015258789
200.9681759,98.4000015258789
200.9838009,98.4000015258789
200.9994259,98.4000015258789
201.0150509,98.4000015258789
201.0306759,98.4000015258789
201.0463009,98.4000015258789
201.0619259,98.4000015258789
201.0775509,98.4000015258789
201.0931759,98.4000015258789
201.1088009,98.4000015258789
201.1244259,98.4000015258789
201.1400509,98.4000015258789
201.1556759,98.4000015258789
201.1713009,98.4000015258789
201.1869259,98.4000015258789
201.2025509,98.4000015258789
201.2181759,98.4000015258789
201.2338009,98.4000015258789
201.2494259,98.4000015258789
201.2650509,98.4000015258789
201.2806759,98.4000015258789
201.2963009,98.4000015258789
201.3119259,98.370002746582
201.3275509,98.3499984741211
201.3431759,98.3199996948242
201.3588009,98.3000030517578
201.3744259,98.2699966430664
201.3900509,98.25
201.4056759,98.2200012207031
201.4213009,98.1999969482422
201.4369259,98.1999969482422
201.4525509,98.1999969482422
201.4681759,98.1999969482422
201.4838009,98.1999969482422
201.4994259,98.1999969482422
201.5150509,98.1999969482422
201.5306759,98.1999969482422
201.5463009,98.1999969482422
201.5619259,98.1999969482422
201.5775509,98.1999969482422
201.5931759,98.1999969482422
201.6088009,98.1999969482422
201.6244259,98.1999969482422
201.6400509,98.1999969482422
201.6556759,98.1999969482422
201.6713009,98.1999969482422
201.6869259,98.1999969482422
201.7025509,98.1999969482422
201.7181759,98.1999969482422
201.7338009,98.1999969482422
201.7494259,98.1999969482422
201.7650509,98.1999969482422
201.7806759,98.1999969482422
201.7963009,98.1999969482422
201.8119259,98.1999969482422
201.8275509,98.1999969482422
201.8431759,98.1999969482422
201.8588009,98.1999969482422
201.8744259,98.2200012207031
201.8900509,98.25
201.9056759,98.2699966430664
201.9213009,98.3000030517578
201.9369259,98.3199996948242
201.9525509,98.3499984741211
201.9681759,98.370002746582
201.9838009,98.4000015258789
201.9994259,98.4000015258789
202.0150509,98.4000015258789
202.0306759,98.4000015258789
202.0463009,98.4000015258789
202.0619259,98.4000015258789
202.0775509,98.4000015258789
202.0931759,98.4000015258789
202.1088009,98.4000015258789
202.1244259,98.4000015258789
202.1400509,98.4000015258789
202.1556759,98.4000015258789
202.1713009,98.4000015258789
202.1869259,98.4000015258789
202.2025509,98.4000015258789
202.2181759,98.4000015258789
202.2338009,98.4000015258789
202.2494259,98.4000015258789
202.2650509,98.4000015258789
202.2806759,98.4000015258789
202.2963009,98.4000015258789
202.3119259,98.4000015258789
202.3275509,98.4000015258789
202.3431759,98.4000015258789
202.3588009,98.4000015258789
202.3744259,98.4000015258789
202.3900509,98.4000015258789
202.4056759,98.4000015258789
202.4213009,98.4000015258789
202.4369259,98.4000015258789
202.4525509,98.4000015258789
202.4681759,98.4000015258789
202.4838009,98.4000015258789
202.4994259,98.4000015258789
202.5150509,98.4000015258789
202.5306759,98.4000015258789
202.5463009,98.4000015258789
202.5619259,98.4000015258789
202.5775509,98.4000015258789
202.5931759,98.4000015258789
202.6088009,98.4000015258789
202.6244259,98.4000015258789
202.6400509,98.4000015258789
202.6556759,98.4000015258789
202.6713009,98.4000015258789
202.6869259,98.4000015258789
202.7025509,98.4000015258789
202.7181759,98.4000015258789
202.7338009,98.4000015258789
202.7494259,98.4000015258789
202.7650509,98.4000015258789
202.7806759,98.4000015258789
202.7963009,98.4000015258789
202.8119259,98.4000015258789
202.8275509,98.4000015258789
202.8431759,98.4000015258789
202.8588009,98.4000015258789
202.8744259,98.4000015258789
202.8900509,98.4000015258789
202.9056759,98.4000015258789
202.9213009,98.4000015258789
202.9369259,98.4000015258789
202.9525509,98.4000015258789
202.9681759,98.4000015258789
202.9838009,98.4000015258789
202.9994259,98.4000015258789
203.0150509,98.4000015258789
203.0306759,98.4000015258789
203.0463009,98.4000015258789
203.0619259,98.4199981689453
203.0775509,98.4499969482422
203.0931759,98.4700012207031
203.1088009,98.5
203.1244259,98.5199966430664
203.1400509,98.5500030517578
203.1556759,98.5699996948242
203.1713009,98.5999984741211
203.1869259,98.5999984741211
203.2025509,98.5999984741211
203.2181759,98.5999984741211
203.2338009,98.5999984741211
203.2494259,98.5999984741211
203.2650509,98.5999984741211
203.2806759,98.5999984741211
203.2963009,98.5999984741211
203.3119259,98.5999984741211
203.3275509,98.5999984741211
203.3431759,98.5999984741211
203.3588009,98.5999984741211
203.3744259,98.5999984741211
203.3900509,98.5999984741211
203.4056759,98.5999984741211
203.4213009,98.5999984741211
203.4369259,98.5999984741211
203.4525509,98.5999984741211
203.4681759,98.5999984741211
203.4838009,98.5999984741211
203.4994259,98.5999984741211
203.5150509,98.5999984741211
203.5306759,98.5999984741211
203.5463009,98.5999984741211
203.5619259,98.5999984741211
203.5775509,98.5999984741211
203.5931759,98.5999984741211
203.6088009,98.5999984741211
203.6244259,98.6100006103516
203.6400509,98.620002746582
203.6556759,98.629997253418
203.6713009,98.6500015258789
203.6869259,98.6600036621094
203.7025509,98.6699981689453
203.7181759,98.6800003051758
203.7338009,98.6999969482422
203.7494259,98.6999969482422
203.7650509,98.6999969482422
203.7806759,98.6999969482422
203.7963009,98.6999969482422
203.8119259,98.6999969482422
203.8275509,98.6999969482422
203.8431759,98.6999969482422
203.8588009,98.6999969482422
203.8744259,98.6999969482422
203.8900509,98.6999969482422
203.9056759,98.6999969482422
203.9213009,98.6999969482422
203.9369259,98.6999969482422
203.9525509,98.6999969482422
203.9681759,98.6999969482422
203.9838009,98.6999969482422
203.9994259,98.6999969482422
204.0150509,98.6999969482422
204.0306759,98.6999969482422
204.0463009,98.6999969482422
204.0619259,98.6999969482422
204.0775509,98.6999969482422
204.0931759,98.6999969482422
204.1088009,98.6999969482422
204.1244259,98.6999969482422
204.1400509,98.6999969482422
204.1556759,98.6999969482422
204.1713009,98.6999969482422
204.1869259,98.6999969482422
204.2025509,98.6999969482422
204.2181759,98.6999969482422
204.2338009,98.6999969482422
204.2494259,98.6999969482422
204.2650509,98.6999969482422
204.2806759,98.6999969482422
204.2963009,98.6999969482422
204.3119259,98.6999969482422
204.3275509,98.6999969482422
204.3431759,98.6999969482422
204.3588009,98.6999969482422
204.3744259,98.6999969482422
204.3900509,98.6999969482422
204.4056759,98.6999969482422
204.4213009,98.6999969482422
204.4369259,98.6999969482422
204.4525509,98.6999969482422
204.4681759,98.6999969482422
204.4838009,98.6999969482422
204.4994259,98.6999969482422
204.5150509,98.6999969482422
204.5306759,98.6999969482422
204.5463009,98.6999969482422
204.5619259,98.6999969482422
204.5775509,98.6999969482422
204.5931759,98.6999969482422
204.6088009,98.6999969482422
204.6244259,98.6999969482422
204.6400509,98.6999969482422
204.6556759,98.6999969482422
204.6713009,98.6999969482422
204.6869259,98.6999969482422
204.7025509,98.6999969482422
204.7181759,98.7300033569336
204.7338009,98.7699966430664
204.7494259,98.8099975585938
204.7650509,98.8499984741211
204.7806759,98.879997253418
204.7963009,98.9199981689453
204.8119259,98.9599990844727
204.8275509,99.0
204.8431759,99.0
204.8588009,99.0
204.8744259,99.0
204.8900509,99.0
204.9056759,99.0
204.9213009,99.0
204.9369259,99.0
204.9525509,99.0
204.9681759,99.0
204.9838009,99.0
204.9994259,99.0
205.0150509,99.0
205.0306759,99.0
205.0463009,99.0
205.0619259,99.0
205.0775509,99.0
205.0931759,99.0
205.1088009,99.0
205.1244259,99.0
205.1400509,99.0
205.1556759,99.0
205.1713009,99.0
205.1869259,99.0
205.2025509,99.0
205.2181759,99.0
205.2338009,99.0
205.2494259,99.0
205.2650509,99.0
205.2806759,99.0
205.2963009,99.0
205.3119259,99.0
205.3275509,99.0
205.3431759,99.0
205.3588009,99.0
205.3744259,99.0
205.3900509,99.0
205.4056759,99.0
205.4213009,99.0
205.4369259,99.0
205.4525509,99.0
205.4681759,99.0
205.4838009,99.0
205.4994259,99.0
205.5150509,99.0
205.5306759,99.0
205.5463009,99.0
205.5619259,99.0
205.5775509,99.0
205.5931759,99.0
205.6088009,99.0
205.6244259,99.0
205.6400509,99.0
205.6556759,99.0
205.6713009,99.0
205.6869259,99.0
205.7025509,99.0
205.7181759,99.0
205.7338009,99.0
205.7494259,99.0
205.7650509,99.0
205.7806759,99.0
205.7963009,99.0
205.8119259,98.9599990844727
205.8275509,98.9199981689453
205.8431759,98.879997253418
205.8588009,98.8499984741211
205.8744259,98.8099975585938
205.8900509,98.7699966430664
205.9056759,98.7300033569336
205.9213009,98.6999969482422
205.9369259,98.6999969482422
205.9525509,98.6999969482422
205.9681759,98.6999969482422
205.9838009,98.6999969482422
205.9994259,98.6999969482422
206.0150509,98.6999969482422
206.0306759,98.6999969482422
206.0463009,98.6999969482422
206.0619259,98.6999969482422
206.0775509,98.6999969482422
206.0931759,98.6999969482422
206.1088009,98.6999969482422
206.1244259,98.6999969482422
206.1400509,98.6999969482422
206.1556759,98.6999969482422
206.1713009,98.6999969482422
206.1869259,98.6999969482422
206.2025509,98.6999969482422
206.2181759,98.6999969482422
206.2338009,98.6999969482422
206.2494259,98.6999969482422
206.2650509,98.6999969482422
206.2806759,98.6999969482422
206.2963009,98.6999969482422
206.3119259,98.6999969482422
206.3275509,98.6999969482422
206.3431759,98.7300033569336
206.3588009,98.7699966430664
206.3744259,98.8099975585938
206.3900509,98.8499984741211
206.4056759,98.879997253418
206.4213009,98.9199981689453
206.4369259,98.9599990844727
206.4525509,99.0
206.4681759,99.0
206.4838009,99.0
206.4994259,99.0
206.5150509,99.0
206.5306759,99.0
206.5463009,99.0
206.5619259,99.0
206.5775509,99.0
206.5931759,99.0
206.6088009,99.0
206.6244259,99.0
206.6400509,99.0
206.6556759,99.0
206.6713009,99.0
206.6869259,99.0
206.7025509,99.0
206.7181759,99.0
206.7338009,99.0
206.7494259,99.0
206.7650509,99.0
206.7806759,99.0
206.7963009,99.0
206.8119259,99.0
206.8275509,99.0
206.8431759,99.0
206.8588009,99.0
206.8744259,99.0
206.8900509,99.0
206.9056759,99.0
206.9213009,99.0
206.9369259,99.0
206.9525509,99.0
206.9681759,99.0
206.9838009,99.0
206.9994259,99.0
207.0150509,99.0
207.0306759,99.0
207.0463009,99.0
207.0619259,99.0
207.0775509,99.0
207.0931759,99.0
207.1088009,99.0
207.1244259,99.0
207.1400509,99.0
207.1556759,99.0
