Time(s),Value(%)
1873.0154789,51.6800003051758
1873.0311039,44.1100006103516
1873.0467289,36.2000007629395
1873.0623539,28.0699996948242
1873.0779789,19.8400001525879
1873.0936039,11.3999996185303
1873.1092289,2.44000005722046
1873.1248539,-7.1100001335144
1873.1404789,-16.9599990844727
1873.1561039,-26.5200004577637
1873.1717289,-35.4500007629395
1873.1873539,-44.0
1873.2029789,-52.6199989318848
1873.2186039,-61.2799987792969
1873.2342289,-69.4400024414063
1873.2498539,-76.5400009155273
1873.2654789,-82.379997253418
1873.2811039,-87.0500030517578
1873.2967289,-90.4199981689453
1873.3123539,-91.8000030517578
1873.3279789,-90.4100036621094
1873.3436039,-87.629997253418
1873.3592289,-82.0699996948242
1873.3748539,-74.1999969482422
1873.3904789,-64.4800033569336
1873.4061039,-53.4700012207031
1873.4217289,-42.1599998474121
1873.4373539,-31.7900009155273
1873.4529789,-23.4500007629395
1873.4686039,-17.5799999237061
1873.4842289,-14.1899995803833
1873.4998539,-13.2600002288818
1873.5154789,-14.789999961853
1873.5311039,-18.4099998474121
1873.5467289,-23.3899993896484
1873.5623539,-28.8999996185303
1873.5779789,-34.4700012207031
1873.5936039,-40.2799987792969
1873.6092289,-46.7999992370605
1873.6248539,-54.3199996948242
1873.6404789,-62.9000015258789
1873.6561039,-72.5299987792969
1873.6717289,-83.1500015258789
1873.6873539,-94.4400024414063
1873.7029789,-105.589996337891
1873.7186039,-115.580001831055
1873.7342289,-123.879997253418
1873.7498539,-131.009994506836
1873.7654789,-137.929992675781
1873.7811039,-145.070007324219
1873.7967289,-152.0
1873.8123539,-158.059997558594
1873.8279789,-162.820007324219
1873.8436039,-166.389999389648
1873.8592289,-169.389999389648
1873.8748539,-172.759994506836
1873.8904789,-177.25
1873.9061039,-182.919998168945
1873.9217289,-188.970001220703
1873.9373539,-194.0
1873.9529789,-196.800003051758
1873.9686039,-196.850006103516
1873.9842289,-194.0
1873.9998539,-187.860000610352
1874.0154789,-177.839996337891
1874.0311039,-163.830001831055
1874.0467289,-146.880004882813
1874.0623539,-129.059997558594
1874.0779789,-112.599998474121
1874.0936039,-98.8000030517578
1874.1092289,-87.6900024414063
1874.1248539,-78.5599975585938
1874.1404789,-71.0299987792969
1874.1561039,-65.6900024414063
1874.1717289,-63.5200004577637
1874.1873539,-64.8399963378906
1874.2029789,-69.120002746582
1874.2186039,-75.4499969482422
1874.2342289,-82.9800033569336
1874.2498539,-90.9000015258789
1874.2654789,-98.2099990844727
1874.2811039,-103.709999084473
1874.2967289,-106.779998779297
1874.3123539,-107.879997253418
1874.3279789,-108.069999694824
1874.3436039,-106.589996337891
1874.3592289,-104.870002746582
1874.3748539,-102.540000915527
1874.3904789,-99.4199981689453
1874.4061039,-95.7399978637695
1874.4217289,-92.1399993896484
1874.4373539,-89.5800018310547
1874.4529789,-88.7699966430664
1874.4686039,-89.8199996948242
1874.4842289,-92.3499984741211
1874.4998539,-95.9700012207031
1874.5154789,-100.419998168945
1874.5311039,-105.26000213623
1874.5467289,-109.480003356934
1874.5623539,-111.419998168945
1874.5779789,-109.400001525879
1874.5936039,-102.48999786377
1874.6092289,-90.8300018310547
1874.6248539,-75.5199966430664
1874.6404789,-58.0900001525879
1874.6561039,-40.1199989318848
1874.6717289,-22.8299999237061
1874.6873539,-6.94999980926514
1874.7029789,7.01999998092651
1874.7186039,18.5799999237061
1874.7342289,27.3899993896484
1874.7498539,33.560001373291
1874.7654789,37.6399993896484
1874.7811039,40.1800003051758
1874.7967289,41.5699996948242
1874.8123539,42.1399993896484
1874.8279789,42.2599983215332
1874.8436039,42.2299995422363
1874.8592289,42.1300010681152
1874.8748539,41.7599983215332
1874.8904789,40.9599990844727
1874.9061039,39.9599990844727
1874.9217289,39.310001373291
1874.9373539,39.4199981689453
1874.9529789,40.3499984741211
1874.9686039,41.75
1874.9842289,43.0099983215332
1874.9998539,43.3600006103516
1875.0154789,42.2599983215332
1875.0311039,39.6500015258789
1875.0467289,35.7200012207031
1875.0623539,30.5799999237061
1875.0779789,24.2399997711182
1875.0936039,17.0
1875.1092289,9.75
1875.1248539,3.90000009536743
1875.1404789,0.740000009536743
1875.1561039,0.730000019073486
1875.1717289,3.58999991416931
1875.1873539,8.72999954223633
1875.2029789,15.5500001907349
1875.2186039,23.3799991607666
1875.2342289,31.5400009155273
1875.2498539,39.5200004577637
1875.2654789,47.2900009155273
1875.2811039,55.3899993896484
1875.2967289,64.4800033569336
1875.3123539,74.7300033569336
1875.3279789,85.629997253418
1875.3436039,94.9800033569336
1875.3592289,103.050003051758
1875.3748539,109.419998168945
1875.3904789,113.919998168945
1875.4061039,116.26000213623
1875.4217289,116.089996337891
1875.4373539,113.389999389648
1875.4529789,108.680000305176
1875.4686039,102.930000305176
1875.4842289,97.0400009155273
1875.4998539,91.4100036621094
1875.5154789,85.9599990844727
1875.5311039,80.4700012207031
1875.5467289,74.9800033569336
1875.5623539,69.8199996948242
1875.5779789,65.2099990844727
1875.5936039,60.9700012207031
1875.6092289,56.689998626709
1875.6248539,52.2700004577637
1875.6404789,47.9599990844727
1875.6561039,44.0999984741211
1875.6717289,40.8699989318848
1875.6873539,38.1599998474121
1875.7029789,35.5900001525879
1875.7186039,32.6399993896484
1875.7342289,28.8899993896484
1875.7498539,24.3299999237061
1875.7654789,19.3899993896484
1875.7811039,14.789999961853
1875.7967289,11.1199998855591
1875.8123539,8.65999984741211
1875.8279789,7.53999996185303
1875.8436039,8.10000038146973
1875.8592289,10.8299999237061
1875.8748539,16.0499992370605
1875.8904789,23.4300003051758
1875.9061039,31.9500007629395
1875.9217289,40.310001373291
1875.9373539,47.5499992370605
1875.9529789,53.3300018310547
1875.9686039,57.8499984741211
1875.9842289,61.25
1875.9998539,63.3400001525879
1876.0154789,63.7799987792969
1876.0311039,62.4900016784668
1876.0467289,59.75
1876.0623539,55.9500007629395
1876.0779789,51.4599990844727
1876.0936039,46.6199989318848
1876.1092289,41.7700004577637
1876.1248539,37.2000007629395
1876.1404789,33.0
1876.1561039,28.9300003051758
1876.1717289,24.6900005340576
1876.1873539,20.3400001525879
1876.2029789,16.1900005340576
1876.2186039,12.5900001525879
1876.2342289,9.64000034332275
1876.2498539,7.19999980926514
1876.2654789,4.86999988555908
1876.2811039,2.1800000667572
1876.2967289,-1.22000002861023
1876.3123539,-5.42999982833862
1876.3279789,-10.3599996566772
1876.3436039,-15.8400001525879
1876.3592289,-21.9799995422363
1876.3748539,-28.5900001525879
1876.3904789,-35.0499992370605
1876.4061039,-40.3600006103516
1876.4217289,-43.560001373291
1876.4373539,-44.1300010681152
1876.4529789,-42.1100006103516
1876.4686039,-37.939998626709
1876.4842289,-32.2599983215332
1876.4998539,-25.8199996948242
1876.5154789,-19.3299999237061
1876.5311039,-13.289999961853
1876.5467289,-7.8899998664856
1876.5623539,-3.0699999332428
1876.5779789,1.29999995231628
1876.5936039,5.38000011444092
1876.6092289,9.11999988555908
1876.6248539,12.289999961853
1876.6404789,14.6700000762939
1876.6561039,16.1700000762939
1876.6717289,16.7999992370605
1876.6873539,16.5799999237061
1876.7029789,15.75
1876.7186039,14.960000038147
1876.7342289,15.0600004196167
1876.7498539,16.6399993896484
1876.7654789,19.7399997711182
1876.7811039,23.8500003814697
1876.7967289,28.2199993133545
1876.8123539,32.3400001525879
1876.8279789,36.4099998474121
1876.8436039,41.4599990844727
1876.8592289,48.560001373291
1876.8748539,58.0499992370605
1876.8904789,69.4300003051758
1876.9061039,81.9000015258789
1876.9217289,94.7699966430664
1876.9373539,107.319999694824
1876.9529789,118.339996337891
1876.9686039,125.959999084473
1876.9842289,128.5
1876.9998539,125.440002441406
1877.0154789,117.610000610352
1877.0311039,106.559997558594
1877.0467289,93.8399963378906
1877.0623539,80.7200012207031
1877.0779789,68.0
1877.0936039,56.060001373291
1877.1092289,45.060001373291
1877.1248539,35.0800018310547
1877.1404789,26.1700000762939
1877.1561039,18.2000007629395
1877.1717289,10.7700004577637
1877.1873539,3.20000004768372
1877.2029789,-5.03999996185303
1877.2186039,-14.1199998855591
1877.2342289,-23.6499996185303
1877.2498539,-33.0200004577637
1877.2654789,-41.8600006103516
1877.2811039,-50.25
1877.2967289,-58.3899993896484
1877.3123539,-66.2099990844727
1877.3279789,-73.4100036621094
1877.3436039,-80.2600021362305
1877.3592289,-86.5199966430664
1877.3748539,-92.4100036621094
1877.3904789,-97.9300003051758
1877.4061039,-102.73999786377
1877.4217289,-106.540000915527
1877.4373539,-109.379997253418
1877.4529789,-111.639999389648
1877.4686039,-113.580001831055
1877.4842289,-115.23999786377
1877.4998539,-116.529998779297
1877.5154789,-117.370002746582
1877.5311039,-117.839996337891
1877.5467289,-118.230003356934
1877.5623539,-119.0
1877.5779789,-120.559997558594
1877.5936039,-122.959999084473
1877.6092289,-125.839996337891
1877.6248539,-128.630004882813
1877.6404789,-130.820007324219
1877.6561039,-132.139999389648
1877.6717289,-132.350006103516
1877.6873539,-131.089996337891
1877.7029789,-128.190002441406
1877.7186039,-124.059997558594
1877.7342289,-119.629997253418
1877.7498539,-115.800003051758
1877.7654789,-112.98999786377
1877.7811039,-111.080001831055
1877.7967289,-109.620002746582
1877.8123539,-108.160003662109
1877.8279789,-106.480003356934
1877.8436039,-104.669998168945
1877.8592289,-102.959999084473
1877.8748539,-101.470001220703
1877.8904789,-100.0
1877.9061039,-98.0299987792969
1877.9217289,-95.0299987792969
1877.9373539,-90.8199996948242
1877.9529789,-85.4199981689453
1877.9686039,-78.7900009155273
1877.9842289,-70.5500030517578
1877.9998539,-60.2099990844727
1878.0154789,-47.7200012207031
1878.0311039,-33.9099998474121
1878.0467289,-20.1499996185303
1878.0623539,-7.6399998664856
1878.0779789,3.11999988555908
1878.0936039,12.3900003433228
1878.1092289,20.9899997711182
1878.1248539,29.9599990844727
1878.1404789,40.0900001525879
1878.1561039,51.6199989318848
1878.1717289,64.7099990844727
1878.1873539,80.0400009155273
1878.2029789,98.2799987792969
1878.2186039,119.139999389648
1878.2342289,140.710006713867
1878.2498539,160.130004882813
1878.2654789,175.490005493164
1878.2811039,187.300003051758
1878.2967289,197.229995727539
1878.3123539,206.029998779297
1878.3279789,212.990005493164
1878.3436039,215.919998168945
1878.3592289,215.899993896484
1878.3748539,213.619995117188
1878.3904789,209.899993896484
1878.4061039,205.100006103516
1878.4217289,199.149993896484
1878.4373539,192.009994506836
1878.4529789,183.880004882813
1878.4686039,175.179992675781
1878.4842289,166.320007324219
1878.4998539,157.5
1878.5154789,148.460006713867
1878.5311039,138.389999389648
1878.5467289,126.370002746582
1878.5623539,112.029998779297
1878.5779789,95.8199996948242
1878.5936039,78.8399963378906
1878.6092289,62.2700004577637
1878.6248539,46.9099998474121
1878.6404789,33.0099983215332
1878.6561039,20.2999992370605
1878.6717289,8.19999980926514
1878.6873539,-4.01999998092651
1878.7029789,-16.9300003051758
1878.7186039,-30.5499992370605
1878.7342289,-44.4199981689453
1878.7498539,-57.8899993896484
1878.7654789,-70.4599990844727
1878.7811039,-81.8300018310547
1878.7967289,-91.6500015258789
1878.8123539,-99.370002746582
1878.8279789,-104.470001220703
1878.8436039,-107.01000213623
1878.8592289,-107.730003356934
1878.8748539,-107.650001525879
1878.8904789,-107.650001525879
1878.9061039,-108.150001525879
1878.9217289,-109.120002746582
1878.9373539,-110.379997253418
1878.9529789,-111.889999389648
1878.9686039,-113.870002746582
1878.9842289,-116.559997558594
1878.9998539,-120.0
1879.0154789,-124.019996643066
1879.0311039,-128.639999389648
1879.0467289,-133.919998168945
1879.0623539,-139.75
1879.0779789,-145.580001831055
1879.0936039,-150.610000610352
1879.1092289,-154.330001831055
1879.1248539,-157.020004272461
1879.1404789,-159.240005493164
1879.1561039,-161.229995727539
1879.1717289,-162.649993896484
1879.1873539,-163.089996337891
1879.2029789,-162.429992675781
1879.2186039,-160.889999389648
1879.2342289,-159.039993286133
1879.2498539,-157.580001831055
1879.2654789,-157.029998779297
1879.2811039,-157.449996948242
1879.2967289,-158.600006103516
1879.3123539,-160.160003662109
1879.3279789,-161.899993896484
1879.3436039,-160.639999389648
1879.3592289,-158.789993286133
1879.3748539,-155.330001831055
1879.3904789,-149.240005493164
1879.4061039,-140.149993896484
1879.4217289,-128.440002441406
1879.4373539,-115.050003051758
1879.4529789,-101.080001831055
1879.4686039,-87.4800033569336
1879.4842289,-74.870002746582
1879.4998539,-63.4900016784668
1879.5154789,-53.3600006103516
1879.5311039,-44.5999984741211
1879.5467289,-37.3699989318848
1879.5623539,-31.8500003814697
1879.5779789,-27.9099998474121
1879.5936039,-25.1299991607666
1879.6092289,-22.8700008392334
1879.6248539,-20.6100006103516
1879.6404789,-18.0900001525879
1879.6561039,-15.3000001907349
1879.6717289,-12.4499998092651
1879.6873539,-9.80000019073486
1879.7029789,-7.55000019073486
1879.7186039,-5.73000001907349
1879.7342289,-4.19000005722046
1879.7498539,-2.75999999046326
1879.7654789,-1.27999997138977
1879.7811039,0.28999999165535
1879.7967289,1.87000000476837
1879.8123539,3.24000000953674
1879.8279789,4.19999980926514
1879.8436039,4.67999982833862
1879.8592289,4.65999984741211
1879.8748539,4.05999994277954
1879.8904789,2.79999995231628
1879.9061039,0.990000009536743
1879.9217289,-0.810000002384186
1879.9373539,-1.73000001907349
1879.9529789,-0.810000002384186
1879.9686039,2.5
1879.9842289,8.25
1879.9998539,16.0100002288818
1880.0154789,25.1299991607666
1880.0311039,34.9799995422363
1880.0467289,44.9900016784668
1880.0623539,54.7099990844727
1880.0779789,63.7000007629395
1880.0936039,71.4400024414063
1880.1092289,77.5500030517578
1880.1248539,81.9199981689453
1880.1404789,84.7699966430664
1880.1561039,86.4800033569336
1880.1717289,87.4199981689453
1880.1873539,87.9199981689453
1880.2029789,88.2300033569336
1880.2186039,88.4800033569336
1880.2342289,88.6900024414063
1880.2498539,88.7900009155273
1880.2654789,88.7099990844727
1880.2811039,88.379997253418
1880.2967289,87.75
1880.3123539,86.75
1880.3279789,85.3000030517578
1880.3436039,85.7699966430664
1880.3592289,85.8000030517578
1880.3748539,85.75
1880.3904789,85.8399963378906
1880.4061039,86.0
1880.4217289,85.9499969482422
1880.4373539,85.5800018310547
1880.4529789,85.0400009155273
1880.4686039,84.5599975585938
1880.4842289,84.2799987792969
1880.4998539,84.2300033569336
1880.5154789,84.5999984741211
1880.5311039,85.8499984741211
1880.5467289,88.4700012207031
1880.5623539,92.5899963378906
1880.5779789,97.9899978637695
1880.5936039,104.449996948242
1880.6092289,111.779998779297
1880.6248539,119.690002441406
1880.6404789,127.559997558594
1880.6561039,134.610000610352
1880.6717289,140.270004272461
1880.6873539,144.440002441406
1880.7029789,147.320007324219
1880.7186039,148.949996948242
1880.7342289,149.229995727539
1880.7498539,148.139999389648
1880.7654789,145.970001220703
1880.7811039,143.160003662109
1880.7967289,140.240005493164
1880.8123539,137.589996337891
1880.8279789,135.419998168945
1880.8436039,133.699996948242
1880.8592289,132.460006713867
1880.8748539,131.889999389648
1880.8904789,132.259994506836
1880.9061039,133.520004272461
1880.9217289,135.160003662109
1880.9373539,136.399993896484
1880.9529789,136.75
1880.9686039,136.440002441406
1880.9842289,135.949996948242
1880.9998539,135.410003662109
1881.0154789,134.429992675781
1881.0311039,132.570007324219
1881.0467289,129.699996948242
1881.0623539,126.099998474121
1881.0779789,122.529998779297
1881.0936039,120.110000610352
1881.1092289,119.690002441406
1881.1248539,121.480003356934
1881.1404789,125.389999389648
1881.1561039,131.589996337891
1881.1717289,140.309997558594
1881.1873539,151.119995117188
1881.2029789,162.330001831055
1881.2186039,171.380004882813
1881.2342289,176.389999389648
1881.2498539,177.309997558594
1881.2654789,175.330001831055
1881.2811039,171.279998779297
1881.2967289,165.169998168945
1881.3123539,156.899993896484
1881.3279789,146.800003051758
1881.3436039,135.380004882813
1881.3592289,123.910003662109
1881.3748539,113.110000610352
1881.3904789,103.279998779297
1881.4061039,94.4000015258789
1881.4217289,86.4000015258789
1881.4373539,79.4300003051758
1881.4529789,73.7399978637695
1881.4686039,69.2200012207031
1881.4842289,65.0699996948242
1881.4998539,59.9099998474121
1881.5154789,52.6800003051758
1881.5311039,43.3600006103516
1881.5467289,32.7099990844727
1881.5623539,21.5400009155273
1881.5779789,10.3199996948242
1881.5936039,-0.560000002384186
1881.6092289,-10.75
1881.6248539,-20.0699996948242
1881.6404789,-28.7399997711182
1881.6561039,-37.25
1881.6717289,-45.689998626709
1881.6873539,-53.3300018310547
1881.7029789,-59.2000007629395
1881.7186039,-63.0499992370605
1881.7342289,-65.5500030517578
1881.7498539,-67.7300033569336
1881.7654789,-70.370002746582
1881.7811039,-73.6500015258789
1881.7967289,-77.0
1881.8123539,-79.2799987792969
1881.8279789,-79.5100021362305
1881.8436039,-77.4100036621094
1881.8592289,-73.3499984741211
1881.8748539,-67.8199996948242
1881.8904789,-61.2099990844727
1881.9061039,-54.1100006103516
1881.9217289,-47.9099998474121
1881.9373539,-44.7700004577637
1881.9529789,-46.3600006103516
1881.9686039,-52.5400009155273
1881.9842289,-61.6399993896484
1881.9998539,-71.8199996948242
1882.0154789,-82.0400009155273
1882.0311039,-91.9499969482422
1882.0467289,-101.569999694824
1882.0623539,-110.930000305176
1882.0779789,-119.970001220703
1882.0936039,-128.529998779297
1882.1092289,-136.429992675781
1882.1248539,-143.600006103516
1882.1404789,-149.979995727539
1882.1561039,-155.490005493164
1882.1717289,-160.070007324219
1882.1873539,-163.820007324219
1882.2029789,-167.229995727539
1882.2186039,-171.100006103516
1882.2342289,-176.119995117188
1882.2498539,-182.360000610352
1882.2654789,-189.360000610352
1882.2811039,-196.550003051758
1882.2967289,-203.520004272461
1882.3123539,-210.050003051758
1882.3279789,-216.059997558594
1882.3436039,-221.960006713867
1882.3592289,-226.600006103516
1882.3748539,-228.800003051758
1882.3904789,-227.470001220703
1882.4061039,-222.449996948242
1882.4217289,-214.550003051758
1882.4373539,-204.860000610352
1882.4529789,-194.300003051758
1882.4686039,-183.649993896484
1882.4842289,-173.949996948242
1882.4998539,-166.679992675781
1882.5154789,-162.960006713867
1882.5311039,-162.710006713867
1882.5467289,-164.75
1882.5623539,-167.820007324219
1882.5779789,-171.070007324219
1882.5936039,-174.190002441406
1882.6092289,-177.050003051758
1882.6248539,-179.600006103516
1882.6404789,-181.570007324219
1882.6561039,-182.449996948242
1882.6717289,-181.800003051758
1882.6873539,-179.5
1882.7029789,-175.720001220703
1882.7186039,-170.610000610352
1882.7342289,-164.270004272461
1882.7498539,-156.990005493164
1882.7654789,-149.570007324219
1882.7811039,-143.160003662109
1882.7967289,-138.600006103516
1882.8123539,-135.820007324219
1882.8279789,-134.130004882813
1882.8436039,-132.919998168945
1882.8592289,-132.009994506836
1882.8748539,-131.429992675781
1882.8904789,-131.149993896484
1882.9061039,-130.979995727539
1882.9217289,-130.559997558594
1882.9373539,-129.470001220703
1882.9529789,-127.410003662109
1882.9686039,-124.25
1882.9842289,-119.660003662109
1882.9998539,-112.839996337891
1883.0154789,-103.029998779297
1883.0311039,-90.3300018310547
1883.0467289,-76.0500030517578
1883.0623539,-62.1399993896484
1883.0779789,-49.9799995422363
1883.0936039,-39.6300010681152
1883.1092289,-30.5300006866455
1883.1248539,-22.6800003051758
1883.1404789,-16.7700004577637
1883.1561039,-13.2799997329712
1883.1717289,-11.9399995803833
1883.1873539,-11.8800001144409
1883.2029789,-12.0900001525879
1883.2186039,-11.8699998855591
1883.2342289,-10.9799995422363
1883.2498539,-9.5
1883.2654789,-7.40000009536743
1883.2811039,-4.32000017166138
1883.2967289,0.180000007152557
1883.3123539,6.09000015258789
1883.3279789,12.5900001525879
1883.3436039,17.7800006866455
1883.3592289,20.9400005340576
1883.3748539,22.2999992370605
1883.3904789,22.7000007629395
1883.4061039,22.7299995422363
1883.4217289,22.3799991607666
1883.4373539,21.5
