Time(s),Value(%)
642.0042358,-34.4799995422363
642.0198608,-33.5900001525879
642.0354858,-31.3899993896484
642.0511108,-28.4799995422363
642.0667358,-24.5900001525879
642.0823608,-18.3199996948242
642.0979858,-8.11999988555908
642.1136108,6.30999994277954
642.1292358,23.2399997711182
642.1448608,39.2999992370605
642.1604858,51.0800018310547
642.1761108,56.7299995422363
642.1917358,56.6199989318848
642.2073608,52.7900009155273
642.2229858,47.4799995422363
642.2386108,42.1300010681152
642.2542358,37.0400009155273
642.2698608,31.6700000762939
642.2854858,25.1200008392334
642.3011108,16.6399993896484
642.3167358,6.19999980926514
642.3323608,-5.1100001335144
642.3479858,-15.5100002288818
642.3636108,-23.3299999237061
642.3792358,-27.6100006103516
642.3948608,-28.2800006866455
642.4104858,-26.2000007629395
642.4261108,-22.7199993133545
642.4417358,-19.1900005340576
642.4573608,-16.6100006103516
642.4729858,-15.5299997329712
642.4886108,-15.9200000762939
642.5042358,-17.2099990844727
642.5198608,-18.8400001525879
642.5354858,-20.7800006866455
642.5511108,-23.2800006866455
642.5667358,-26.1900005340576
642.5823608,-28.7099990844727
642.5979858,-30.0100002288818
642.6136108,-29.9099998474121
642.6292358,-28.9799995422363
642.6448608,-27.75
642.6604858,-26.1800003051758
642.6761108,-23.9200000762939
642.6917358,-20.8799991607666
642.7073608,-17.3600006103516
642.7229858,-13.3800001144409
642.7386108,-8.02999973297119
642.7542358,0.0700000002980232
642.7698608,11.4499998092651
642.7854858,24.7199993133545
642.8011108,37.1199989318848
642.8167358,45.8899993896484
642.8323608,49.560001373291
642.8479858,48.5499992370605
642.8636108,44.7299995422363
642.8792358,40.4099998474121
642.8948608,37.2099990844727
642.9104858,35.189998626709
642.9261108,32.9500007629395
642.9417358,28.75
642.9573608,21.8999996185303
642.9729858,13.3299999237061
642.9886108,5.07999992370605
643.0042358,-0.870000004768372
643.0198608,-3.6800000667572
643.0354858,-4.07999992370605
643.0511108,-4.09000015258789
643.0667358,-5.65999984741211
643.0823608,-9.1899995803833
643.0979858,-13.5
643.1136108,-16.9099998474121
643.1292358,-18.3400001525879
643.1448608,-17.7000007629395
643.1604858,-15.5100002288818
643.1761108,-12.4799995422363
643.1917358,-9.42000007629395
643.2073608,-7.03999996185303
643.2229858,-5.65000009536743
643.2386108,-4.98000001907349
643.2542358,-4.65000009536743
643.2698608,-4.67999982833862
643.2854858,-5.5
643.3011108,-7.42999982833862
643.3167358,-10.1400003433228
643.3323608,-12.6099996566772
643.3479858,-13.7299995422363
643.3636108,-12.8400001525879
643.3792358,-9.5600004196167
643.3948608,-3.29999995231628
643.4104858,6.23000001907349
643.4261108,17.9400005340576
643.4417358,29.3899993896484
643.4573608,38.189998626709
643.4729858,43.1599998474121
643.4886108,44.6500015258789
643.5042358,43.9300003051758
643.5198608,42.2900009155273
643.5354858,40.3499984741211
643.5511108,37.9700012207031
643.5667358,34.6599998474121
643.5823608,29.9899997711182
643.5979858,23.8500003814697
643.6136108,16.4699993133545
643.6292358,8.47000026702881
643.6448608,0.850000023841858
643.6604858,-5.21000003814697
643.6761108,-9.05000019073486
643.6917358,-11.0799999237061
643.7073608,-12.3800001144409
643.7229858,-13.8299999237061
643.7386108,-15.6999998092651
643.7542358,-17.6100006103516
643.7698608,-19.0400009155273
643.7854858,-19.7399997711182
643.8011108,-20.0100002288818
643.8167358,-20.5799999237061
643.8323608,-22.1200008392334
643.8479858,-24.7000007629395
643.8636108,-27.4300003051758
643.8792358,-28.9899997711182
643.8948608,-28.8999996185303
643.9104858,-27.8999996185303
643.9261108,-27.0599994659424
643.9417358,-26.7399997711182
643.9573608,-26.3799991607666
643.9729858,-25.1200008392334
643.9886108,-22.4599990844727
644.0042358,-18.1399993896484
644.0198608,-11.4700002670288
644.0354858,-1.42999994754791
644.0511108,12.1099996566772
644.0667358,27.5300006866455
644.0823608,41.8499984741211
644.0979858,52.1199989318848
644.1136108,56.75
644.1292358,56.0200004577637
644.1448608,51.7200012207031
644.1604858,46.2099990844727
644.1761108,41.3600006103516
644.1917358,37.9099998474121
644.2073608,35.2299995422363
644.2229858,31.7399997711182
644.2386108,25.7199993133545
644.2542358,16.3199996948242
644.2698608,4.21999979019165
644.2854858,-8.52999973297119
644.3011108,-19.3899993896484
644.3167358,-26.4200000762939
644.3323608,-29.1800003051758
644.3479858,-28.8299999237061
644.3636108,-27.3299999237061
644.3792358,-26.2700004577637
644.3948608,-26.1299991607666
644.4104858,-26.4699993133545
644.4261108,-26.4699993133545
644.4417358,-25.6800003051758
644.4573608,-24.2900009155273
644.4729858,-22.9400005340576
644.4886108,-22.1299991607666
644.5042358,-21.8899993896484
644.5198608,-22.0699996948242
644.5354858,-22.6599998474121
644.5511108,-23.5300006866455
644.5667358,-24.1399993896484
644.5823608,-23.8600006103516
644.5979858,-22.6399993896484
644.6136108,-21.0699996948242
644.6292358,-19.6900005340576
644.6448608,-17.9300003051758
644.6604858,-13.8599996566772
644.6761108,-5.63000011444092
644.6917358,6.76000022888184
644.7073608,21.2199993133545
644.7229858,34.5200004577637
644.7386108,43.8899993896484
644.7542358,48.0999984741211
644.7698608,47.7900009155273
644.7854858,44.7900009155273
644.8011108,41.1100006103516
644.8167358,37.7099990844727
644.8323608,33.8800010681152
644.8479858,28.1000003814697
644.8636108,19.5599994659424
644.8792358,8.97000026702881
644.8948608,-2.01999998092651
644.9104858,-11.6999998092651
644.9261108,-18.75
644.9417358,-22.6700000762939
644.9573608,-23.8299999237061
644.9729858,-23.0699996948242
644.9886108,-21.2900009155273
645.0042358,-19.3199996948242
645.0198608,-18.0200004577637
645.0354858,-18.1700000762939
645.0511108,-20.1000003814697
645.0667358,-23.3999996185303
645.0823608,-27.0400009155273
645.0979858,-29.8099994659424
645.1136108,-30.9599990844727
645.1292358,-30.5100002288818
645.1448608,-29.1599998474121
645.1604858,-27.6700000762939
645.1761108,-26.5799999237061
645.1917358,-26.1900005340576
645.2073608,-26.6399993896484
645.2229858,-27.7399997711182
645.2386108,-28.75
645.2542358,-28.4099998474121
645.2698608,-25.0400009155273
645.2854858,-17.1000003814697
645.3011108,-4.19999980926514
645.3167358,12.1400003433228
645.3323608,28.9899997711182
645.3479858,43.2000007629395
645.3636108,52.689998626709
645.3792358,56.9900016784668
645.3948608,57.1399993896484
645.4104858,54.8400001525879
645.4261108,51.4900016784668
645.4417358,47.5200004577637
645.4573608,42.5
645.4729858,35.6199989318848
645.4886108,26.6000003814697
645.5042358,16.2399997711182
645.5198608,6.13000011444092
645.5354858,-2.26999998092651
645.5511108,-8.23999977111816
645.5667358,-11.710000038147
645.5823608,-13.0799999237061
645.5979858,-13.0799999237061
645.6136108,-12.6700000762939
645.6292358,-12.9499998092651
645.6448608,-14.6300001144409
645.6604858,-17.6100006103516
645.6761108,-21.0
645.6917358,-23.8099994659424
645.7073608,-25.4300003051758
645.7229858,-25.7900009155273
645.7386108,-25.2800006866455
645.7542358,-24.5100002288818
645.7698608,-24.0400009155273
645.7854858,-24.3199996948242
645.8011108,-25.4899997711182
645.8167358,-27.2800006866455
645.8323608,-29.0100002288818
645.8479858,-29.75
645.8636108,-28.0599994659424
645.8792358,-22.1000003814697
645.8948608,-10.710000038147
645.9104858,5.34000015258789
645.9261108,23.2999992370605
645.9417358,39.5699996948242
645.9573608,51.3499984741211
645.9729858,57.5299987792969
645.9886108,58.75
646.0042358,56.689998626709
646.0198608,53.0699996948242
646.0354858,48.9599990844727
646.0511108,44.6800003051758
646.0667358,40.0
646.0823608,34.4900016784668
646.0979858,27.7800006866455
646.1136108,19.9599990844727
646.1292358,11.6700000762939
646.1448608,3.92000007629395
646.1604858,-2.3199999332428
646.1761108,-6.76999998092651
646.1917358,-10.2200002670288
646.2073608,-13.9399995803833
646.2229858,-18.6000003814697
646.2386108,-23.7299995422363
646.2542358,-28.1299991607666
646.2698608,-30.5799999237061
646.2854858,-30.5900001525879
646.3011108,-28.8700008392334
646.3167358,-26.9599990844727
646.3323608,-26.1200008392334
646.3479858,-26.5
646.3636108,-27.4400005340576
646.3792358,-28.3099994659424
646.3948608,-29.2000007629395
646.4104858,-30.5499992370605
646.4261108,-32.4000015258789
646.4417358,-33.8400001525879
646.4573608,-33.189998626709
646.4729858,-28.6700000762939
646.4886108,-19.1100006103516
646.5042358,-4.46999979019165
646.5198608,13.710000038147
646.5354858,32.5
646.5511108,48.6300010681152
646.5667358,59.9500007629395
646.5823608,65.9000015258789
646.5979858,67.1399993896484
646.6136108,64.7099990844727
646.6292358,59.5299987792969
646.6448608,52.1599998474121
646.6604858,42.9799995422363
646.6761108,32.3600006103516
646.6917358,20.7800006866455
646.7073608,9.02999973297119
646.7229858,-1.6599999666214
646.7386108,-10.0200004577637
646.7542358,-15.3999996185303
646.7698608,-18.1700000762939
646.7854858,-19.4500007629395
646.8011108,-20.3600006103516
646.8167358,-21.4300003051758
646.8323608,-22.7700004577637
646.8479858,-24.25
646.8636108,-25.6200008392334
646.8792358,-26.7299995422363
646.8948608,-27.7999992370605
646.9104858,-29.3099994659424
646.9261108,-31.5300006866455
646.9417358,-34.3499984741211
646.9573608,-37.1599998474121
646.9729858,-39.0400009155273
646.9886108,-39.1300010681152
647.0042358,-37.1399993896484
647.0198608,-33.6100006103516
647.0354858,-29.7900009155273
647.0511108,-26.7199993133545
647.0667358,-23.9799995422363
647.0823608,-19.4400005340576
647.0979858,-10.7299995422363
647.1136108,2.91000008583069
647.1292358,19.9500007629395
647.1448608,37.4500007629395
647.1604858,52.3899993896484
647.1761108,62.5999984741211
647.1917358,67.2799987792969
647.2073608,67.1100006103516
647.2229858,63.8199996948242
647.2386108,59.0999984741211
647.2542358,53.7200012207031
647.2698608,47.4700012207031
647.2854858,39.7799987792969
647.3011108,30.3999996185303
647.3167358,19.8299999237061
647.3323608,9.27000045776367
647.3479858,0.0700000002980232
647.3636108,-7.0
647.3792358,-12.1400003433228
647.3948608,-16.2000007629395
647.4104858,-20.0799999237061
647.4261108,-24.0100002288818
647.4417358,-27.5699996948242
647.4573608,-30.3899993896484
647.4729858,-32.6199989318848
647.4886108,-34.5099983215332
647.5042358,-35.8499984741211
647.5198608,-36.1199989318848
647.5354858,-35.2200012207031
647.5511108,-33.8600006103516
647.5667358,-32.9700012207031
647.5823608,-33.0400009155273
647.5979858,-34.0400009155273
647.6136108,-35.5900001525879
647.6292358,-36.9700012207031
647.6448608,-37.1300010681152
647.6604858,-34.5099983215332
647.6761108,-27.2999992370605
647.6917358,-14.210000038147
647.7073608,4.36999988555908
647.7229858,25.9200000762939
647.7386108,46.5400009155273
647.7542358,62.5200004577637
647.7698608,71.870002746582
647.7854858,74.879997253418
647.8011108,73.4300003051758
647.8167358,69.75
647.8323608,65.25
647.8479858,59.9900016784668
647.8636108,53.0400009155273
647.8792358,43.5400009155273
647.8948608,31.7600002288818
647.9104858,19.2000007629395
647.9261108,7.73999977111816
647.9417358,-1.27999997138977
647.9573608,-7.36999988555908
647.9729858,-10.5699996948242
647.9886108,-11.5100002288818
648.0042358,-11.460000038147
648.0198608,-11.9799995422363
648.0354858,-14.1000003814697
648.0511108,-17.7700004577637
648.0667358,-22.1599998474121
648.0823608,-26.3400001525879
648.0979858,-29.7999992370605
648.1136108,-32.75
648.1292358,-35.7200012207031
648.1448608,-38.8600006103516
648.1604858,-41.7000007629395
648.1761108,-43.6300010681152
648.1917358,-44.4900016784668
648.2073608,-44.4099998474121
648.2229858,-43.1599998474121
648.2386108,-39.7400016784668
648.2542358,-32.7000007629395
648.2698608,-20.8400001525879
648.2854858,-4.03999996185303
648.3011108,16.2900009155273
648.3167358,37.3600006103516
648.3323608,55.7700004577637
648.3479858,68.7099990844727
648.3636108,74.879997253418
648.3792358,74.75
648.3948608,69.9599990844727
648.4104858,62.4099998474121
648.4261108,53.6500015258789
648.4417358,44.4300003051758
648.4573608,34.7000007629395
648.4729858,24.1399993896484
648.4886108,12.8699998855591
648.5042358,1.8400000333786
648.5198608,-7.67999982833862
648.5354858,-15.0600004196167
648.5511108,-20.6200008392334
648.5667358,-25.3199996948242
648.5823608,-29.9599990844727
648.5979858,-34.7900009155273
648.6136108,-39.5800018310547
648.6292358,-43.810001373291
648.6448608,-46.9700012207031
648.6604858,-48.6800003051758
648.6761108,-48.9500007629395
648.6917358,-48.0200004577637
648.7073608,-46.2000007629395
648.7229858,-43.75
648.7386108,-41.1500015258789
648.7542358,-39.1300010681152
648.7698608,-38.2599983215332
648.7854858,-38.2599983215332
648.8011108,-37.7799987792969
648.8167358,-34.8400001525879
648.8323608,-27.9200000762939
648.8479858,-16.6599998474121
648.8636108,-1.87999999523163
648.8792358,14.8000001907349
648.8948608,31.4599990844727
648.9104858,46.2700004577637
648.9261108,57.8300018310547
648.9417358,65.4400024414063
648.9573608,69.3000030517578
648.9729858,70.1600036621094
648.9886108,68.8199996948242
649.0042358,65.5999984741211
649.0198608,60.3400001525879
649.0354858,52.439998626709
649.0511108,41.5400009155273
649.0667358,28.25
649.0823608,14.2700004577637
649.0979858,1.61000001430511
649.1136108,-8.43000030517578
649.1292358,-15.6899995803833
649.1448608,-20.9099998474121
649.1604858,-25.1299991607666
649.1761108,-29.0900001525879
649.1917358,-33.1399993896484
649.2073608,-37.2900009155273
649.2229858,-41.2799987792969
649.2386108,-44.6199989318848
649.2542358,-46.9099998474121
649.2698608,-48.2299995422363
649.2854858,-49.0400009155273
649.3011108,-49.6800003051758
649.3167358,-50.2099990844727
649.3323608,-50.5299987792969
649.3479858,-50.2099990844727
649.3636108,-48.2000007629395
649.3792358,-42.7999992370605
649.3948608,-32.1699981689453
649.4104858,-15.5200004577637
649.4261108,5.69000005722046
649.4417358,28.0400009155273
649.4573608,47.5900001525879
649.4729858,61.6699981689453
649.4886108,69.8399963378906
649.5042358,73.4899978637695
649.5198608,74.5899963378906
649.5354858,74.370002746582
649.5511108,72.7399978637695
649.5667358,68.7900009155273
649.5823608,61.5999984741211
649.5979858,50.6300010681152
649.6136108,35.9099998474121
649.6292358,18.3700008392334
649.6448608,0.209999993443489
649.6604858,-15.8299999237061
649.6761108,-27.8899993896484
649.6917358,-35.6500015258789
649.7073608,-40.0400009155273
649.7229858,-42.4199981689453
649.7386108,-43.9900016784668
649.7542358,-45.3800010681152
649.7698608,-46.4900016784668
649.7854858,-46.689998626709
649.8011108,-45.4300003051758
649.8167358,-42.6399993896484
649.8323608,-38.8699989318848
649.8479858,-35.2299995422363
649.8636108,-33.0400009155273
649.8792358,-33.1599998474121
649.8948608,-35.4900016784668
649.9104858,-38.8800010681152
649.9261108,-41.2799987792969
649.9417358,-39.8800010681152
649.9573608,-31.8400001525879
649.9729858,-15.8299999237061
649.9886108,6.57000017166138
650.0042358,31.2900009155273
650.0198608,53.4799995422363
650.0354858,69.6800003051758
650.0511108,78.870002746582
650.0667358,82.1399993896484
650.0823608,81.5699996948242
650.0979858,79.2200012207031
650.1136108,76.4199981689453
650.1292358,73.4800033569336
650.1448608,69.6100006103516
650.1604858,63.2299995422363
650.1761108,52.75
650.1917358,37.7000007629395
650.2073608,19.3999996185303
650.2229858,0.620000004768372
650.2386108,-15.7200002670288
650.2542358,-28.1000003814697
650.2698608,-36.7700004577637
650.2854858,-42.8899993896484
650.3011108,-47.4000015258789
650.3167358,-50.6199989318848
650.3323608,-52.75
650.3479858,-54.3800010681152
650.3636108,-56.4700012207031
650.3792358,-59.7099990844727
650.3948608,-63.7299995422363
650.4104858,-67.0
650.4261108,-67.9100036621094
650.4417358,-66.0199966430664
650.4573608,-62.0900001525879
650.4729858,-57.0
650.4886108,-50.5200004577637
650.5042358,-41.1699981689453
650.5198608,-27.2299995422363
650.5354858,-8.0
650.5511108,15.4200000762939
650.5667358,40.2200012207031
650.5823608,62.6199989318848
650.5979858,79.1100006103516
650.6136108,87.8300018310547
650.6292358,89.3000030517578
650.6448608,86.1600036621094
650.6604858,81.5599975585938
650.6761108,77.4100036621094
650.6917358,73.5500030517578
650.7073608,68.3600006103516
650.7229858,60.0800018310547
650.7386108,47.7799987792969
650.7542358,31.7000007629395
650.7698608,13.0900001525879
650.7854858,-6.11999988555908
650.8011108,-23.8299999237061
650.8167358,-38.2599983215332
650.8323608,-48.4099998474121
650.8479858,-54.2400016784668
650.8636108,-56.6199989318848
650.8792358,-57.0200004577637
650.8948608,-56.7900009155273
650.9104858,-56.7200012207031
650.9261108,-56.9799995422363
650.9417358,-57.2999992370605
650.9573608,-57.2400016784668
650.9729858,-56.5699996948242
650.9886108,-55.5400009155273
651.0042358,-54.6300010681152
651.0198608,-54.060001373291
651.0354858,-53.060001373291
651.0511108,-49.4799995422363
651.0667358,-40.4000015258789
651.0823608,-23.7399997711182
651.0979858,0.129999995231628
651.1136108,28.0699996948242
651.1292358,55.4700012207031
651.1448608,78.1900024414063
651.1604858,93.9000015258789
651.1761108,102.230003356934
651.1917358,104.349998474121
651.2073608,102.169998168945
651.2229858,97.5699996948242
651.2386108,91.9000015258789
651.2542358,85.6800003051758
651.2698608,78.379997253418
651.2854858,68.5899963378906
651.3011108,54.9799995422363
651.3167358,37.6699981689453
651.3323608,18.6900005340576
651.3479858,1.11000001430511
651.3636108,-12.5600004196167
651.3792358,-21.6399993896484
651.3948608,-27.3099994659424
651.4104858,-31.7999992370605
651.4261108,-36.7700004577637
651.4417358,-42.1599998474121
651.4573608,-46.6800003051758
651.4729858,-49.2900009155273
651.4886108,-50.2700004577637
651.5042358,-50.7099990844727
651.5198608,-51.4099998474121
651.5354858,-52.3899993896484
651.5511108,-53.2799987792969
651.5667358,-53.8300018310547
651.5823608,-53.9000015258789
651.5979858,-52.7999992370605
651.6136108,-48.5999984741211
651.6292358,-38.3300018310547
651.6448608,-19.75
651.6604858,6.48000001907349
651.6761108,36.1300010681152
651.6917358,63.0299987792969
651.7073608,82.25
651.7229858,92.4599990844727
651.7386108,95.879997253418
651.7542358,95.8399963378906
651.7698608,94.3899993896484
651.7854858,91.379997253418
651.8011108,85.3600006103516
651.8167358,74.9000015258789
651.8323608,59.5900001525879
651.8479858,40.310001373291
651.8636108,18.9899997711182
651.8792358,-1.98000001907349
651.8948608,-20.3799991607666
651.9104858,-34.6300010681152
651.9261108,-44.3400001525879
651.9417358,-50.3699989318848
651.9573608,-54.3699989318848
651.9729858,-57.8600006103516
651.9886108,-61.5900001525879
652.0042358,-65.5199966430664
652.0198608,-68.9499969482422
652.0354858,-70.879997253418
652.0511108,-70.5899963378906
652.0667358,-68.2300033569336
652.0823608,-64.5899963378906
652.0979858,-60.6300010681152
652.1136108,-56.9700012207031
652.1292358,-53.5999984741211
652.1448608,-49.5800018310547
652.1604858,-42.8499984741211
652.1761108,-30.8700008392334
652.1917358,-12.1800003051758
652.2073608,12.1899995803833
652.2229858,38.8899993896484
652.2386108,63.6300010681152
652.2542358,83.0
652.2698608,95.4599990844727
652.2854858,101.230003356934
652.3011108,101.5
652.3167358,97.6900024414063
652.3323608,91.0400009155273
652.3479858,82.4499969482422
652.3636108,72.3199996948242
652.3792358,60.4199981689453
652.3948608,46.0400009155273
652.4104858,28.8700008392334
652.4261108,9.80000019073486
652.4417358,-9.15999984741211
652.4573608,-25.75
652.4729858,-38.3199996948242
652.4886108,-46.4599990844727
652.5042358,-51.25
652.5198608,-54.7299995422363
652.5354858,-58.5800018310547
652.5511108,-63.2200012207031
652.5667358,-67.9000015258789
652.5823608,-71.4700012207031
652.5979858,-73.120002746582
652.6136108,-72.7099990844727
652.6292358,-70.5400009155273
652.6448608,-67.1100006103516
652.6604858,-63.0400009155273
652.6761108,-58.9599990844727
652.6917358,-54.7799987792969
652.7073608,-48.939998626709
652.7229858,-38.6100006103516
652.7386108,-21.3700008392334
