Time(s),Value(%)
313.0022828,8.4399995803833
313.0179078,2.02999997138977
313.0335328,-4.6100001335144
313.0491578,-11.4700002670288
313.0647828,-18.5
313.0804078,-25.5499992370605
313.0960328,-32.25
313.1116578,-38.0499992370605
313.1272828,-42.5400009155273
313.1429078,-45.7700004577637
313.1585328,-48.1500015258789
313.1741578,-50.0400009155273
313.1897828,-51.5900001525879
313.2054078,-52.8199996948242
313.2210328,-53.7400016784668
313.2366578,-54.2999992370605
313.2522828,-54.0499992370605
313.2679078,-52.060001373291
313.2835328,-47.4500007629395
313.2991578,-40.0800018310547
313.3147828,-30.5100002288818
313.3304078,-19.4300003051758
313.3460328,-7.40000009536743
313.3616578,4.96999979019165
313.3772828,16.7399997711182
313.3929078,26.6299991607666
313.4085328,33.7299995422363
313.4241578,38.1699981689453
313.4397828,40.7799987792969
313.4554078,42.2299995422363
313.4710328,42.7000007629395
313.4866578,42.189998626709
313.5022828,40.8199996948242
313.5179078,38.8899993896484
313.5335328,36.810001373291
313.5491578,34.9599990844727
313.5647828,33.5299987792969
313.5804078,32.5299987792969
313.5960328,31.8199996948242
313.6116578,31.2600002288818
313.6272828,30.7600002288818
313.6429078,30.2299995422363
313.6585328,29.3700008392334
313.6741578,27.6800003051758
313.6897828,24.6900005340576
313.7054078,20.3799991607666
313.7210328,15.1400003433228
313.7366578,9.5600004196167
313.7522828,4.15000009536743
313.7679078,-0.75
313.7835328,-5.01999998092651
313.7991578,-8.71000003814697
313.8147828,-12.0
313.8304078,-15.1199998855591
313.8460328,-18.1800003051758
313.8616578,-21.1599998474121
313.8772828,-24.0200004577637
313.8929078,-26.7700004577637
313.9085328,-29.4799995422363
313.9241578,-32.2299995422363
313.9397828,-35.0
313.9554078,-37.7400016784668
313.9710328,-40.4799995422363
313.9866578,-43.3699989318848
314.0022828,-46.5699996948242
314.0179078,-50.1199989318848
314.0335328,-53.8400001525879
314.0491578,-57.4300003051758
314.0647828,-60.6399993896484
314.0804078,-63.310001373291
314.0960328,-65.4300003051758
314.1116578,-66.879997253418
314.1272828,-67.2600021362305
314.1429078,-65.8499984741211
314.1585328,-62.1100006103516
314.1741578,-56.1699981689453
314.1897828,-48.9000015258789
314.2054078,-41.3899993896484
314.2210328,-34.4799995422363
314.2366578,-28.5100002288818
314.2522828,-23.5200004577637
314.2679078,-19.4200000762939
314.2835328,-16.1499996185303
314.2991578,-13.5
314.3147828,-10.9799995422363
314.3304078,-7.80000019073486
314.3460328,-3.25
314.3616578,2.71000003814697
314.3772828,9.32999992370605
314.3929078,15.1899995803833
314.4085328,19.0200004577637
314.4241578,20.25
314.4397828,18.9300003051758
314.4554078,15.4300003051758
314.4710328,10.1800003051758
314.4866578,3.74000000953674
314.5022828,-3.19000005722046
314.5179078,-10.0900001525879
314.5335328,-16.9699993133545
314.5491578,-24.5200004577637
314.5647828,-33.5699996948242
314.5804078,-44.3499984741211
314.5960328,-56.2900009155273
314.6116578,-68.3899993896484
314.6272828,-79.7600021362305
314.6429078,-89.8199996948242
314.6585328,-98.0400009155273
314.6741578,-103.680000305176
314.6897828,-106.089996337891
314.7054078,-105.199996948242
314.7210328,-101.73999786377
314.7366578,-96.9000015258789
314.7522828,-91.7699966430664
314.7679078,-87.0599975585938
314.7835328,-82.9700012207031
314.7991578,-79.379997253418
314.8147828,-76.2399978637695
314.8304078,-73.7600021362305
314.8460328,-72.2399978637695
314.8616578,-71.8399963378906
314.8772828,-72.7099990844727
314.8929078,-75.2300033569336
314.9085328,-79.7399978637695
314.9241578,-86.0400009155273
314.9397828,-93.2600021362305
314.9554078,-100.190002441406
314.9710328,-106.160003662109
314.9866578,-111.349998474121
315.0022828,-116.199996948242
315.0179078,-120.519996643066
315.0335328,-123.48999786377
315.0491578,-124.470001220703
315.0647828,-123.459999084473
315.0804078,-121.269996643066
315.0960328,-119.569999694824
315.1116578,-120.730003356934
315.1272828,-126.610000610352
315.1429078,-137.490005493164
315.1585328,-152.570007324219
315.1741578,-171.179992675781
315.1897828,-192.949996948242
315.2054078,-216.800003051758
315.2210328,-240.009994506836
315.2366578,-258.489990234375
315.2522828,-269.200012207031
315.2679078,-272.179992675781
315.2835328,-269.670013427734
315.2991578,-263.579986572266
315.3147828,-254.539993286133
315.3304078,-242.710006713867
315.3460328,-228.580001831055
315.3616578,-212.25
315.3772828,-195.520004272461
315.3929078,-178.630004882813
315.4085328,-161.369995117188
315.4241578,-143.610000610352
315.4397828,-125.639999389648
315.4554078,-108.059997558594
315.4710328,-91.5
315.4866578,-76.1900024414063
315.5022828,-61.7700004577637
315.5179078,-47.4599990844727
315.5335328,-32.5699996948242
315.5491578,-17.1499996185303
315.5647828,-1.73000001907349
315.5804078,13.1000003814697
315.5960328,27.1599998474121
315.6116578,40.5
315.6272828,53.2599983215332
315.6429078,65.5800018310547
315.6585328,77.5400009155273
315.6741578,89.25
315.6897828,100.790000915527
315.7054078,112.129997253418
315.7210328,123.139999389648
315.7366578,133.630004882813
315.7522828,143.460006713867
315.7679078,152.589996337891
315.7835328,161.119995117188
315.7991578,169.320007324219
315.8147828,177.660003662109
315.8304078,186.690002441406
315.8460328,196.770004272461
315.8616578,207.839996337891
315.8772828,219.490005493164
315.8929078,231.410003662109
315.9085328,243.399993896484
315.9241578,255.190002441406
315.9397828,266.25
315.9554078,275.769989013672
315.9710328,283.079986572266
315.9866578,288.019989013672
316.0022828,290.880004882813
316.0179078,292.029998779297
316.0335328,291.730010986328
316.0491578,290.260009765625
316.0647828,287.959991455078
316.0804078,285.079986572266
316.0960328,281.350006103516
316.1116578,275.899993896484
316.1272828,267.799987792969
316.1429078,256.929992675781
316.1585328,244.199996948242
316.1741578,231.100006103516
316.1897828,218.919998168945
316.2054078,208.380004882813
316.2210328,199.850006103516
316.2366578,193.759994506836
316.2522828,190.529998779297
316.2679078,190.039993286133
316.2835328,191.419998168945
316.2991578,193.339996337891
316.3147828,194.580001831055
316.3304078,194.490005493164
316.3460328,193.110000610352
316.3616578,188.600006103516
316.3772828,184.020004272461
316.3929078,179.809997558594
316.4085328,176.160003662109
316.4241578,172.990005493164
316.4397828,170.149993896484
316.4554078,167.619995117188
316.4710328,165.399993896484
316.4866578,163.449996948242
316.5022828,161.490005493164
316.5179078,159.160003662109
316.5335328,156.479995727539
316.5491578,154.110000610352
316.5647828,152.899993896484
316.5804078,153.050003051758
316.5960328,154.009994506836
316.6116578,154.889999389648
316.6272828,155.029998779297
316.6429078,154.25
316.6585328,153.039993286133
316.6741578,152.309997558594
316.6897828,152.910003662109
316.7054078,155.050003051758
316.7210328,158.380004882813
316.7366578,162.389999389648
316.7522828,166.679992675781
316.7679078,170.75
316.7835328,173.610000610352
316.7991578,173.660003662109
316.8147828,169.720001220703
316.8304078,162.020004272461
316.8460328,151.990005493164
316.8616578,141.149993896484
316.8772828,130.399993896484
316.8929078,120.0
316.9085328,109.849998474121
316.9241578,99.8000030517578
316.9397828,89.879997253418
316.9554078,80.2600021362305
316.9710328,71.1999969482422
316.9866578,62.7999992370605
317.0022828,55.0900001525879
317.0179078,48.1300010681152
317.0335328,41.939998626709
317.0491578,36.3600006103516
317.0647828,30.8999996185303
317.0804078,24.7199993133545
317.0960328,17.1499996185303
317.1116578,8.10000038146973
317.1272828,-1.99000000953674
317.1429078,-12.6099996566772
317.1585328,-23.3600006103516
317.1741578,-34.0
317.1897828,-44.3899993896484
317.2054078,-54.5800018310547
317.2210328,-65.2699966430664
317.2366578,-77.9300003051758
317.2522828,-93.9400024414063
317.2679078,-113.569999694824
317.2835328,-136.139999389648
317.2991578,-160.880004882813
317.3147828,-187.210006713867
317.3304078,-214.259994506836
317.3460328,-240.289993286133
317.3616578,-257.910003662109
317.3772828,-270.0
317.3929078,-276.890014648438
317.4085328,-279.980010986328
317.4241578,-280.420013427734
317.4397828,-278.619995117188
317.4554078,-274.820007324219
317.4710328,-269.519989013672
317.4866578,-263.410003662109
317.5022828,-257.170013427734
317.5179078,-251.199996948242
317.5335328,-245.630004882813
317.5491578,-240.380004882813
317.5647828,-235.440002441406
317.5804078,-230.960006713867
317.5960328,-227.130004882813
317.6116578,-223.929992675781
317.6272828,-220.940002441406
317.6429078,-217.429992675781
317.6585328,-212.910003662109
317.6741578,-207.520004272461
317.6897828,-201.779998779297
317.7054078,-196.059997558594
317.7210328,-190.399993896484
317.7366578,-184.619995117188
317.7522828,-178.619995117188
317.7679078,-172.460006713867
317.7835328,-166.419998168945
317.7991578,-160.910003662109
317.8147828,-156.270004272461
317.8304078,-152.589996337891
317.8460328,-149.779998779297
317.8616578,-147.830001831055
317.8772828,-146.729995727539
317.8929078,-146.309997558594
317.9085328,-145.910003662109
317.9241578,-144.589996337891
317.9397828,-141.710006713867
317.9554078,-137.429992675781
317.9710328,-132.460006713867
317.9866578,-127.300003051758
318.0022828,-122.01000213623
318.0179078,-116.410003662109
318.0335328,-110.430000305176
318.0491578,-104.180000305176
318.0647828,-97.9800033569336
318.0804078,-92.2799987792969
318.0960328,-87.4400024414063
318.1116578,-83.5400009155273
318.1272828,-80.5199966430664
318.1429078,-78.4199981689453
318.1585328,-77.3000030517578
318.1741578,-76.9599990844727
318.1897828,-76.7399978637695
318.2054078,-75.5599975585938
318.2210328,-72.6600036621094
318.2366578,-68.0999984741211
318.2522828,-62.5800018310547
318.2679078,-56.7000007629395
318.2835328,-50.8800010681152
318.2991578,-45.5699996948242
318.3147828,-41.2400016784668
318.3304078,-38.0299987792969
318.3460328,-35.5299987792969
318.3616578,-32.2999992370605
318.3772828,-28.5699996948242
318.3929078,-24.3899993896484
318.4085328,-20.0799999237061
318.4241578,-15.710000038147
318.4397828,-11.039999961853
318.4554078,-5.88000011444092
318.4710328,-0.280000001192093
318.4866578,5.5
318.5022828,11.3400001525879
318.5179078,17.3799991607666
318.5335328,23.8899993896484
318.5491578,30.9799995422363
318.5647828,38.5999984741211
318.5804078,46.7400016784668
318.5960328,55.3800010681152
318.6116578,64.3499984741211
318.6272828,73.2399978637695
318.6429078,81.620002746582
318.6585328,89.3499984741211
318.6741578,96.6500015258789
318.6897828,103.769996643066
318.7054078,110.589996337891
318.7210328,116.650001525879
318.7366578,121.540000915527
318.7522828,125.220001220703
318.7679078,127.959999084473
318.7835328,130.229995727539
318.7991578,132.470001220703
318.8147828,134.970001220703
318.8304078,137.75
318.8460328,140.75
318.8616578,143.970001220703
318.8772828,147.449996948242
318.8929078,151.089996337891
318.9085328,154.429992675781
318.9241578,156.720001220703
318.9397828,157.410003662109
318.9554078,156.539993286133
318.9710328,154.649993896484
318.9866578,152.210006713867
319.0022828,149.410003662109
319.0179078,146.289993286133
319.0335328,142.839996337891
319.0491578,139.190002441406
319.0647828,135.639999389648
319.0804078,132.690002441406
319.0960328,130.75
319.1116578,129.889999389648
319.1272828,129.949996948242
319.1429078,130.720001220703
319.1585328,132.089996337891
319.1741578,133.789993286133
319.1897828,135.229995727539
319.2054078,135.529998779297
319.2210328,134.009994506836
319.2366578,130.75
319.2522828,126.330001831055
319.2679078,121.309997558594
319.2835328,115.919998168945
319.2991578,110.199996948242
319.3147828,104.199996948242
319.3304078,98.0599975585938
319.3460328,91.9899978637695
319.3616578,85.4899978637695
319.3772828,79.6999969482422
319.3929078,74.6399993896484
319.4085328,70.2099990844727
319.4241578,66.3199996948242
319.4397828,62.939998626709
319.4554078,59.939998626709
319.4710328,56.9799995422363
319.4866578,53.5299987792969
319.5022828,49.1100006103516
319.5179078,43.6399993896484
319.5335328,37.3499984741211
319.5491578,30.6100006103516
319.5647828,23.6900005340576
319.5804078,16.8299999237061
319.5960328,10.1599998474121
319.6116578,3.75999999046326
319.6272828,-2.45000004768372
319.6429078,-8.72000026702881
319.6585328,-15.2700004577637
319.6741578,-22.1700000762939
319.6897828,-29.3299999237061
319.7054078,-36.6500015258789
319.7210328,-44.0299987792969
319.7366578,-51.3600006103516
319.7522828,-58.3499984741211
319.7679078,-64.629997253418
319.7835328,-69.8899993896484
319.7991578,-74.129997253418
319.8147828,-77.5400009155273
319.8304078,-80.2900009155273
319.8460328,-82.4800033569336
319.8616578,-84.1500015258789
319.8772828,-85.4100036621094
319.8929078,-86.3899993896484
319.9085328,-87.1900024414063
319.9241578,-87.8499984741211
319.9397828,-88.3499984741211
319.9554078,-88.6999969482422
319.9710328,-88.9700012207031
319.9866578,-89.3600006103516
320.0022828,-90.0400009155273
320.0179078,-91.0500030517578
320.0335328,-92.25
320.0491578,-93.4199981689453
320.0647828,-94.4499969482422
320.0804078,-95.3499984741211
320.0960328,-96.2200012207031
320.1116578,-96.9899978637695
320.1272828,-97.5
320.1429078,-97.5800018310547
320.1585328,-97.2200012207031
320.1741578,-96.5400009155273
320.1897828,-95.7900009155273
320.2054078,-95.2699966430664
320.2210328,-95.1999969482422
320.2366578,-95.6100006103516
320.2522828,-96.4599990844727
320.2679078,-97.7600021362305
320.2835328,-99.5299987792969
320.2991578,-101.669998168945
320.3147828,-103.790000915527
320.3304078,-105.300003051758
320.3460328,-105.779998779297
320.3616578,-105.26000213623
320.3772828,-104.160003662109
320.3929078,-102.769996643066
320.4085328,-101.169998168945
320.4241578,-99.4599990844727
320.4397828,-97.8300018310547
320.4554078,-96.379997253418
320.4710328,-95.0
320.4866578,-93.3300018310547
320.5022828,-91.0999984741211
320.5179078,-88.2900009155273
320.5335328,-85.0999984741211
320.5491578,-81.6800003051758
320.5647828,-78.0199966430664
320.5804078,-74.0899963378906
320.5960328,-69.9400024414063
320.6116578,-65.620002746582
320.6272828,-61.0999984741211
320.6429078,-56.1100006103516
320.6585328,-50.3600006103516
320.6741578,-43.7700004577637
320.6897828,-36.4700012207031
320.7054078,-28.6200008392334
320.7210328,-20.3199996948242
320.7366578,-11.7700004577637
320.7522828,-3.33999991416931
320.7679078,4.48000001907349
320.7835328,11.4300003051758
320.7991578,17.5699996948242
320.8147828,23.1599998474121
320.8304078,28.2600002288818
320.8460328,32.75
320.8616578,36.4900016784668
320.8772828,39.5099983215332
320.8929078,42.0099983215332
320.9085328,44.2400016784668
320.9241578,46.4000015258789
320.9397828,48.5900001525879
320.9554078,50.7999992370605
320.9710328,53.0099983215332
320.9866578,55.2400016784668
321.0022828,57.5200004577637
321.0179078,59.8300018310547
321.0335328,62.0
321.0491578,63.689998626709
321.0647828,64.5999984741211
321.0804078,64.6999969482422
321.0960328,64.1600036621094
321.1116578,63.2099990844727
321.1272828,62.0200004577637
321.1429078,60.7099990844727
321.1585328,59.3400001525879
321.1741578,57.9500007629395
321.1897828,56.4900016784668
321.2054078,54.8899993896484
321.2210328,53.0299987792969
321.2366578,50.8899993896484
321.2522828,48.4900016784668
321.2679078,45.8300018310547
321.2835328,42.9000015258789
321.2991578,39.7700004577637
321.3147828,36.5900001525879
321.3304078,33.5800018310547
321.3460328,30.8600006103516
321.3616578,28.3099994659424
321.3772828,25.8899993896484
321.3929078,23.5799999237061
321.4085328,21.4799995422363
321.4241578,19.7099990844727
321.4397828,18.2800006866455
321.4554078,17.1299991607666
321.4710328,16.2800006866455
321.4866578,15.9200000762939
321.5022828,16.2199993133545
321.5179078,17.2299995422363
321.5335328,18.7299995422363
321.5491578,20.3999996185303
321.5647828,21.9599990844727
321.5804078,23.2600002288818
321.5960328,24.2299995422363
321.6116578,24.7900009155273
321.6272828,24.9400005340576
321.6429078,24.7099990844727
321.6585328,24.2000007629395
321.6741578,23.5300006866455
321.6897828,22.7600002288818
321.7054078,21.9599990844727
321.7210328,21.1399993896484
321.7366578,20.3099994659424
321.7522828,19.4300003051758
321.7679078,18.4400005340576
321.7835328,17.3199996948242
321.7991578,16.1100006103516
321.8147828,14.8500003814697
321.8304078,13.5299997329712
321.8460328,12.0699996948242
321.8616578,10.460000038147
321.8772828,8.76000022888184
321.8929078,7.1399998664856
321.9085328,5.65000009536743
321.9241578,4.23999977111816
321.9397828,2.78999996185303
321.9554078,1.28999996185303
321.9710328,-0.119999997317791
321.9866578,-1.33000004291534
322.0022828,-2.27999997138977
322.0179078,-3.0
322.0335328,-3.63000011444092
322.0491578,-4.32999992370605
322.0647828,-5.23999977111816
322.0804078,-6.36999988555908
322.0960328,-7.73000001907349
322.1116578,-9.35999965667725
322.1272828,-11.3100004196167
322.1429078,-13.5299997329712
322.1585328,-15.7600002288818
322.1741578,-17.6100006103516
322.1897828,-18.7299995422363
322.2054078,-19.0900001525879
322.2210328,-18.8400001525879
322.2366578,-18.1599998474121
322.2522828,-17.1299991607666
322.2679078,-15.8299999237061
322.2835328,-14.3500003814697
322.2991578,-12.8000001907349
322.3147828,-11.3199996948242
322.3304078,-9.98999977111816
322.3460328,-8.88000011444092
322.3616578,-7.98999977111816
322.3772828,-7.32999992370605
322.3929078,-6.98000001907349
322.4085328,-7.01000022888184
322.4241578,-7.40999984741211
322.4397828,-8.01000022888184
322.4554078,-8.52999973297119
322.4710328,-8.8100004196167
322.4866578,-8.86999988555908
322.5022828,-8.86999988555908
322.5179078,-8.81999969482422
322.5335328,-8.64000034332275
322.5491578,-8.21000003814697
322.5647828,-7.51000022888184
322.5804078,-6.6399998664856
322.5960328,-5.80000019073486
322.6116578,-5.23999977111816
322.6272828,-5.13000011444092
322.6429078,-5.51999998092651
322.6585328,-6.3600001335144
322.6741578,-7.67999982833862
322.6897828,-9.52000045776367
322.7054078,-11.7799997329712
322.7210328,-14.1300001144409
322.7366578,-16.0200004577637
322.7522828,-17.1000003814697
322.7679078,-17.4300003051758
322.7835328,-17.3600006103516
322.7991578,-17.1299991607666
322.8147828,-16.7999992370605
322.8304078,-16.4500007629395
322.8460328,-16.2199993133545
322.8616578,-16.2000007629395
322.8772828,-16.2800006866455
322.8929078,-16.1200008392334
322.9085328,-15.4799995422363
322.9241578,-14.3599996566772
322.9397828,-12.9799995422363
322.9554078,-11.4799995422363
322.9710328,-9.84000015258789
322.9866578,-8.01000022888184
323.0022828,-5.98999977111816
323.0179078,-3.84999990463257
323.0335328,-1.71000003814697
323.0491578,0.370000004768372
323.0647828,2.39000010490417
323.0804078,4.30999994277954
323.0960328,5.92999982833862
323.1116578,6.88000011444092
323.1272828,6.76999998092651
323.1429078,5.57999992370605
323.1585328,3.70000004768372
323.1741578,1.73000001907349
323.1897828,0.0799999982118607
323.2054078,-1.23000001907349
323.2210328,-2.39000010490417
323.2366578,-3.3199999332428
323.2522828,-3.70000004768372
323.2679078,-3.29999995231628
323.2835328,-2.17000007629395
323.2991578,-0.579999983310699
323.3147828,1.22000002861023
323.3304078,3.20000004768372
323.3460328,5.42000007629395
323.3616578,8.07999992370605
323.3772828,11.0600004196167
323.3929078,14.1800003051758
323.4085328,17.25
323.4241578,20.1599998474121
323.4397828,22.8999996185303
323.4554078,25.5900001525879
323.4710328,28.3600006103516
323.4866578,31.25
323.5022828,34.189998626709
323.5179078,37.0499992370605
323.5335328,39.7099990844727
323.5491578,42.1300010681152
323.5647828,44.310001373291
323.5804078,46.2799987792969
323.5960328,48.0699996948242
323.6116578,49.6699981689453
323.6272828,51.060001373291
323.6429078,52.2200012207031
323.6585328,53.189998626709
323.6741578,53.9700012207031
323.6897828,54.6100006103516
323.7054078,55.1399993896484
323.7210328,55.5900001525879
323.7366578,56.0299987792969
323.7522828,56.560001373291
