Time(s),Value(%)
739.0110287,6.42000007629395
739.0266537,1.96000003814697
739.0422787,-1.73000001907349
739.0579037,-4.57999992370605
739.0735287,-6.61999988555908
739.0891537,-8.09000015258789
739.1047787,-9.26000022888184
739.1204037,-10.4300003051758
739.1360287,-11.8900003433228
739.1516537,-13.7799997329712
739.1672787,-16.0699996948242
739.1829037,-18.6000003814697
739.1985287,-21.1200008392334
739.2141537,-23.4799995422363
739.2297787,-25.6800003051758
739.2454037,-27.7900009155273
739.2610287,-29.7800006866455
739.2766537,-31.4500007629395
739.2922787,-32.5999984741211
739.3079037,-33.1100006103516
739.3235287,-33.0200004577637
739.3391537,-32.5800018310547
739.3547787,-32.0099983215332
739.3704037,-31.3400001525879
739.3860287,-30.4599990844727
739.4016537,-29.2600002288818
739.4172787,-27.4200000762939
739.4329037,-24.1100006103516
739.4485287,-18.1800003051758
739.4641537,-8.75
739.4797787,4.19999980926514
739.4954037,19.4599990844727
739.5110287,34.5800018310547
739.5266537,46.9099998474121
739.5422787,54.5699996948242
739.5579037,57.0099983215332
739.5735287,55.0
739.5891537,50.0699996948242
739.6047787,43.810001373291
739.6204037,37.4199981689453
739.6360287,31.4200000762939
739.6516537,25.7900009155273
739.6672787,20.2399997711182
739.6829037,14.5799999237061
739.6985287,8.9399995803833
739.7141537,3.67000007629395
739.7297787,-0.839999973773956
739.7454037,-4.3899998664856
739.7610287,-6.86999988555908
739.7766537,-8.39000034332275
739.7922787,-9.26000022888184
739.8079037,-9.93000030517578
739.8235287,-10.7799997329712
739.8391537,-12.0200004577637
739.8547787,-13.7299995422363
739.8704037,-15.9399995803833
739.8860287,-18.5799999237061
739.9016537,-21.3500003814697
739.9172787,-23.9300003051758
739.9329037,-26.1200008392334
739.9485287,-27.8899993896484
739.9641537,-29.3799991607666
739.9797787,-30.7299995422363
739.9954037,-31.9699993133545
740.0110287,-32.9900016784668
740.0266537,-33.6699981689453
740.0422787,-33.9300003051758
740.0579037,-33.7299995422363
740.0735287,-33.0299987792969
740.0891537,-31.6599998474121
740.1047787,-29.0799999237061
740.1204037,-24.2600002288818
740.1360287,-15.9799995422363
740.1516537,-3.6800000667572
740.1672787,11.789999961853
740.1829037,28.2999992370605
740.1985287,43.189998626709
740.2141537,54.2200012207031
740.2297787,60.1500015258789
740.2454037,60.9599990844727
740.2610287,57.6699981689453
740.2766537,51.8800010681152
740.2922787,45.0800018310547
740.3079037,38.1500015258789
740.3235287,31.3700008392334
740.3391537,24.6399993896484
740.3547787,17.7999992370605
740.3704037,10.9399995803833
740.3860287,4.48999977111816
740.4016537,-0.990000009536743
740.4172787,-5.05000019073486
740.4329037,-7.48999977111816
740.4485287,-8.35999965667725
740.4641537,-7.96999979019165
740.4797787,-6.67000007629395
740.4954037,-4.80000019073486
740.5110287,-2.76999998092651
740.5266537,-1.10000002384186
740.5422787,-0.319999992847443
740.5579037,-0.680000007152557
740.5735287,-2.17000007629395
740.5891537,-4.71999979019165
740.6047787,-8.18000030517578
740.6204037,-12.2299995422363
740.6360287,-16.3999996185303
740.6516537,-20.1900005340576
740.6672787,-23.2600002288818
740.6829037,-25.4099998474121
740.6985287,-26.5300006866455
740.7141537,-26.4899997711182
740.7297787,-25.3999996185303
740.7454037,-23.8099994659424
740.7610287,-22.5900001525879
740.7766537,-22.2900009155273
740.7922787,-22.5499992370605
740.8079037,-22.0799999237061
740.8235287,-19.2299995422363
740.8391537,-12.6000003814697
740.8547787,-1.50999999046326
740.8704037,13.6700000762939
740.8860287,31.0300006866455
740.9016537,47.3800010681152
740.9172787,59.5699996948242
740.9329037,65.7799987792969
740.9485287,65.9499969482422
740.9641537,61.3899993896484
740.9797787,54.060001373291
740.9954037,45.810001373291
741.0110287,37.8400001525879
741.0266537,30.4599990844727
741.0422787,23.3400001525879
741.0579037,16.0200004577637
741.0735287,8.39999961853027
741.0891537,0.839999973773956
741.1047787,-6.01999998092651
741.1204037,-11.6099996566772
741.1360287,-15.6300001144409
741.1516537,-18.2099990844727
741.1672787,-19.7199993133545
741.1829037,-20.6100006103516
741.1985287,-21.3799991607666
741.2141537,-22.5
741.2297787,-24.3299999237061
741.2454037,-26.9899997711182
741.2610287,-30.3700008392334
741.2766537,-34.189998626709
741.2922787,-37.8800010681152
741.3079037,-40.8199996948242
741.3235287,-42.6599998474121
741.3391537,-43.4199981689453
741.3547787,-43.4000015258789
741.3704037,-43.0
741.3860287,-42.5
741.4016537,-41.9300003051758
741.4172787,-41.0499992370605
741.4329037,-39.6100006103516
741.4485287,-37.439998626709
741.4641537,-34.5699996948242
741.4797787,-30.8999996185303
741.4954037,-25.6399993896484
741.5110287,-17.1700000762939
741.5266537,-4.01000022888184
741.5422787,13.8000001907349
741.5579037,34.310001373291
741.5735287,54.2200012207031
741.5891537,70.2200012207031
741.6047787,80.129997253418
741.6204037,83.5100021362305
741.6360287,81.5100021362305
741.6516537,76.0999984741211
741.6672787,69.1500015258789
741.6829037,61.8400001525879
741.6985287,54.5800018310547
741.7141537,47.2000007629395
741.7297787,39.3300018310547
741.7454037,30.9099998474121
741.7610287,22.1800003051758
741.7766537,13.6599998474121
741.7922787,5.96999979019165
741.8079037,-0.439999997615814
741.8235287,-5.36999988555908
741.8391537,-8.82999992370605
741.8547787,-11.1700000762939
741.8704037,-13.0799999237061
741.8860287,-15.210000038147
741.9016537,-17.8099994659424
741.9172787,-20.7099990844727
741.9329037,-23.6700000762939
741.9485287,-26.5699996948242
741.9641537,-29.3700008392334
741.9797787,-32.0299987792969
741.9954037,-34.4599990844727
742.0110287,-36.6100006103516
742.0266537,-38.3699989318848
742.0422787,-39.6199989318848
742.0579037,-40.2799987792969
742.0735287,-40.2900009155273
742.0891537,-39.6100006103516
742.1047787,-38.4000015258789
742.1204037,-37.0200004577637
742.1360287,-35.7400016784668
742.1516537,-34.4000015258789
742.1672787,-32.2799987792969
742.1829037,-28.1200008392334
742.1985287,-20.3600006103516
742.2141537,-7.78000020980835
742.2297787,9.77000045776367
742.2454037,30.9099998474121
742.2610287,52.9099998474121
742.2766537,72.3199996948242
742.2922787,85.8399963378906
742.3079037,91.5500030517578
742.3235287,89.5599975585938
742.3391537,81.8399963378906
742.3547787,71.1699981689453
742.3704037,59.9000015258789
742.3860287,49.189998626709
742.4016537,39.060001373291
742.4172787,28.9500007629395
742.4329037,18.4599990844727
742.4485287,7.69999980926514
742.4641537,-2.71000003814697
742.4797787,-11.9899997711182
742.4954037,-19.5499992370605
742.5110287,-25.2000007629395
742.5266537,-29.1299991607666
742.5422787,-31.8500003814697
742.5579037,-34.060001373291
742.5735287,-36.3600006103516
742.5891537,-39.0
742.6047787,-41.8199996948242
742.6204037,-44.5499992370605
742.6360287,-46.9099998474121
742.6516537,-48.5099983215332
742.6672787,-49.0999984741211
742.6829037,-48.7799987792969
742.6985287,-48.0200004577637
742.7141537,-47.5
742.7297787,-47.8699989318848
742.7454037,-49.3499984741211
742.7610287,-51.5299987792969
742.7766537,-53.4000015258789
742.7922787,-53.9000015258789
742.8079037,-52.4099998474121
742.8235287,-49.0200004577637
742.8391537,-44.0200004577637
742.8547787,-36.7599983215332
742.8704037,-26.7399997711182
742.8860287,-15.5500001907349
742.9016537,-5.46000003814697
742.9172787,3.76999998092651
742.9329037,14.9700002670288
742.9485287,30.6700000762939
742.9641537,50.7999992370605
742.9797787,72.5199966430664
742.9954037,91.8300018310547
743.0110287,105.370002746582
743.0266537,111.629997253418
743.0422787,111.059997558594
743.0579037,105.5
743.0735287,97.3199996948242
743.0891537,88.2900009155273
743.1047787,78.9300003051758
743.1204037,68.620002746582
743.1360287,56.75
743.1516537,43.7700004577637
743.1672787,31.0799999237061
743.1829037,20.1200008392334
743.1985287,11.5900001525879
743.2141537,5.3899998664856
743.2297787,1.01999998092651
743.2454037,-1.86000001430511
743.2610287,-3.48000001907349
743.2766537,-4.25
743.2922787,-4.8899998664856
743.3079037,-6.17999982833862
743.3235287,-8.71000003814697
743.3391537,-12.5799999237061
743.3547787,-17.5300006866455
743.3704037,-23.1499996185303
743.3860287,-28.9500007629395
743.4016537,-34.3899993896484
743.4172787,-38.9900016784668
743.4329037,-42.4599990844727
743.4485287,-44.7000007629395
743.4641537,-45.8400001525879
743.4797787,-46.2299995422363
743.4954037,-46.2000007629395
743.5110287,-45.7799987792969
743.5266537,-44.7200012207031
743.5422787,-42.9300003051758
743.5579037,-40.689998626709
743.5735287,-38.4900016784668
743.5891537,-36.6199989318848
743.6047787,-35.0
743.6204037,-33.3600006103516
743.6360287,-31.1499996185303
743.6516537,-27.3799991607666
743.6672787,-20.4500007629395
743.6829037,-8.68000030517578
743.6985287,8.69999980926514
743.7141537,30.7700004577637
743.7297787,54.6800003051758
743.7454037,76.5100021362305
743.7610287,92.7300033569336
743.7766537,101.300003051758
743.7922787,102.040000915527
743.8079037,96.1800003051758
743.8235287,85.8199996948242
743.8391537,73.2300033569336
743.8547787,60.1300010681152
743.8704037,47.2700004577637
743.8860287,34.5800018310547
743.9016537,21.8999996185303
743.9172787,9.52000045776367
743.9329037,-1.88999998569489
743.9485287,-11.5799999237061
743.9641537,-19.0499992370605
743.9797787,-24.1700000762939
743.9954037,-27.2600002288818
744.0110287,-28.9899997711182
744.0266537,-30.1299991607666
744.0422787,-31.3400001525879
744.0579037,-32.9099998474121
744.0735287,-34.8300018310547
744.0891537,-36.9799995422363
744.1047787,-39.2900009155273
744.1204037,-41.6800003051758
744.1360287,-44.0499992370605
744.1516537,-46.3499984741211
744.1672787,-48.4500007629395
744.1829037,-50.1399993896484
744.1985287,-51.2999992370605
744.2141537,-51.9700012207031
744.2297787,-52.2400016784668
744.2454037,-52.1300010681152
744.2610287,-51.6500015258789
744.2766537,-50.8800010681152
744.2922787,-50.0299987792969
744.3079037,-49.1800003051758
744.3235287,-48.0900001525879
744.3391537,-46.4300003051758
744.3547787,-44.0499992370605
744.3704037,-40.7900009155273
744.3860287,-36.0200004577637
744.4016537,-28.3999996185303
744.4172787,-16.2600002288818
744.4329037,1.27999997138977
744.4485287,23.4899997711182
744.4641537,47.6599998474121
744.4797787,69.9800033569336
744.4954037,86.9100036621094
744.5110287,96.3899993896484
744.5266537,98.129997253418
744.5422787,93.2399978637695
744.5579037,83.6900024414063
744.5735287,71.7200012207031
744.5891537,59.2599983215332
744.6047787,47.4000015258789
744.6204037,36.4799995422363
744.6360287,26.3600006103516
744.6516537,16.7600002288818
744.6672787,7.69999980926514
744.6829037,-0.280000001192093
744.6985287,-6.53000020980835
744.7141537,-10.710000038147
744.7297787,-12.9799995422363
744.7454037,-13.8999996185303
744.7610287,-14.2399997711182
744.7766537,-14.8299999237061
744.7922787,-16.2999992370605
744.8079037,-18.8700008392334
744.8235287,-22.3400001525879
744.8391537,-26.2900009155273
744.8547787,-30.1900005340576
744.8704037,-33.5900001525879
744.8860287,-36.2999992370605
744.9016537,-38.5299987792969
744.9172787,-40.5099983215332
744.9329037,-42.1800003051758
744.9485287,-43.2599983215332
744.9641537,-43.4799995422363
744.9797787,-42.6800003051758
744.9954037,-40.8300018310547
745.0110287,-38.0
745.0266537,-34.5
745.0422787,-30.8099994659424
745.0579037,-27.2399997711182
745.0735287,-23.4899997711182
745.0891537,-18.5200004577637
745.1047787,-10.6199998855591
745.1204037,1.87999999523163
745.1360287,19.7800006866455
745.1516537,42.4000015258789
745.1672787,67.129997253418
745.1829037,89.5899963378906
745.1985287,105.279998779297
745.2141537,111.650001525879
745.2297787,109.0
745.2454037,99.6699981689453
745.2610287,86.6100006103516
745.2766537,72.3399963378906
745.2922787,58.4300003051758
745.3079037,45.560001373291
745.3235287,33.75
745.3391537,22.75
745.3547787,12.3599996566772
745.3704037,2.72000002861023
745.3860287,-5.71999979019165
745.4016537,-12.6499996185303
745.4172787,-17.8999996185303
745.4329037,-21.5
745.4485287,-23.6399993896484
745.4641537,-24.8099994659424
745.4797787,-25.5900001525879
745.4954037,-26.5599994659424
745.5110287,-28.1000003814697
745.5266537,-30.3099994659424
745.5422787,-33.0800018310547
745.5579037,-36.1500015258789
745.5735287,-39.1399993896484
745.5891537,-41.7799987792969
745.6047787,-43.939998626709
745.6204037,-45.5400009155273
745.6360287,-46.5099983215332
745.6516537,-46.939998626709
745.6672787,-46.9900016784668
745.6829037,-46.6800003051758
745.6985287,-45.8600006103516
745.7141537,-44.439998626709
745.7297787,-42.5099983215332
745.7454037,-40.2299995422363
745.7610287,-37.5900001525879
745.7766537,-33.9099998474121
745.7922787,-27.6200008392334
745.8079037,-16.8999996185303
745.8235287,-0.769999980926514
745.8391537,20.0699996948242
745.8547787,43.189998626709
745.8704037,65.0
745.8860287,81.9199981689453
745.9016537,91.5699996948242
745.9172787,93.3099975585938
745.9329037,88.1399993896484
745.9485287,78.0899963378906
745.9641537,65.620002746582
745.9797787,52.8199996948242
745.9954037,40.9300003051758
746.0110287,30.2299995422363
746.0266537,20.3700008392334
746.0422787,10.8199996948242
746.0579037,1.51999998092651
746.0735287,-7.05999994277954
746.0891537,-14.210000038147
746.1047787,-19.3600006103516
746.1204037,-22.4500007629395
746.1360287,-23.8899993896484
746.1516537,-24.3799991607666
746.1672787,-24.5799999237061
746.1829037,-25.0200004577637
746.1985287,-26.0
746.2141537,-27.6200008392334
746.2297787,-29.75
746.2454037,-32.1699981689453
746.2610287,-34.6500015258789
746.2766537,-36.9799995422363
746.2922787,-39.0499992370605
746.3079037,-40.8199996948242
746.3235287,-42.2200012207031
746.3391537,-43.0999984741211
746.3547787,-43.3300018310547
746.3704037,-42.8300018310547
746.3860287,-41.6399993896484
746.4016537,-39.9700012207031
746.4172787,-38.0400009155273
746.4329037,-35.7799987792969
746.4485287,-32.8699989318848
746.4641537,-28.6299991607666
746.4797787,-21.8600006103516
746.4954037,-10.8999996185303
746.5110287,5.46000003814697
746.5266537,27.0200004577637
746.5422787,51.810001373291
746.5579037,76.2600021362305
746.5735287,95.9300003051758
746.5891537,107.279998779297
746.6047787,109.160003662109
746.6204037,102.809997558594
746.6360287,91.0699996948242
746.6516537,77.0699996948242
746.6672787,63.2099990844727
746.6829037,50.6300010681152
746.6985287,39.3499984741211
746.7141537,28.8299999237061
746.7297787,18.7000007629395
746.7454037,9.07999992370605
746.7610287,0.449999988079071
746.7766537,-6.71000003814697
746.7922787,-12.0900001525879
746.8079037,-15.6499996185303
746.8235287,-17.6000003814697
746.8391537,-18.4400005340576
746.8547787,-18.8299999237061
746.8704037,-19.3400001525879
746.8860287,-20.3600006103516
746.9016537,-22.1200008392334
746.9172787,-24.6700000762939
746.9329037,-27.8899993896484
746.9485287,-31.5599994659424
746.9641537,-35.4199981689453
746.9797787,-39.1800003051758
746.9954037,-42.5200004577637
747.0110287,-45.2599983215332
747.0266537,-47.2400016784668
747.0422787,-48.3699989318848
747.0579037,-48.6800003051758
747.0735287,-48.3899993896484
747.0891537,-47.7200012207031
747.1047787,-46.8499984741211
747.1204037,-45.8300018310547
747.1360287,-44.4300003051758
747.1516537,-41.9500007629395
747.1672787,-37.1699981689453
747.1829037,-28.5100002288818
747.1985287,-14.5699996948242
747.2141537,4.88000011444092
747.2297787,28.3400001525879
747.2454037,52.689998626709
747.2610287,74.2600021362305
747.2766537,89.9400024414063
747.2922787,97.9000015258789
747.3079037,98.0100021362305
747.3235287,91.8000030517578
747.3391537,81.6600036621094
747.3547787,69.9199981689453
747.3704037,58.3499984741211
747.3860287,47.7299995422363
747.4016537,37.6800003051758
747.4172787,27.2099990844727
747.4329037,15.6099996566772
747.4485287,3.30999994277954
747.4641537,-8.13000011444092
747.4797787,-17.1399993896484
747.4954037,-23.1399993896484
747.5110287,-26.5900001525879
747.5266537,-28.3500003814697
747.5422787,-29.1700000762939
747.5579037,-29.5499992370605
747.5735287,-29.8799991607666
747.5891537,-30.5499992370605
747.6047787,-31.9599990844727
747.6204037,-34.2700004577637
747.6360287,-37.1699981689453
747.6516537,-40.0099983215332
747.6672787,-42.2599983215332
747.6829037,-43.9199981689453
747.6985287,-45.2099990844727
747.7141537,-46.2099990844727
747.7297787,-46.7599983215332
747.7454037,-46.7400016784668
747.7610287,-46.25
747.7766537,-45.4500007629395
747.7922787,-44.3499984741211
747.8079037,-42.7299995422363
747.8235287,-40.310001373291
747.8391537,-36.5099983215332
747.8547787,-30.1900005340576
747.8704037,-19.7999992370605
747.8860287,-4.09999990463257
747.9016537,16.7600002288818
747.9172787,40.6300010681152
747.9329037,63.8600006103516
747.9485287,82.6399993896484
747.9641537,94.129997253418
747.9797787,97.2099990844727
747.9954037,92.6500015258789
748.0110287,82.5500030517578
748.0266537,69.5299987792969
748.0422787,55.689998626709
748.0579037,42.0900001525879
748.0735287,28.7399997711182
748.0891537,15.4200000762939
748.1047787,2.5
748.1204037,-9.10000038146973
748.1360287,-18.5100002288818
748.1516537,-25.3099994659424
748.1672787,-29.6499996185303
748.1829037,-32.0999984741211
748.1985287,-33.4700012207031
748.2141537,-34.3600006103516
748.2297787,-34.9900016784668
748.2454037,-35.3899993896484
748.2610287,-35.75
748.2766537,-36.310001373291
748.2922787,-37.1399993896484
748.3079037,-38.1500015258789
748.3235287,-39.4500007629395
748.3391537,-41.1699981689453
748.3547787,-43.1399993896484
748.3704037,-44.8199996948242
748.3860287,-45.6800003051758
748.4016537,-45.3199996948242
748.4172787,-43.6500015258789
748.4329037,-40.8600006103516
748.4485287,-37.3800010681152
748.4641537,-33.7799987792969
748.4797787,-30.5200004577637
748.4954037,-27.5300006866455
748.5110287,-23.9500007629395
748.5266537,-18.2600002288818
748.5422787,-8.55000019073486
748.5579037,7.01999998092651
748.5735287,29.5699996948242
748.5891537,57.8400001525879
748.6047787,87.4700012207031
748.6204037,112.309997558594
748.6360287,127.099998474121
748.6516537,129.619995117188
748.6672787,121.5
748.6829037,106.639999389648
748.6985287,88.7799987792969
748.7141537,70.4400024414063
748.7297787,53.3199996948242
748.7454037,38.5499992370605
748.7610287,26.2999992370605
748.7766537,15.6000003814697
748.7922787,5.19000005722046
748.8079037,-5.44999980926514
748.8235287,-15.5699996948242
748.8391537,-23.6499996185303
748.8547787,-28.7700004577637
748.8704037,-31.3600006103516
748.8860287,-32.810001373291
748.9016537,-34.2299995422363
748.9172787,-36.0800018310547
748.9329037,-38.5800018310547
748.9485287,-41.810001373291
748.9641537,-45.1599998474121
748.9797787,-47.439998626709
748.9954037,-47.9700012207031
749.0110287,-47.0800018310547
749.0266537,-45.6599998474121
749.0422787,-44.6800003051758
749.0579037,-45.0900001525879
749.0735287,-47.8600006103516
749.0891537,-53.3899993896484
749.1047787,-61.0699996948242
749.1204037,-69.3199996948242
749.1360287,-76.1900024414063
749.1516537,-80.1600036621094
749.1672787,-80.4199981689453
749.1829037,-76.2900009155273
749.1985287,-66.4300003051758
749.2141537,-49.3800010681152
749.2297787,-25.0699996948242
749.2454037,4.11999988555908
749.2610287,34.0900001525879
749.2766537,60.689998626709
749.2922787,80.9899978637695
749.3079037,93.6999969482422
749.3235287,98.9599990844727
749.3391537,98.0
749.3547787,92.6500015258789
749.3704037,84.7699966430664
749.3860287,75.8899993896484
749.4016537,67.0199966430664
749.4172787,58.5699996948242
749.4329037,50.3600006103516
749.4485287,42.1199989318848
749.4641537,34.25
749.4797787,27.7999992370605
749.4954037,23.7800006866455
749.5110287,22.4599990844727
749.5266537,23.1100006103516
749.5422787,24.5499992370605
749.5579037,25.9099998474121
749.5735287,26.7800006866455
749.5891537,26.8400001525879
749.6047787,25.6499996185303
749.6204037,22.9300003051758
749.6360287,18.8400001525879
749.6516537,13.9700002670288
749.6672787,8.86999988555908
749.6829037,3.90000009536743
749.6985287,-0.759999990463257
