Time(s),Value(%)
1063.0089315,55.3600006103516
1063.0245565,54.2999992370605
1063.0401815,52.1500015258789
1063.0558065,49.0099983215332
1063.0714315,45.1100006103516
1063.0870565,40.6699981689453
1063.1026815,35.9199981689453
1063.1183065,31.2000007629395
1063.1339315,26.7999992370605
1063.1495565,22.7900009155273
1063.1651815,18.8899993896484
1063.1808065,14.75
1063.1964315,10.3199996948242
1063.2120565,5.94000005722046
1063.2276815,1.98000001907349
1063.2433065,-1.33000004291534
1063.2589315,-4.1100001335144
1063.2745565,-6.73999977111816
1063.2901815,-9.82999992370605
1063.3058065,-13.8400001525879
1063.3214315,-18.9599990844727
1063.3370565,-25.3299999237061
1063.3526815,-33.439998626709
1063.3683065,-43.7900009155273
1063.3839315,-56.1699981689453
1063.3995565,-69.3099975585938
1063.4151815,-81.370002746582
1063.4308065,-91.2799987792969
1063.4464315,-99.629997253418
1063.4620565,-107.639999389648
1063.4776815,-115.650001525879
1063.4933065,-122.800003051758
1063.5089315,-128.029998779297
1063.5245565,-130.960006713867
1063.5401815,-131.910003662109
1063.5558065,-131.25
1063.5714315,-128.820007324219
1063.5870565,-124.220001220703
1063.6026815,-117.379997253418
1063.6183065,-108.769996643066
1063.6339315,-99.1100006103516
1063.6495565,-89.0699996948242
1063.6651815,-79.0699996948242
1063.6808065,-69.2300033569336
1063.6964315,-59.3199996948242
1063.7120565,-49.1199989318848
1063.7276815,-38.6599998474121
1063.7433065,-28.3999996185303
1063.7589315,-18.9599990844727
1063.7745565,-10.8000001907349
1063.7901815,-3.99000000953674
1063.8058065,1.76999998092651
1063.8214315,6.92999982833862
1063.8370565,11.75
1063.8526815,16.2099990844727
1063.8683065,20.1399993896484
1063.8839315,23.3799991607666
1063.8995565,25.9099998474121
1063.9151815,27.7600002288818
1063.9308065,28.9899997711182
1063.9464315,29.75
1063.9620565,30.3899993896484
1063.9776815,31.3899993896484
1063.9933065,33.060001373291
1064.0089315,35.2799987792969
1064.0245565,37.6800003051758
1064.0401815,39.9799995422363
1064.0558065,42.1399993896484
1064.0714315,44.2700004577637
1064.0870565,46.4300003051758
1064.1026815,48.5999984741211
1064.1183065,50.5999984741211
1064.1339315,52.1500015258789
1064.1495565,53.0099983215332
1064.1651815,53.1100006103516
1064.1808065,52.4500007629395
1064.1964315,50.9599990844727
1064.2120565,48.4000015258789
1064.2276815,45.0900001525879
1064.2433065,41.560001373291
1064.2589315,38.5999984741211
1064.2745565,36.8499984741211
1064.2901815,36.4599990844727
1064.3058065,37.1800003051758
1064.3214315,38.75
1064.3370565,41.0
1064.3526815,43.7700004577637
1064.3683065,46.810001373291
1064.3839315,49.939998626709
1064.3995565,53.3800010681152
1064.4151815,57.9199981689453
1064.4308065,64.3499984741211
1064.4464315,72.870002746582
1064.4620565,83.0199966430664
1064.4776815,94.2200012207031
1064.4933065,105.959999084473
1064.5089315,117.709999084473
1064.5245565,128.610000610352
1064.5401815,137.460006713867
1064.5558065,143.380004882813
1064.5714315,146.360000610352
1064.5870565,147.070007324219
1064.6026815,146.199996948242
1064.6183065,144.130004882813
1064.6339315,141.100006103516
1064.6495565,137.380004882813
1064.6651815,133.25
1064.6808065,128.910003662109
1064.6964315,124.349998474121
1064.7120565,119.480003356934
1064.7276815,114.220001220703
1064.7433065,108.559997558594
1064.7589315,102.519996643066
1064.7745565,96.0800018310547
1064.7901815,89.3499984741211
1064.8058065,82.4899978637695
1064.8214315,75.6500015258789
1064.8370565,68.8199996948242
1064.8526815,61.810001373291
1064.8683065,54.4900016784668
1064.8839315,46.9799995422363
1064.8995565,39.6199989318848
1064.9151815,32.7599983215332
1064.9308065,26.5300006866455
1064.9464315,20.8600006103516
1064.9620565,15.5
1064.9776815,10.210000038147
1064.9933065,4.78999996185303
1065.0089315,-0.769999980926514
1065.0245565,-6.51000022888184
1065.0401815,-12.5
1065.0558065,-18.8600006103516
1065.0714315,-25.5
1065.0870565,-32.060001373291
1065.1026815,-37.8699989318848
1065.1183065,-42.2200012207031
1065.1339315,-44.6399993896484
1065.1495565,-44.9900016784668
1065.1651815,-43.4700012207031
1065.1808065,-40.2799987792969
1065.1964315,-35.4599990844727
1065.2120565,-28.9599990844727
1065.2276815,-21.2900009155273
1065.2433065,-13.2799997329712
1065.2589315,-5.90999984741211
1065.2745565,0.209999993443489
1065.2901815,5.23999977111816
1065.3058065,9.61999988555908
1065.3214315,13.3900003433228
1065.3370565,16.1700000762939
1065.3526815,17.6399993896484
1065.3683065,17.8500003814697
1065.3839315,17.1900005340576
1065.3995565,15.9899997711182
1065.4151815,14.3299999237061
1065.4308065,12.1000003814697
1065.4464315,9.22000026702881
1065.4620565,5.78999996185303
1065.4776815,2.01999998092651
1065.4933065,-1.88999998569489
1065.5089315,-5.78000020980835
1065.5245565,-9.61999988555908
1065.5401815,-13.5100002288818
1065.5558065,-17.6700000762939
1065.5714315,-22.2900009155273
1065.5870565,-27.3999996185303
1065.6026815,-32.7900009155273
1065.6183065,-38.1100006103516
1065.6339315,-43.060001373291
1065.6495565,-47.5
1065.6651815,-51.4900016784668
1065.6808065,-55.2599983215332
1065.6964315,-59.1599998474121
1065.7120565,-63.4599990844727
1065.7276815,-68.25
1065.7433065,-73.5599975585938
1065.7589315,-79.5400009155273
1065.7745565,-86.379997253418
1065.7901815,-93.9400024414063
1065.8058065,-101.629997253418
1065.8214315,-108.599998474121
1065.8370565,-114.449996948242
1065.8526815,-119.699996948242
1065.8683065,-125.180000305176
1065.8839315,-131.139999389648
1065.8995565,-137.039993286133
1065.9151815,-142.100006103516
1065.9308065,-145.880004882813
1065.9464315,-148.429992675781
1065.9620565,-150.089996337891
1065.9776815,-151.25
1065.9933065,-152.160003662109
1066.0089315,-152.949996948242
1066.0245565,-153.880004882813
1066.0401815,-155.449996948242
1066.0558065,-158.139999389648
1066.0714315,-161.929992675781
1066.0870565,-165.949996948242
1066.1026815,-168.789993286133
1066.1183065,-169.460006713867
1066.1339315,-168.179992675781
1066.1495565,-165.919998168945
1066.1651815,-163.350006103516
1066.1808065,-160.429992675781
1066.1964315,-156.860000610352
1066.2120565,-151.440002441406
1066.2276815,-145.449996948242
1066.2433065,-139.270004272461
1066.2589315,-133.289993286133
1066.2745565,-127.779998779297
1066.2901815,-122.800003051758
1066.3058065,-118.389999389648
1066.3214315,-114.680000305176
1066.3370565,-111.809997558594
1066.3526815,-109.669998168945
1066.3683065,-107.620002746582
1066.3839315,-104.580001831055
1066.3995565,-99.75
1066.4151815,-93.129997253418
1066.4308065,-85.379997253418
1066.4464315,-77.1699981689453
1066.4620565,-68.8499984741211
1066.4776815,-60.5099983215332
1066.4933065,-52.189998626709
1066.5089315,-43.9799995422363
1066.5245565,-36.060001373291
1066.5401815,-28.6499996185303
1066.5558065,-21.9099998474121
1066.5714315,-15.8599996566772
1066.5870565,-10.289999961853
1066.6026815,-4.90999984741211
1066.6183065,0.529999971389771
1066.6339315,6.17999982833862
1066.6495565,12.1499996185303
1066.6651815,18.6700000762939
1066.6808065,26.2099990844727
1066.6964315,35.2200012207031
1066.7120565,45.7900009155273
1066.7276815,57.439998626709
1066.7433065,69.2799987792969
1066.7589315,80.4700012207031
1066.7745565,90.5500030517578
1066.7901815,99.4700012207031
1066.8058065,107.5
1066.8214315,115.019996643066
1066.8370565,122.330001831055
1066.8526815,129.509994506836
1066.8683065,136.520004272461
1066.8839315,143.309997558594
1066.8995565,149.860000610352
1066.9151815,156.039993286133
1066.9308065,161.479995727539
1066.9464315,165.460006713867
1066.9620565,167.350006103516
1066.9776815,167.059997558594
1066.9933065,165.050003051758
1067.0089315,162.009994506836
1067.0245565,158.529998779297
1067.0401815,154.970001220703
1067.0558065,151.490005493164
1067.0714315,148.059997558594
1067.0870565,144.529998779297
1067.1026815,140.679992675781
1067.1183065,136.330001831055
1067.1339315,131.440002441406
1067.1495565,126.150001525879
1067.1651815,120.569999694824
1067.1808065,114.800003051758
1067.1964315,108.940002441406
1067.2120565,102.300003051758
1067.2276815,96.1900024414063
1067.2433065,90.7799987792969
1067.2589315,85.9899978637695
1067.2745565,81.5999984741211
1067.2901815,77.4499969482422
1067.3058065,73.5100021362305
1067.3214315,69.8399963378906
1067.3370565,66.4300003051758
1067.3526815,63.3300018310547
1067.3683065,60.8199996948242
1067.3839315,59.5900001525879
1067.3995565,60.2400016784668
1067.4151815,62.9099998474121
1067.4308065,67.379997253418
1067.4464315,73.5400009155273
1067.4620565,81.3600006103516
1067.4776815,90.4300003051758
1067.4933065,99.7200012207031
1067.5089315,107.839996337891
1067.5245565,113.900001525879
1067.5401815,118.139999389648
1067.5558065,121.290000915527
1067.5714315,123.610000610352
1067.5870565,124.690002441406
1067.6026815,124.120002746582
1067.6183065,121.940002441406
1067.6339315,118.610000610352
1067.6495565,114.610000610352
1067.6651815,110.099998474121
1067.6808065,104.98999786377
1067.6964315,99.2099990844727
1067.7120565,92.9300003051758
1067.7276815,86.4599990844727
1067.7433065,80.1399993896484
1067.7589315,74.129997253418
1067.7745565,68.3099975585938
1067.7901815,62.2599983215332
1067.8058065,55.5
1067.8214315,47.7900009155273
1067.8370565,39.189998626709
1067.8526815,30.0599994659424
1067.8683065,20.6800003051758
1067.8839315,11.1999998092651
1067.8995565,1.55999994277954
1067.9151815,-8.18000030517578
1067.9308065,-17.8299999237061
1067.9464315,-27.0300006866455
1067.9620565,-35.5699996948242
1067.9776815,-43.5900001525879
1067.9933065,-51.3199996948242
1068.0089315,-58.7700004577637
1068.0245565,-65.6999969482422
1068.0401815,-71.8499984741211
1068.0558065,-77.1699981689453
1068.0714315,-81.75
1068.0870565,-85.620002746582
1068.1026815,-88.5999984741211
1068.1183065,-90.4400024414063
1068.1339315,-91.0500030517578
1068.1495565,-90.379997253418
1068.1651815,-88.2699966430664
1068.1808065,-84.5199966430664
1068.1964315,-79.3099975585938
1068.2120565,-72.5
1068.2276815,-65.7699966430664
1068.2433065,-59.5
1068.2589315,-53.4500007629395
1068.2745565,-47.3400001525879
1068.2901815,-41.4300003051758
1068.3058065,-36.4099998474121
1068.3214315,-32.8199996948242
1068.3370565,-30.6800003051758
1068.3526815,-29.5699996948242
1068.3683065,-29.1000003814697
1068.3839315,-29.1599998474121
1068.3995565,-29.8700008392334
1068.4151815,-31.2900009155273
1068.4308065,-33.25
1068.4464315,-35.4300003051758
1068.4620565,-37.5200004577637
1068.4776815,-39.3400001525879
1068.4933065,-40.939998626709
1068.5089315,-42.5699996948242
1068.5245565,-44.5
1068.5401815,-46.8400001525879
1068.5558065,-49.5
1068.5714315,-52.2799987792969
1068.5870565,-54.9700012207031
1068.6026815,-57.4300003051758
1068.6183065,-59.6199989318848
1068.6339315,-61.5800018310547
1068.6495565,-63.4799995422363
1068.6651815,-65.629997253418
1068.6808065,-68.2699966430664
1068.6964315,-71.4499969482422
1068.7120565,-75.0599975585938
1068.7276815,-78.9800033569336
1068.7433065,-83.1699981689453
1068.7589315,-87.4599990844727
1068.7745565,-91.5299987792969
1068.7901815,-94.9199981689453
1068.8058065,-97.1999969482422
1068.8214315,-98.2699966430664
1068.8370565,-98.2399978637695
1068.8526815,-97.3000030517578
1068.8683065,-95.6100006103516
1068.8839315,-93.370002746582
1068.8995565,-90.8000030517578
1068.9151815,-88.0400009155273
1068.9308065,-84.9400024414063
1068.9464315,-80.9400024414063
1068.9620565,-75.4700012207031
1068.9776815,-68.4000015258789
1068.9933065,-60.0900001525879
1069.0089315,-51.0499992370605
1069.0245565,-41.7000007629395
1069.0401815,-32.4500007629395
1069.0558065,-23.8700008392334
1069.0714315,-16.7399997711182
1069.0870565,-11.7299995422363
1069.1026815,-8.89000034332275
1069.1183065,-7.76999998092651
1069.1339315,-7.76000022888184
1069.1495565,-8.40999984741211
1069.1651815,-9.39000034332275
1069.1808065,-10.4799995422363
1069.1964315,-11.5600004196167
1069.2120565,-12.5200004577637
1069.2276815,-13.5600004196167
1069.2433065,-14.8500003814697
1069.2589315,-16.4200000762939
1069.2745565,-18.2700004577637
1069.2901815,-20.4099998474121
1069.3058065,-22.8600006103516
1069.3214315,-25.5400009155273
1069.3370565,-28.2099990844727
1069.3526815,-30.5799999237061
1069.3683065,-32.5
1069.3839315,-34.1100006103516
1069.3995565,-35.6100006103516
1069.4151815,-37.0499992370605
1069.4308065,-38.2700004577637
1069.4464315,-39.0699996948242
1069.4620565,-39.4000015258789
1069.4776815,-39.3499984741211
1069.4933065,-39.1300010681152
1069.5089315,-38.9900016784668
1069.5245565,-39.1199989318848
1069.5401815,-39.5099983215332
1069.5558065,-39.9500007629395
1069.5714315,-40.0999984741211
1069.5870565,-39.6699981689453
1069.6026815,-38.5400009155273
1069.6183065,-36.7200012207031
1069.6339315,-34.0999984741211
1069.6495565,-30.4500007629395
1069.6651815,-25.5400009155273
1069.6808065,-19.4200000762939
1069.6964315,-12.5799999237061
1069.7120565,-5.73000001907349
1069.7276815,0.5
1069.7433065,5.90999984741211
1069.7589315,10.5699996948242
1069.7745565,14.6700000762939
1069.7901815,18.3400001525879
1069.8058065,21.5699996948242
1069.8214315,24.3700008392334
1069.8370565,26.7800006866455
1069.8526815,28.8600006103516
1069.8683065,30.6900005340576
1069.8839315,32.3199996948242
1069.8995565,33.7000007629395
1069.9151815,34.6399993896484
1069.9308065,34.8899993896484
1069.9464315,34.3300018310547
1069.9620565,33.0299987792969
1069.9776815,31.2700004577637
1069.9933065,29.4200000762939
1070.0089315,27.7700004577637
1070.0245565,26.4300003051758
1070.0401815,25.3400001525879
1070.0558065,24.2999992370605
1070.0714315,23.0200004577637
1070.0870565,21.2600002288818
1070.1026815,18.9799995422363
1070.1183065,16.2700004577637
1070.1339315,13.1899995803833
1070.1495565,9.76000022888184
1070.1651815,6.09999990463257
1070.1808065,2.54999995231628
1070.1964315,-0.379999995231628
1070.2120565,-2.38000011444092
1070.2276815,-3.54999995231628
1070.2433065,-4.25
1070.2589315,-4.76000022888184
1070.2745565,-5.11999988555908
1070.2901815,-5.28999996185303
1070.3058065,-5.28000020980835
1070.3214315,-5.13000011444092
1070.3370565,-4.78000020980835
1070.3526815,-4.01000022888184
1070.3683065,-2.41000008583069
1070.3839315,0.360000014305115
1070.3995565,4.5
1070.4151815,9.80000019073486
1070.4308065,15.789999961853
1070.4464315,21.8999996185303
1070.4620565,27.6900005340576
1070.4776815,32.9799995422363
1070.4933065,37.8400001525879
1070.5089315,42.5200004577637
1070.5245565,47.2999992370605
1070.5401815,52.2700004577637
1070.5558065,57.3199996948242
1070.5714315,62.2200012207031
1070.5870565,66.7900009155273
1070.6026815,70.8600006103516
1070.6183065,74.1999969482422
1070.6339315,76.370002746582
1070.6495565,76.8899993896484
1070.6651815,75.6399993896484
1070.6808065,72.8899993896484
1070.6964315,69.25
1070.7120565,65.3899993896484
1070.7276815,61.7599983215332
1070.7433065,58.5499992370605
1070.7589315,55.689998626709
1070.7745565,52.8800010681152
1070.7901815,49.7000007629395
1070.8058065,45.8600006103516
1070.8214315,41.2799987792969
1070.8370565,36.1100006103516
1070.8526815,30.4699993133545
1070.8683065,24.4500007629395
1070.8839315,18.2199993133545
1070.8995565,12.1999998092651
1070.9151815,7.03999996185303
1070.9308065,3.20000004768372
1070.9464315,0.529999971389771
1070.9620565,-1.42999994754791
1070.9776815,-3.07999992370605
1070.9933065,-4.48000001907349
1071.0089315,-5.53000020980835
1071.0245565,-6.17999982833862
1071.0401815,-6.48999977111816
1071.0558065,-6.65000009536743
1071.0714315,-6.82999992370605
1071.0870565,-7.19000005722046
1071.1026815,-7.73000001907349
1071.1183065,-8.30000019073486
1071.1339315,-8.64000034332275
1071.1495565,-8.52000045776367
1071.1651815,-7.8600001335144
1071.1808065,-6.6100001335144
1071.1964315,-4.63000011444092
1071.2120565,-1.71000003814697
1071.2276815,2.5
1071.2433065,7.92000007629395
1071.2589315,14.0299997329712
1071.2745565,20.1200008392334
1071.2901815,25.6299991607666
1071.3058065,30.3500003814697
1071.3214315,34.3699989318848
1071.3370565,37.8600006103516
1071.3526815,40.8600006103516
1071.3683065,43.310001373291
1071.3839315,45.1800003051758
1071.3995565,46.4700012207031
1071.4151815,47.2299995422363
1071.4308065,47.5299987792969
1071.4464315,47.4300003051758
1071.4620565,47.0099983215332
1071.4776815,46.2599983215332
1071.4933065,45.0499992370605
1071.5089315,43.2400016784668
1071.5245565,40.810001373291
1071.5401815,37.9799995422363
1071.5558065,35.1399993896484
1071.5714315,32.5800018310547
1071.5870565,30.4300003051758
1071.6026815,28.5799999237061
1071.6183065,26.7700004577637
1071.6339315,24.6299991607666
1071.6495565,21.8899993896484
1071.6651815,18.5100002288818
1071.6808065,14.5500001907349
1071.6964315,10.0500001907349
1071.7120565,5.0
1071.7276815,-0.46000000834465
1071.7433065,-5.8899998664856
1071.7589315,-10.6000003814697
1071.7745565,-14.1000003814697
1071.7901815,-16.5
1071.8058065,-18.2800006866455
1071.8214315,-19.7700004577637
1071.8370565,-20.9799995422363
1071.8526815,-21.7700004577637
1071.8683065,-22.1000003814697
1071.8839315,-22.0400009155273
1071.8995565,-21.6900005340576
1071.9151815,-21.0699996948242
1071.9308065,-20.1399993896484
1071.9464315,-18.8700008392334
1071.9620565,-17.2000007629395
1071.9776815,-15.0100002288818
1071.9933065,-12.1800003051758
1072.0089315,-8.76000022888184
1072.0245565,-4.90999984741211
1072.0401815,-0.759999990463257
1072.0558065,3.64000010490417
1072.0714315,8.40999984741211
1072.0870565,13.4399995803833
1072.1026815,18.3700008392334
1072.1183065,22.7000007629395
1072.1339315,26.0900001525879
1072.1495565,28.5699996948242
1072.1651815,30.3500003814697
1072.1808065,31.5599994659424
1072.1964315,32.0400009155273
1072.2120565,32.0
1072.2276815,30.7700004577637
1072.2433065,28.4300003051758
1072.2589315,25.1700000762939
1072.2745565,21.1700000762939
1072.2901815,16.6599998474121
1072.3058065,12.039999961853
1072.3214315,7.75
1072.3370565,4.05000019073486
1072.3526815,0.759999990463257
1072.3683065,-2.44000005722046
1072.3839315,-5.65000009536743
1072.3995565,-8.64000034332275
1072.4151815,-11.1199998855591
1072.4308065,-12.9899997711182
1072.4464315,-14.3999996185303
1072.4620565,-15.6599998474121
1072.4776815,-17.1800003051758
1072.4933065,-19.2399997711182
1072.5089315,-21.8799991607666
1072.5245565,-24.8600006103516
1072.5401815,-27.8700008392334
1072.5558065,-30.6700000762939
1072.5714315,-33.1199989318848
1072.5870565,-35.2099990844727
1072.6026815,-36.9700012207031
1072.6183065,-38.4500007629395
1072.6339315,-39.7000007629395
1072.6495565,-40.7900009155273
1072.6651815,-41.8400001525879
1072.6808065,-42.8600006103516
1072.6964315,-43.6599998474121
1072.7120565,-43.7900009155273
1072.7276815,-42.6399993896484
1072.7433065,-39.8300018310547
1072.7589315,-35.4300003051758
1072.7745565,-29.7900009155273
1072.7901815,-23.2000007629395
1072.8058065,-15.8800001144409
1072.8214315,-8.18000030517578
1072.8370565,-0.629999995231628
1072.8526815,6.32000017166138
1072.8683065,12.4799995422363
1072.8839315,17.8700008392334
1072.8995565,22.6100006103516
1072.9151815,26.7600002288818
1072.9308065,30.2999992370605
1072.9464315,33.2599983215332
1072.9620565,35.7000007629395
1072.9776815,37.7400016784668
1072.9933065,39.4799995422363
1073.0089315,40.9700012207031
1073.0245565,42.1100006103516
1073.0401815,42.6199989318848
1073.0558065,42.2200012207031
1073.0714315,40.7999992370605
1073.0870565,38.5200004577637
1073.1026815,35.75
1073.1183065,32.9099998474121
1073.1339315,30.2600002288818
1073.1495565,27.8899993896484
1073.1651815,25.7299995422363
1073.1808065,23.5599994659424
1073.1964315,21.1299991607666
1073.2120565,18.4400005340576
1073.2276815,15.1599998474121
1073.2433065,11.3900003433228
1073.2589315,7.19999980926514
1073.2745565,2.63000011444092
1073.2901815,-2.1800000667572
1073.3058065,-6.96000003814697
1073.3214315,-11.25
1073.3370565,-14.7299995422363
1073.3526815,-17.5
1073.3683065,-19.8799991607666
1073.3839315,-22.1200008392334
1073.3995565,-24.1900005340576
1073.4151815,-25.9799995422363
1073.4308065,-27.4200000762939
1073.4464315,-28.5200004577637
