Time(s),Value(%)
1063.0089315,132.190002441406
1063.0245565,118.230003356934
1063.0401815,100.550003051758
1063.0558065,80.4499969482422
1063.0714315,59.8199996948242
1063.0870565,40.4900016784668
1063.1026815,23.6299991607666
1063.1183065,9.55000019073486
1063.1339315,-2.08999991416931
1063.1495565,-12.0
1063.1651815,-20.9500007629395
1063.1808065,-29.5100002288818
1063.1964315,-37.9300003051758
1063.2120565,-46.2000007629395
1063.2276815,-54.1500015258789
1063.2433065,-61.4799995422363
1063.2589315,-67.9000015258789
1063.2745565,-73.2200012207031
1063.2901815,-77.2699966430664
1063.3058065,-80.0
1063.3214315,-81.5699996948242
1063.3370565,-82.4899978637695
1063.3526815,-83.4700012207031
1063.3683065,-85.0999984741211
1063.3839315,-87.4599990844727
1063.3995565,-90.0199966430664
1063.4151815,-91.5
1063.4308065,-90.3899993896484
1063.4464315,-86.0999984741211
1063.4620565,-79.4800033569336
1063.4776815,-72.0599975585938
1063.4933065,-65.0100021362305
1063.5089315,-58.7000007629395
1063.5245565,-52.8899993896484
1063.5401815,-47.1599998474121
1063.5558065,-41.1800003051758
1063.5714315,-34.7000007629395
1063.5870565,-27.1200008392334
1063.6026815,-16.8700008392334
1063.6183065,-1.95000004768372
1063.6339315,18.8700008392334
1063.6495565,44.9099998474121
1063.6651815,73.4300003051758
1063.6808065,100.550003051758
1063.6964315,122.980003356934
1063.7120565,139.360000610352
1063.7276815,149.949996948242
1063.7433065,155.399993896484
1063.7589315,156.220001220703
1063.7745565,152.720001220703
1063.7901815,144.990005493164
1063.8058065,133.029998779297
1063.8214315,117.099998474121
1063.8370565,97.9800033569336
1063.8526815,77.0999984741211
1063.8683065,56.3499984741211
1063.8839315,37.4599990844727
1063.8995565,21.3999996185303
1063.9151815,8.14999961853027
1063.9308065,-3.32999992370605
1063.9464315,-14.789999961853
1063.9620565,-27.7999992370605
1063.9776815,-42.8300018310547
1063.9933065,-58.810001373291
1064.0089315,-73.6999969482422
1064.0245565,-85.7600021362305
1064.0401815,-94.370002746582
1064.0558065,-100.0
1064.0714315,-103.51000213623
1064.0870565,-105.379997253418
1064.1026815,-105.470001220703
1064.1183065,-103.809997558594
1064.1339315,-101.279998779297
1064.1495565,-99.1900024414063
1064.1651815,-98.3199996948242
1064.1808065,-98.6800003051758
1064.1964315,-100.129997253418
1064.2120565,-103.339996337891
1064.2276815,-109.709999084473
1064.2433065,-119.569999694824
1064.2589315,-130.529998779297
1064.2745565,-138.509994506836
1064.2901815,-140.360000610352
1064.3058065,-135.619995117188
1064.3214315,-126.279998779297
1064.3370565,-115.110000610352
1064.3526815,-104.129997253418
1064.3683065,-94.0400009155273
1064.3839315,-84.4599990844727
1064.3995565,-74.5500030517578
1064.4151815,-63.5499992370605
1064.4308065,-50.689998626709
1064.4464315,-34.9900016784668
1064.4620565,-15.5200004577637
1064.4776815,7.40999984741211
1064.4933065,31.0599994659424
1064.5089315,50.6199989318848
1064.5245565,62.5499992370605
1064.5401815,67.6600036621094
1064.5558065,69.879997253418
1064.5714315,72.8600006103516
1064.5870565,78.25
1064.6026815,85.7399978637695
1064.6183065,93.5899963378906
1064.6339315,99.129997253418
1064.6495565,99.9000015258789
1064.6651815,94.9499969482422
1064.6808065,85.4800033569336
1064.6964315,74.1500015258789
1064.7120565,63.8600006103516
1064.7276815,56.5699996948242
1064.7433065,52.7099990844727
1064.7589315,51.7000007629395
1064.7745565,52.939998626709
1064.7901815,56.060001373291
1064.8058065,60.7299995422363
1064.8214315,66.5500030517578
1064.8370565,73.1699981689453
1064.8526815,80.3600006103516
1064.8683065,88.0500030517578
1064.8839315,96.0699996948242
1064.8995565,103.98999786377
1064.9151815,111.089996337891
1064.9308065,116.660003662109
1064.9464315,120.300003051758
1064.9620565,122.199996948242
1064.9776815,122.870002746582
1064.9933065,122.690002441406
1065.0089315,121.540000915527
1065.0245565,118.98999786377
1065.0401815,114.879997253418
1065.0558065,109.669998168945
1065.0714315,104.300003051758
1065.0870565,99.879997253418
1065.1026815,97.2200012207031
1065.1183065,96.4100036621094
1065.1339315,96.4800033569336
1065.1495565,95.5899963378906
1065.1651815,91.9599990844727
1065.1808065,84.9700012207031
1065.1964315,75.7200012207031
1065.2120565,66.6800003051758
1065.2276815,61.3699989318848
1065.2433065,63.6500015258789
1065.2589315,75.6699981689453
1065.2745565,95.8399963378906
1065.2901815,119.099998474121
1065.3058065,139.279998779297
1065.3214315,151.75
1065.3370565,155.020004272461
1065.3526815,150.470001220703
1065.3683065,140.979995727539
1065.3839315,129.369995117188
1065.3995565,117.139999389648
1065.4151815,103.860000610352
1065.4308065,87.9899978637695
1065.4464315,68.1900024414063
1065.4620565,44.2099990844727
1065.4776815,17.0300006866455
1065.4933065,-11.5900001525879
1065.5089315,-39.6699981689453
1065.5245565,-65.5400009155273
1065.5401815,-88.3300018310547
1065.5558065,-108.0
1065.5714315,-125.0
1065.5870565,-140.059997558594
1065.6026815,-153.940002441406
1065.6183065,-167.070007324219
1065.6339315,-179.350006103516
1065.6495565,-190.130004882813
1065.6651815,-198.529998779297
1065.6808065,-203.850006103516
1065.6964315,-205.949996948242
1065.7120565,-205.210006713867
1065.7276815,-202.419998168945
1065.7433065,-198.520004272461
1065.7589315,-194.669998168945
1065.7745565,-192.179992675781
1065.7901815,-192.149993896484
1065.8058065,-194.75
1065.8214315,-198.960006713867
1065.8370565,-203.050003051758
1065.8526815,-205.410003662109
1065.8683065,-205.149993896484
1065.8839315,-202.029998779297
1065.8995565,-196.179992675781
1065.9151815,-188.270004272461
1065.9308065,-179.25
1065.9464315,-169.949996948242
1065.9620565,-160.679992675781
1065.9776815,-151.130004882813
1065.9933065,-140.190002441406
1066.0089315,-125.819999694824
1066.0245565,-105.769996643066
1066.0401815,-79.120002746582
1066.0558065,-47.7000007629395
1066.0714315,-15.6000003814697
1066.0870565,12.75
1066.1026815,34.5999984741211
1066.1183065,49.439998626709
1066.1339315,58.4799995422363
1066.1495565,63.310001373291
1066.1651815,64.629997253418
1066.1808065,62.189998626709
1066.1964315,55.5099983215332
1066.2120565,44.7700004577637
1066.2276815,31.25
1066.2433065,17.1399993896484
1066.2589315,4.82999992370605
1066.2745565,-3.86999988555908
1066.2901815,-8.43000030517578
1066.3058065,-9.53999996185303
1066.3214315,-8.67000007629395
1066.3370565,-7.34999990463257
1066.3526815,-6.75
1066.3683065,-7.32999992370605
1066.3839315,-9.05000019073486
1066.3995565,-11.5900001525879
1066.4151815,-14.5100002288818
1066.4308065,-17.3199996948242
1066.4464315,-19.5900001525879
1066.4620565,-21.0300006866455
1066.4776815,-21.5100002288818
1066.4933065,-21.0200004577637
1066.5089315,-19.5799999237061
1066.5245565,-17.1200008392334
1066.5401815,-13.6800003051758
1066.5558065,-9.48999977111816
1066.5714315,-4.90999984741211
1066.5870565,-0.140000000596046
1066.6026815,4.90999984741211
1066.6183065,10.4200000762939
1066.6339315,16.3500003814697
1066.6495565,22.4300003051758
1066.6651815,28.3400001525879
1066.6808065,34.0900001525879
1066.6964315,40.2999992370605
1066.7120565,48.3600006103516
1066.7276815,60.2299995422363
1066.7433065,77.4800033569336
1066.7589315,99.6600036621094
1066.7745565,123.589996337891
1066.7901815,144.820007324219
1066.8058065,159.880004882813
1066.8214315,167.580001831055
1066.8370565,168.880004882813
1066.8526815,165.949996948242
1066.8683065,161.009994506836
1066.8839315,155.490005493164
1066.8995565,149.779998779297
1066.9151815,143.25
1066.9308065,134.929992675781
1066.9464315,124.23999786377
1066.9620565,111.379997253418
1066.9776815,97.3099975585938
1066.9933065,83.2799987792969
1067.0089315,70.3199996948242
1067.0245565,58.9199981689453
1067.0401815,49.0699996948242
1067.0558065,40.4599990844727
1067.0714315,32.5999984741211
1067.0870565,25.1100006103516
1067.1026815,17.8400001525879
1067.1183065,10.6700000762939
1067.1339315,3.48000001907349
1067.1495565,-3.75
1067.1651815,-10.8500003814697
1067.1808065,-17.4799995422363
1067.1964315,-23.3299999237061
1067.2120565,-28.2700004577637
1067.2276815,-32.3699989318848
1067.2433065,-35.810001373291
1067.2589315,-38.7999992370605
1067.2745565,-41.3600006103516
1067.2901815,-43.4099998474121
1067.3058065,-44.8400001525879
1067.3214315,-45.7099990844727
1067.3370565,-46.189998626709
1067.3526815,-46.439998626709
1067.3683065,-46.5800018310547
1067.3839315,-46.689998626709
1067.3995565,-46.5999984741211
1067.4151815,-45.6399993896484
1067.4308065,-42.5200004577637
1067.4464315,-35.4300003051758
1067.4620565,-22.7700004577637
1067.4776815,-4.42000007629395
1067.4933065,17.7199993133545
1067.5089315,40.1199989318848
1067.5245565,58.8199996948242
1067.5401815,71.0899963378906
1067.5558065,76.4000015258789
1067.5714315,76.1800003051758
1067.5870565,72.6500015258789
1067.6026815,67.7300033569336
1067.6183065,62.4799995422363
1067.6339315,57.0400009155273
1067.6495565,50.9700012207031
1067.6651815,43.75
1067.6808065,35.0800018310547
1067.6964315,24.9300003051758
1067.7120565,13.6700000762939
1067.7276815,2.0699999332428
1067.7433065,-8.8100004196167
1067.7589315,-18.0699996948242
1067.7745565,-25.4200000762939
1067.7901815,-31.1200008392334
1067.8058065,-35.7200012207031
1067.8214315,-39.7900009155273
1067.8370565,-43.7599983215332
1067.8526815,-47.8600006103516
1067.8683065,-52.0299987792969
1067.8839315,-56.1199989318848
1067.8995565,-60.0
1067.9151815,-63.5099983215332
1067.9308065,-66.3600006103516
1067.9464315,-68.3099975585938
1067.9620565,-69.3300018310547
1067.9776815,-69.5999984741211
1067.9933065,-69.4000015258789
1068.0089315,-68.9899978637695
1068.0245565,-68.3899993896484
1068.0401815,-67.4300003051758
1068.0558065,-65.9100036621094
1068.0714315,-63.7799987792969
1068.0870565,-61.1199989318848
1068.1026815,-58.1199989318848
1068.1183065,-54.9199981689453
1068.1339315,-51.3899993896484
1068.1495565,-47.3400001525879
1068.1651815,-42.9300003051758
1068.1808065,-38.0900001525879
1068.1964315,-31.8099994659424
1068.2120565,-22.2299995422363
1068.2276815,-7.86999988555908
1068.2433065,10.9499998092651
1068.2589315,31.8099994659424
1068.2745565,51.2099990844727
1068.2901815,66.2099990844727
1068.3058065,75.3899993896484
1068.3214315,78.9700012207031
1068.3370565,78.3199996948242
1068.3526815,75.25
1068.3683065,71.3000030517578
1068.3839315,67.3300018310547
1068.3995565,63.2999992370605
1068.4151815,58.4900016784668
1068.4308065,52.0400009155273
1068.4464315,43.5099983215332
1068.4620565,33.2599983215332
1068.4776815,22.2600002288818
1068.4933065,11.7399997711182
1068.5089315,2.57999992370605
1068.5245565,-4.94999980926514
1068.5401815,-11.0200004577637
1068.5558065,-15.8299999237061
1068.5714315,-19.7199993133545
1068.5870565,-23.1200008392334
1068.6026815,-26.3700008392334
1068.6183065,-29.6100006103516
1068.6339315,-32.7400016784668
1068.6495565,-35.6300010681152
1068.6651815,-38.25
1068.6808065,-40.6199989318848
1068.6964315,-42.5699996948242
1068.7120565,-43.8300018310547
1068.7276815,-44.2299995422363
1068.7433065,-43.75
1068.7589315,-42.4799995422363
1068.7745565,-40.7200012207031
1068.7901815,-38.8300018310547
1068.8058065,-37.0200004577637
1068.8214315,-35.2700004577637
1068.8370565,-33.4000015258789
1068.8526815,-31.2099990844727
1068.8683065,-28.6800003051758
1068.8839315,-25.9099998474121
1068.8995565,-22.9799995422363
1068.9151815,-19.7299995422363
1068.9308065,-15.3199996948242
1068.9464315,-8.02999973297119
1068.9620565,3.85999989509583
1068.9776815,20.6399993896484
1068.9933065,40.3800010681152
1069.0089315,59.6800003051758
1069.0245565,75.2900009155273
1069.0401815,85.2900009155273
1069.0558065,89.4499969482422
1069.0714315,88.9499969482422
1069.0870565,85.6800003051758
1069.1026815,81.3199996948242
1069.1183065,76.75
1069.1339315,72.0400009155273
1069.1495565,66.5899963378906
1069.1651815,59.6199989318848
1069.1808065,50.7200012207031
1069.1964315,40.2000007629395
1069.2120565,29.0699996948242
1069.2276815,18.5599994659424
1069.2433065,9.72000026702881
1069.2589315,2.9300000667572
1069.2745565,-2.19000005722046
1069.2901815,-6.42000007629395
1069.3058065,-10.4700002670288
1069.3214315,-14.6400003433228
1069.3370565,-18.9300003051758
1069.3526815,-23.1800003051758
1069.3683065,-27.2000007629395
1069.3839315,-30.8500003814697
1069.3995565,-34.1500015258789
1069.4151815,-37.189998626709
1069.4308065,-39.9799995422363
1069.4464315,-42.3199996948242
1069.4620565,-43.8899993896484
1069.4776815,-44.5800018310547
1069.4933065,-44.4799995422363
1069.5089315,-43.7700004577637
1069.5245565,-42.7000007629395
1069.5401815,-41.5400009155273
1069.5558065,-40.4500007629395
1069.5714315,-39.3800010681152
1069.5870565,-38.2000007629395
1069.6026815,-36.7900009155273
1069.6183065,-35.060001373291
1069.6339315,-32.7999992370605
1069.6495565,-29.25
1069.6651815,-22.75
1069.6808065,-11.5299997329712
1069.6964315,4.65000009536743
1069.7120565,23.8500003814697
1069.7276815,42.6100006103516
1069.7433065,57.6599998474121
1069.7589315,67.2200012207031
1069.7745565,71.4700012207031
1069.7901815,71.8099975585938
1069.8058065,69.8399963378906
1069.8214315,66.7399978637695
1069.8370565,63.0400009155273
1069.8526815,58.560001373291
1069.8683065,52.7000007629395
1069.8839315,44.9199981689453
1069.8995565,35.0999984741211
1069.9151815,23.5699996948242
1069.9308065,11.2200002670288
1069.9464315,-0.689999997615814
1069.9620565,-11.0100002288818
1069.9776815,-19.0799999237061
1069.9933065,-24.8500003814697
1070.0089315,-28.8400001525879
1070.0245565,-31.9699993133545
1070.0401815,-35.060001373291
1070.0558065,-38.439998626709
1070.0714315,-41.8800010681152
1070.0870565,-44.939998626709
1070.1026815,-47.3499984741211
1070.1183065,-49.0400009155273
1070.1339315,-50.0999984741211
1070.1495565,-50.75
1070.1651815,-51.2400016784668
1070.1808065,-51.6500015258789
1070.1964315,-51.7700004577637
1070.2120565,-51.2900009155273
1070.2276815,-50.0800018310547
1070.2433065,-48.2099990844727
1070.2589315,-45.9000015258789
1070.2745565,-43.4099998474121
1070.2901815,-40.9599990844727
1070.3058065,-38.5699996948242
1070.3214315,-36.1699981689453
1070.3370565,-33.7599983215332
1070.3526815,-31.4500007629395
1070.3683065,-29.2299995422363
1070.3839315,-26.8299999237061
1070.3995565,-23.3799991607666
1070.4151815,-17.2299995422363
1070.4308065,-6.42000007629395
1070.4464315,10.0100002288818
1070.4620565,30.9200000762939
1070.4776815,53.1199989318848
1070.4933065,72.7399978637695
1070.5089315,87.0199966430664
1070.5245565,95.3199996948242
1070.5401815,98.6500015258789
1070.5558065,98.6600036621094
1070.5714315,96.8300018310547
1070.5870565,94.0100021362305
1070.6026815,90.370002746582
1070.6183065,85.6699981689453
1070.6339315,79.5100021362305
1070.6495565,71.4899978637695
1070.6651815,61.5499992370605
1070.6808065,50.1199989318848
1070.6964315,38.0299987792969
1070.7120565,26.1599998474121
1070.7276815,15.2799997329712
1070.7433065,5.8600001335144
1070.7589315,-1.97000002861023
1070.7745565,-8.42000007629395
1070.7901815,-13.8699998855591
1070.8058065,-18.8299999237061
1070.8214315,-23.7299995422363
1070.8370565,-28.7800006866455
1070.8526815,-34.0099983215332
1070.8683065,-39.3499984741211
1070.8839315,-44.6100006103516
1070.8995565,-49.4199981689453
1070.9151815,-53.3800010681152
1070.9308065,-56.189998626709
1070.9464315,-57.75
1070.9620565,-58.0999984741211
1070.9776815,-57.4099998474121
1070.9933065,-55.9199981689453
1071.0089315,-53.8600006103516
1071.0245565,-51.4300003051758
1071.0401815,-48.7799987792969
1071.0558065,-46.0299987792969
1071.0714315,-43.2799987792969
1071.0870565,-40.5699996948242
1071.1026815,-37.8499984741211
1071.1183065,-34.9599990844727
1071.1339315,-31.7800006866455
1071.1495565,-28.3099994659424
1071.1651815,-24.6499996185303
1071.1808065,-20.7299995422363
1071.1964315,-15.8900003433228
1071.2120565,-8.57999992370605
1071.2276815,3.11999988555908
1071.2433065,20.0499992370605
1071.2589315,40.8899993896484
1071.2745565,62.4500007629395
1071.2901815,81.2300033569336
1071.3058065,94.7699966430664
1071.3214315,102.190002441406
1071.3370565,104.150001525879
1071.3526815,102.23999786377
1071.3683065,98.1100006103516
1071.3839315,92.9499969482422
1071.3995565,87.2399978637695
1071.4151815,80.7799987792969
1071.4308065,73.0100021362305
1071.4464315,63.5400009155273
1071.4620565,52.4000015258789
1071.4776815,39.9300003051758
1071.4933065,26.7399997711182
1071.5089315,13.6800003051758
1071.5245565,1.69000005722046
1071.5401815,-8.52999973297119
1071.5558065,-16.8099994659424
1071.5714315,-23.3700008392334
1071.5870565,-28.6700000762939
1071.6026815,-33.1300010681152
1071.6183065,-37.1699981689453
1071.6339315,-41.0999984741211
1071.6495565,-45.1100006103516
1071.6651815,-49.2099990844727
1071.6808065,-53.3400001525879
1071.6964315,-57.3499984741211
1071.7120565,-60.9799995422363
1071.7276815,-63.9000015258789
1071.7433065,-65.8899993896484
1071.7589315,-66.9700012207031
1071.7745565,-67.3899993896484
1071.7901815,-67.5899963378906
1071.8058065,-68.0800018310547
1071.8214315,-69.0299987792969
1071.8370565,-70.2900009155273
1071.8526815,-71.7099990844727
1071.8683065,-73.1600036621094
1071.8839315,-74.5800018310547
1071.8995565,-76.1999969482422
1071.9151815,-78.3499984741211
1071.9308065,-81.0500030517578
1071.9464315,-83.9199981689453
1071.9620565,-86.0800018310547
1071.9776815,-86.2900009155273
1071.9933065,-83.3600006103516
1072.0089315,-76.3300018310547
1072.0245565,-64.0299987792969
1072.0401815,-45.0099983215332
1072.0558065,-18.7999992370605
1072.0714315,12.2299995422363
1072.0870565,42.8499984741211
1072.1026815,67.3399963378906
1072.1183065,82.2699966430664
1072.1339315,87.6100006103516
1072.1495565,86.0999984741211
1072.1651815,81.4899978637695
1072.1808065,76.7799987792969
1072.1964315,73.1100006103516
1072.2120565,69.8000030517578
1072.2276815,65.0800018310547
1072.2433065,57.2900009155273
1072.2589315,45.9799995422363
1072.2745565,32.3600006103516
1072.2901815,18.8600006103516
1072.3058065,8.03999996185303
1072.3214315,1.42999994754791
1072.3370565,-0.889999985694885
1072.3526815,0.0500000007450581
1072.3683065,3.05999994277954
1072.3839315,7.21999979019165
1072.3995565,11.9300003051758
1072.4151815,16.6499996185303
1072.4308065,20.8899993896484
1072.4464315,24.2900009155273
1072.4620565,26.6800003051758
1072.4776815,28.1100006103516
1072.4933065,28.8899993896484
1072.5089315,29.5799999237061
1072.5245565,30.5799999237061
1072.5401815,31.5300006866455
1072.5558065,31.3099994659424
1072.5714315,28.9899997711182
1072.5870565,24.6100006103516
1072.6026815,19.0100002288818
1072.6183065,13.2700004577637
1072.6339315,8.40999984741211
1072.6495565,5.34000015258789
1072.6651815,4.69000005722046
1072.6808065,6.67000007629395
1072.6964315,11.0600004196167
1072.7120565,17.1499996185303
1072.7276815,23.9699993133545
1072.7433065,30.5100002288818
1072.7589315,36.2599983215332
1072.7745565,41.7400016784668
1072.7901815,49.4000015258789
1072.8058065,63.0400009155273
1072.8214315,84.5800018310547
1072.8370565,111.169998168945
1072.8526815,136.210006713867
1072.8683065,153.279998779297
1072.8839315,159.350006103516
1072.8995565,155.479995727539
1072.9151815,145.139999389648
1072.9308065,132.119995117188
1072.9464315,118.98999786377
1072.9620565,106.529998779297
1072.9776815,94.0400009155273
1072.9933065,80.3300018310547
1073.0089315,64.6100006103516
1073.0245565,46.8699989318848
1073.0401815,28.0400009155273
1073.0558065,9.57999992370605
1073.0714315,-7.07000017166138
1073.0870565,-21.2600002288818
1073.1026815,-33.3899993896484
1073.1183065,-44.7999992370605
1073.1339315,-57.0499992370605
1073.1495565,-70.9300003051758
1073.1651815,-85.7699966430664
1073.1808065,-99.9100036621094
1073.1964315,-111.800003051758
1073.2120565,-120.690002441406
1073.2276815,-126.669998168945
1073.2433065,-130.410003662109
1073.2589315,-133.020004272461
1073.2745565,-135.679992675781
1073.2901815,-139.160003662109
1073.3058065,-143.570007324219
1073.3214315,-148.089996337891
1073.3370565,-151.259994506836
1073.3526815,-151.600006103516
1073.3683065,-148.350006103516
