Time(s),Value(%)
419.0022828,-16.5400009155273
419.0179078,-18.1800003051758
419.0335328,-22.4699993133545
419.0491578,-29.2600002288818
419.0647828,-38.0
419.0804078,-47.9199981689453
419.0960328,-58.2200012207031
419.1116578,-68.2799987792969
419.1272828,-77.8099975585938
419.1429078,-86.5199966430664
419.1585328,-93.8300018310547
419.1741578,-98.9499969482422
419.1897828,-101.480003356934
419.2054078,-101.639999389648
419.2210328,-100.069999694824
419.2366578,-97.2900009155273
419.2522828,-93.5100021362305
419.2679078,-88.7399978637695
419.2835328,-82.9599990844727
419.2991578,-76.1399993896484
419.3147828,-68.3099975585938
419.3304078,-59.7599983215332
419.3460328,-51.1300010681152
419.3616578,-43.2900009155273
419.3772828,-36.7999992370605
419.3929078,-31.4599990844727
419.4085328,-26.5499992370605
419.4241578,-21.0
419.4397828,-13.0799999237061
419.4554078,-0.159999996423721
419.4710328,20.7000007629395
419.4866578,50.7000007629395
419.5022828,87.1800003051758
419.5179078,124.069999694824
419.5335328,154.300003051758
419.5491578,172.669998168945
419.5647828,177.470001220703
419.5804078,170.449996948242
419.5960328,155.25
419.6116578,135.690002441406
419.6272828,114.669998168945
419.6429078,93.8899993896484
419.6585328,74.1699981689453
419.6741578,55.75
419.6897828,38.6300010681152
419.7054078,22.9500007629395
419.7210328,9.25
419.7366578,-1.63999998569489
419.7522828,-9.06999969482422
419.7679078,-12.960000038147
419.7835328,-14.1899995803833
419.7991578,-14.460000038147
419.8147828,-15.6199998855591
419.8304078,-18.9200000762939
419.8460328,-24.7000007629395
419.8616578,-32.6699981689453
419.8772828,-42.3699989318848
419.8929078,-53.2200012207031
419.9085328,-64.2799987792969
419.9241578,-74.3899993896484
419.9397828,-82.6699981689453
419.9554078,-88.8099975585938
419.9710328,-93.0800018310547
419.9866578,-95.9300003051758
420.0022828,-97.6800003051758
420.0179078,-98.5400009155273
420.0335328,-98.6399993896484
420.0491578,-98.0699996948242
420.0647828,-97.0299987792969
420.0804078,-95.8199996948242
420.0960328,-94.629997253418
420.1116578,-93.2600021362305
420.1272828,-91.2300033569336
420.1429078,-88.0699996948242
420.1585328,-83.5100021362305
420.1741578,-77.5599975585938
420.1897828,-70.5599975585938
420.2054078,-63.1500015258789
420.2210328,-55.9900016784668
420.2366578,-49.5099983215332
420.2522828,-43.810001373291
420.2679078,-38.5099983215332
420.2835328,-32.310001373291
420.2991578,-22.4500007629395
420.3147828,-5.19000005722046
420.3304078,22.6800003051758
420.3460328,61.4700012207031
420.3616578,106.709999084473
420.3772828,150.190002441406
420.3929078,183.330001831055
420.4085328,200.539993286133
420.4241578,201.160003662109
420.4397828,188.820007324219
420.4554078,169.130004882813
420.4710328,147.100006103516
420.4866578,125.629997253418
420.5022828,105.540000915527
420.5179078,86.4100036621094
420.5335328,67.9199981689453
420.5491578,50.4000015258789
420.5647828,34.6500015258789
420.5804078,21.3500003814697
420.5960328,10.8400001525879
420.6116578,3.0699999332428
420.6272828,-2.41000008583069
420.6429078,-6.32000017166138
420.6585328,-9.26000022888184
420.6741578,-11.710000038147
420.6897828,-14.210000038147
420.7054078,-17.3299999237061
420.7210328,-21.4599990844727
420.7366578,-26.6900005340576
420.7522828,-32.9599990844727
420.7679078,-40.2099990844727
420.7835328,-48.2099990844727
420.7991578,-56.4500007629395
420.8147828,-64.3099975585938
420.8304078,-71.2799987792969
420.8460328,-77.0599975585938
420.8616578,-81.5500030517578
420.8772828,-84.8600006103516
420.8929078,-87.0800018310547
420.9085328,-88.0100021362305
420.9241578,-87.3600006103516
420.9397828,-85.129997253418
420.9554078,-81.5599975585938
420.9710328,-76.8300018310547
420.9866578,-70.9499969482422
421.0022828,-64.1100006103516
421.0179078,-56.7099990844727
421.0335328,-49.0999984741211
421.0491578,-41.3699989318848
421.0647828,-33.4900016784668
421.0804078,-25.4300003051758
421.0960328,-17.0599994659424
421.1116578,-7.46000003814697
421.1272828,5.67999982833862
421.1429078,25.7900009155273
421.1585328,55.5499992370605
421.1741578,94.3899993896484
421.1897828,136.960006713867
421.2054078,174.699996948242
421.2210328,199.639999389648
421.2366578,207.940002441406
421.2522828,200.770004272461
421.2679078,182.690002441406
421.2835328,159.039993286133
421.2991578,134.050003051758
421.3147828,110.099998474121
421.3304078,88.0299987792969
421.3460328,67.7799987792969
421.3616578,49.0400009155273
421.3772828,31.7199993133545
421.3929078,16.3099994659424
421.4085328,3.85999989509583
421.4241578,-4.59999990463257
421.4397828,-8.80000019073486
421.4554078,-9.5600004196167
421.4710328,-8.56999969482422
421.4866578,-7.78000020980835
421.5022828,-8.65999984741211
421.5179078,-11.8199996948242
421.5335328,-17.0200004577637
421.5491578,-23.6700000762939
421.5647828,-31.1399993896484
421.5804078,-38.9199981689453
421.5960328,-46.5900001525879
421.6116578,-53.9599990844727
421.6272828,-61.0400009155273
421.6429078,-68.0299987792969
421.6585328,-75.0500030517578
421.6741578,-81.75
421.6897828,-87.4599990844727
421.7054078,-91.5699996948242
421.7210328,-93.7900009155273
421.7366578,-94.1900024414063
421.7522828,-93.0299987792969
421.7679078,-90.6800003051758
421.7835328,-87.4100036621094
421.7991578,-83.3099975585938
421.8147828,-78.3899993896484
421.8304078,-72.870002746582
421.8460328,-67.1800003051758
421.8616578,-61.7400016784668
421.8772828,-56.6100006103516
421.8929078,-51.3400001525879
421.9085328,-44.5699996948242
421.9241578,-33.4799995422363
421.9397828,-14.2700004577637
421.9554078,15.7799997329712
421.9710328,55.6399993896484
421.9866578,99.1500015258789
422.0022828,137.119995117188
422.0179078,161.490005493164
422.0335328,169.229995727539
422.0491578,163.440002441406
422.0647828,150.669998168945
422.0804078,136.550003051758
422.0960328,123.720001220703
422.1116578,112.23999786377
422.1272828,101.220001220703
422.1429078,90.0800018310547
422.1585328,78.620002746582
422.1741578,66.5
422.1897828,53.0400009155273
422.2054078,37.7900009155273
422.2210328,21.0400009155273
422.2366578,3.77999997138977
422.2522828,-12.6800003051758
422.2679078,-27.0799999237061
422.2835328,-38.5900001525879
422.2991578,-47.1699981689453
422.3147828,-53.560001373291
422.3304078,-58.8499984741211
422.3460328,-64.120002746582
422.3616578,-70.2399978637695
422.3772828,-77.7600021362305
422.3929078,-86.9599990844727
422.4085328,-97.8199996948242
422.4241578,-109.849998474121
422.4397828,-121.830001831055
422.4554078,-132.289993286133
422.4710328,-140.139999389648
422.4866578,-144.929992675781
422.5022828,-146.800003051758
422.5179078,-146.339996337891
422.5335328,-144.470001220703
422.5491578,-142.350006103516
422.5647828,-140.699996948242
422.5804078,-139.149993896484
422.5960328,-136.419998168945
422.6116578,-131.259994506836
422.6272828,-122.980003356934
422.6429078,-111.800003051758
422.6585328,-98.9100036621094
422.6741578,-86.129997253418
422.6897828,-75.129997253418
422.7054078,-66.5299987792969
422.7210328,-59.3199996948242
422.7366578,-50.9099998474121
422.7522828,-37.5400009155273
422.7679078,-15.2600002288818
422.7835328,18.7299995422363
422.7991578,63.9900016784668
422.8147828,114.720001220703
422.8304078,160.970001220703
422.8460328,193.449996948242
422.8616578,207.820007324219
422.8772828,205.470001220703
422.8929078,191.460006713867
422.9085328,171.660003662109
422.9241578,150.889999389648
422.9397828,132.410003662109
422.9554078,117.720001220703
422.9710328,106.650001525879
422.9866578,97.7399978637695
423.0022828,89.1900024414063
423.0179078,80.0400009155273
423.0335328,70.9199981689453
423.0491578,63.6300010681152
423.0647828,59.7599983215332
423.0804078,59.6399993896484
423.0960328,62.2299995422363
423.1116578,65.4199981689453
423.1272828,66.9599990844727
423.1429078,65.4199981689453
423.1585328,60.5699996948242
423.1741578,53.0
423.1897828,43.5499992370605
423.2054078,32.9300003051758
423.2210328,21.6100006103516
423.2366578,10.039999961853
423.2522828,-1.22000002861023
423.2679078,-11.6099996566772
423.2835328,-20.7900009155273
423.2991578,-28.7399997711182
423.3147828,-35.5200004577637
423.3304078,-40.9700012207031
423.3460328,-44.8199996948242
423.3616578,-46.7900009155273
423.3772828,-46.7000007629395
423.3929078,-44.5800018310547
423.4085328,-40.8600006103516
423.4241578,-36.439998626709
423.4397828,-32.2700004577637
423.4554078,-28.7999992370605
423.4710328,-25.75
423.4866578,-21.9099998474121
423.5022828,-14.9300003051758
423.5179078,-1.33000004291534
423.5335328,22.25
423.5491578,56.560001373291
423.5647828,96.7200012207031
423.5804078,132.929992675781
423.5960328,155.550003051758
423.6116578,160.149993896484
423.6272828,148.800003051758
423.6429078,127.529998779297
423.6585328,102.779998779297
423.6741578,78.9000015258789
423.6897828,57.7099990844727
423.7054078,39.2299995422363
423.7210328,22.6200008392334
423.7366578,7.0
423.7522828,-7.96000003814697
423.7679078,-21.9599990844727
423.7835328,-34.1100006103516
423.7991578,-43.3699989318848
423.8147828,-49.2000007629395
423.8304078,-51.9300003051758
423.8460328,-52.7099990844727
423.8616578,-52.8499984741211
423.8772828,-53.439998626709
423.8929078,-55.1399993896484
423.9085328,-58.2599983215332
423.9241578,-62.7599983215332
423.9397828,-68.370002746582
423.9554078,-74.7099990844727
423.9710328,-81.370002746582
423.9866578,-88.0199966430664
424.0022828,-94.5699996948242
424.0179078,-100.930000305176
424.0335328,-106.879997253418
424.0491578,-112.01000213623
424.0647828,-115.830001831055
424.0804078,-117.730003356934
424.0960328,-117.319999694824
424.1116578,-114.529998779297
424.1272828,-109.620002746582
424.1429078,-103.129997253418
424.1585328,-95.7799987792969
424.1741578,-88.1699981689453
424.1897828,-80.5500030517578
424.2054078,-72.9899978637695
424.2210328,-65.5400009155273
424.2366578,-58.4700012207031
424.2522828,-52.1500015258789
424.2679078,-46.7999992370605
424.2835328,-41.8699989318848
424.2991578,-35.3199996948242
424.3147828,-23.4500007629395
424.3304078,-2.11999988555908
424.3460328,30.2399997711182
424.3616578,69.6100006103516
424.3772828,107.23999786377
424.3929078,134.330001831055
424.4085328,146.270004272461
424.4241578,143.770004272461
424.4397828,131.149993896484
424.4554078,113.620002746582
424.4710328,95.4000015258789
424.4866578,78.75
424.5022828,64.1699981689453
424.5179078,51.0999984741211
424.5335328,38.9099998474121
424.5491578,27.3899993896484
424.5647828,16.8400001525879
424.5804078,7.69999980926514
424.5960328,0.300000011920929
424.6116578,-5.13000011444092
424.6272828,-8.5600004196167
424.6429078,-10.1199998855591
424.6585328,-10.1300001144409
424.6741578,-9.14999961853027
424.6897828,-7.82000017166138
424.7054078,-6.92999982833862
424.7210328,-7.19000005722046
424.7366578,-9.10000038146973
424.7522828,-12.6800003051758
424.7679078,-17.5200004577637
424.7835328,-22.9599990844727
424.7991578,-28.4300003051758
424.8147828,-33.7900009155273
424.8304078,-39.060001373291
424.8460328,-43.9599990844727
424.8616578,-47.8600006103516
424.8772828,-50.2400016784668
424.8929078,-51.0200004577637
424.9085328,-50.560001373291
424.9241578,-49.439998626709
424.9397828,-48.0099983215332
424.9554078,-46.2700004577637
424.9710328,-44.060001373291
424.9866578,-41.1800003051758
425.0022828,-37.4099998474121
425.0179078,-32.5
425.0335328,-26.3099994659424
425.0491578,-19.0
425.0647828,-11.2399997711182
425.0804078,-4.19000005722046
425.0960328,1.0900000333786
425.1116578,4.23999977111816
425.1272828,5.88000011444092
425.1429078,7.55999994277954
425.1585328,12.2200002670288
425.1741578,24.4899997711182
425.1897828,48.3499984741211
425.2054078,83.0699996948242
425.2210328,121.879997253418
425.2366578,155.039993286133
425.2522828,174.759994506836
425.2679078,178.399993896484
425.2835328,168.470001220703
425.2991578,150.389999389648
425.3147828,129.550003051758
425.3304078,109.269996643066
425.3460328,90.5899963378906
425.3616578,73.3300018310547
425.3772828,57.0699996948242
425.3929078,41.4700012207031
425.4085328,26.3600006103516
425.4241578,11.8999996185303
425.4397828,-1.35000002384186
425.4554078,-12.6300001144409
425.4710328,-21.1399993896484
425.4866578,-26.5300006866455
425.5022828,-29.0599994659424
425.5179078,-29.5300006866455
425.5335328,-28.9500007629395
425.5491578,-28.2299995422363
425.5647828,-28.1499996185303
425.5804078,-29.2299995422363
425.5960328,-31.6900005340576
425.6116578,-35.4199981689453
425.6272828,-40.1100006103516
425.6429078,-45.3199996948242
425.6585328,-50.5099983215332
425.6741578,-55.2000007629395
425.6897828,-59.25
425.7054078,-62.8699989318848
425.7210328,-66.2200012207031
425.7366578,-69.1500015258789
425.7522828,-71.1900024414063
425.7679078,-71.8499984741211
425.7835328,-70.9599990844727
425.7991578,-68.75
425.8147828,-65.5699996948242
425.8304078,-61.5499992370605
425.8460328,-56.5
425.8616578,-50.3600006103516
425.8772828,-43.5299987792969
425.8929078,-36.8199996948242
425.9085328,-30.9500007629395
425.9241578,-26.2999992370605
425.9397828,-22.8199996948242
425.9554078,-20.1000003814697
425.9710328,-17.3299999237061
425.9866578,-12.8999996185303
426.0022828,-3.75
426.0179078,13.5600004196167
426.0335328,39.7299995422363
426.0491578,71.0199966430664
426.0647828,100.819999694824
426.0804078,123.01000213623
426.0960328,134.229995727539
426.1116578,134.130004882813
426.1272828,124.800003051758
426.1429078,109.650001525879
426.1585328,92.1100006103516
426.1741578,74.5500030517578
426.1897828,57.9099998474121
426.2054078,42.3199996948242
426.2210328,27.8899993896484
426.2366578,14.9899997711182
426.2522828,3.99000000953674
426.2679078,-4.90000009536743
426.2835328,-11.4700002670288
426.2991578,-15.3900003433228
426.3147828,-16.4500007629395
426.3304078,-14.6300001144409
426.3460328,-10.5600004196167
426.3616578,-6.03999996185303
426.3772828,-3.55999994277954
426.3929078,-4.55999994277954
426.4085328,-8.5
426.4241578,-13.6800003051758
426.4397828,-18.9300003051758
426.4554078,-24.2099990844727
426.4710328,-30.1900005340576
426.4866578,-37.3400001525879
426.5022828,-45.3499984741211
426.5179078,-53.3400001525879
426.5335328,-60.3699989318848
426.5491578,-66.0699996948242
426.5647828,-70.8300018310547
426.5804078,-75.4599990844727
426.5960328,-80.2900009155273
426.6116578,-84.4599990844727
426.6272828,-86.4100036621094
426.6429078,-85.1500015258789
426.6585328,-80.9599990844727
426.6741578,-75.1100006103516
426.6897828,-69.1100006103516
426.7054078,-63.7200012207031
426.7210328,-58.7299995422363
426.7366578,-53.3499984741211
426.7522828,-47.0200004577637
426.7679078,-39.6699981689453
426.7835328,-31.6599998474121
426.7991578,-23.3600006103516
426.8147828,-14.6300001144409
426.8304078,-4.1100001335144
426.8460328,10.6499996185303
426.8616578,31.8799991607666
426.8772828,59.5400009155273
426.8929078,90.1100006103516
426.9085328,117.76000213623
426.9241578,137.059997558594
426.9397828,145.25
426.9554078,142.740005493164
426.9710328,132.210006713867
426.9866578,117.120002746582
427.0022828,100.580001831055
427.0179078,84.620002746582
427.0335328,70.0500030517578
427.0491578,56.7200012207031
427.0647828,44.1300010681152
427.0804078,32.0499992370605
427.0960328,20.7700004577637
427.1116578,11.0100002288818
427.1272828,3.52999997138977
427.1429078,-1.29999995231628
427.1585328,-3.69000005722046
427.1741578,-4.38000011444092
427.1897828,-4.42999982833862
427.2054078,-4.73999977111816
427.2210328,-6.01000022888184
427.2366578,-8.69999980926514
427.2522828,-13.0
427.2679078,-18.6800003051758
427.2835328,-25.25
427.2991578,-32.2099990844727
427.3147828,-39.1699981689453
427.3304078,-46.0900001525879
427.3460328,-53.0
427.3616578,-59.6100006103516
427.3772828,-65.3499984741211
427.3929078,-69.6699981689453
427.4085328,-72.3199996948242
427.4241578,-73.3300018310547
427.4397828,-72.9400024414063
427.4554078,-71.2799987792969
427.4710328,-68.3000030517578
427.4866578,-64.0
427.5022828,-58.5900001525879
427.5179078,-52.4700012207031
427.5335328,-46.1699981689453
427.5491578,-40.1699981689453
427.5647828,-34.75
427.5804078,-29.9899997711182
427.5960328,-25.8700008392334
427.6116578,-22.1800003051758
427.6272828,-18.3799991607666
427.6429078,-13.1599998474121
427.6585328,-4.05000019073486
427.6741578,12.3800001144409
427.6897828,38.6100006103516
427.7054078,72.6600036621094
427.7210328,107.440002441406
427.7366578,134.330001831055
427.7522828,147.809997558594
427.7679078,147.259994506836
427.7835328,135.979995727539
427.7991578,118.830001831055
427.8147828,99.9199981689453
427.8304078,81.5400009155273
427.8460328,64.4199981689453
427.8616578,48.5999984741211
427.8772828,34.0
427.8929078,20.6000003814697
427.9085328,8.52999973297119
427.9241578,-1.71000003814697
427.9397828,-9.44999980926514
427.9554078,-14.1400003433228
427.9710328,-15.7299995422363
427.9866578,-14.8100004196167
428.0022828,-12.5699996948242
428.0179078,-10.3400001525879
428.0335328,-9.11999988555908
428.0491578,-9.38000011444092
428.0647828,-11.1999998092651
428.0804078,-14.3500003814697
428.0960328,-18.3999996185303
428.1116578,-22.9500007629395
428.1272828,-27.7900009155273
428.1429078,-32.7999992370605
428.1585328,-37.8899993896484
428.1741578,-42.9700012207031
428.1897828,-47.8800010681152
428.2054078,-52.4799995422363
428.2210328,-56.4300003051758
428.2366578,-59.2200012207031
428.2522828,-60.3600006103516
428.2679078,-59.7700004577637
428.2835328,-57.7799987792969
428.2991578,-54.8400001525879
428.3147828,-51.3199996948242
428.3304078,-47.5400009155273
428.3460328,-43.7599983215332
428.3616578,-40.1300010681152
428.3772828,-36.6699981689453
428.3929078,-33.25
428.4085328,-29.6700000762939
428.4241578,-25.4599990844727
428.4397828,-18.8899993896484
428.4554078,-6.53999996185303
428.4710328,14.6800003051758
428.4866578,44.2700004577637
428.5022828,77.2300033569336
428.5179078,106.480003356934
428.5335328,126.230003356934
428.5491578,134.119995117188
428.5647828,131.240005493164
428.5804078,120.779998779297
428.5960328,106.25
428.6116578,90.3099975585938
428.6272828,74.5
428.6429078,59.3800010681152
428.6585328,45.0
428.6741578,31.2399997711182
428.6897828,18.0499992370605
428.7054078,5.44999980926514
428.7210328,-6.32000017166138
428.7366578,-16.6700000762939
428.7522828,-24.7000007629395
428.7679078,-29.7800006866455
428.7835328,-32.0699996948242
428.7991578,-32.3300018310547
428.8147828,-31.5100002288818
428.8304078,-30.5200004577637
428.8460328,-30.1900005340576
428.8616578,-31.1700000762939
428.8772828,-33.7200012207031
428.8929078,-37.6199989318848
428.9085328,-42.3199996948242
428.9241578,-47.2999992370605
428.9397828,-52.1300010681152
428.9554078,-56.5699996948242
428.9710328,-60.5999984741211
428.9866578,-64.370002746582
429.0022828,-67.8600006103516
429.0179078,-70.8300018310547
429.0335328,-72.8099975585938
429.0491578,-73.3899993896484
429.0647828,-72.4899978637695
429.0804078,-70.4400024414063
429.0960328,-67.6500015258789
429.1116578,-64.3099975585938
429.1272828,-60.4500007629395
429.1429078,-55.9599990844727
429.1585328,-50.6199989318848
429.1741578,-44.3300018310547
429.1897828,-37.3699989318848
429.2054078,-30.4599990844727
429.2210328,-24.6299991607666
429.2366578,-20.5
429.2522828,-17.6100006103516
429.2679078,-14.0100002288818
429.2835328,-6.26999998092651
429.2991578,9.52999973297119
429.3147828,35.6199989318848
429.3304078,70.4199981689453
429.3460328,108.230003356934
429.3616578,141.410003662109
429.3772828,163.580001831055
429.3929078,171.699996948242
429.4085328,166.580001831055
429.4241578,151.889999389648
429.4397828,132.119995117188
429.4554078,110.970001220703
429.4710328,90.5899963378906
429.4866578,71.7900009155273
429.5022828,54.6300010681152
429.5179078,38.9000015258789
429.5335328,24.4699993133545
429.5491578,11.539999961853
429.5647828,0.639999985694885
429.5804078,-7.61999988555908
429.5960328,-12.8800001144409
429.6116578,-15.1400003433228
429.6272828,-15.0500001907349
429.6429078,-13.9200000762939
429.6585328,-13.1400003433228
429.6741578,-13.6899995803833
429.6897828,-16.0499992370605
429.7054078,-20.3600006103516
429.7210328,-26.5400009155273
