Time(s),Value(%)
149.0085057,-4.34999990463257
149.0241307,-4.57999992370605
149.0397557,-4.69000005722046
149.0553807,-4.38000011444092
149.0710057,-3.54999995231628
149.0866307,-2.19000005722046
149.1022557,0.140000000596046
149.1178807,4.46999979019165
149.1335057,11.8100004196167
149.1491307,21.9500007629395
149.1647557,32.9300003051758
149.1803807,41.9599990844727
149.1960057,46.8300018310547
149.2116307,46.8600006103516
149.2272557,42.8800010681152
149.2428807,36.7799987792969
149.2585057,30.6299991607666
149.2741307,25.6800003051758
149.2897557,22.0100002288818
149.3053807,18.7800006866455
149.3210057,14.789999961853
149.3366307,9.23999977111816
149.3522557,2.15000009536743
149.3678807,-5.53000020980835
149.3835057,-12.2399997711182
149.3991307,-16.6399993896484
149.4147557,-18.5
149.4303807,-18.5599994659424
149.4460057,-17.7999992370605
149.4616307,-16.75
149.4772557,-15.5699996948242
149.4928807,-14.3999996185303
149.5085057,-13.4799995422363
149.5241307,-13.210000038147
149.5397557,-13.9799995422363
149.5553807,-15.8199996948242
149.5710057,-18.1800003051758
149.5866307,-20.0599994659424
149.6022557,-20.5699996948242
149.6178807,-19.5300006866455
149.6335057,-17.6800003051758
149.6491307,-16.1399993896484
149.6647557,-15.710000038147
149.6803807,-16.4599990844727
149.6960057,-17.1800003051758
149.7116307,-15.6499996185303
149.7272557,-9.76000022888184
149.7428807,1.03999996185303
149.7585057,15.2200002670288
149.7741307,29.6499996185303
149.7897557,40.939998626709
149.8053807,46.9000015258789
149.8210057,47.25
149.8366307,43.2099990844727
149.8522557,36.6699981689453
149.8678807,29.4300003051758
149.8835057,22.7700004577637
149.8991307,17.1700000762939
149.9147557,12.4300003051758
149.9303807,8.06999969482422
149.9460057,3.6800000667572
149.9616307,-0.970000028610229
149.9772557,-5.8899998664856
149.9928807,-10.6000003814697
150.0085057,-14.3900003433228
150.0241307,-16.8299999237061
150.0397557,-17.8999996185303
150.0553807,-17.9099998474121
150.0710057,-17.2900009155273
150.0866307,-16.4300003051758
150.1022557,-15.6800003051758
150.1178807,-15.3800001144409
150.1335057,-15.7399997711182
150.1491307,-16.6700000762939
150.1647557,-17.7700004577637
150.1803807,-18.6299991607666
150.1960057,-19.2000007629395
150.2116307,-19.7800006866455
150.2272557,-20.6700000762939
150.2428807,-21.8299999237061
150.2585057,-22.8899993896484
150.2741307,-23.3999996185303
150.2897557,-22.7999992370605
150.3053807,-20.4300003051758
150.3210057,-15.5299997329712
150.3366307,-7.6399998664856
150.3522557,2.9300000667572
150.3678807,14.7799997329712
150.3835057,25.7800006866455
150.3991307,33.939998626709
150.4147557,38.1800003051758
150.4303807,38.6699981689453
150.4460057,36.5499992370605
150.4616307,33.3199996948242
150.4772557,30.2600002288818
150.4928807,28.1499996185303
150.5085057,26.8099994659424
150.5241307,24.9799995422363
150.5397557,21.0599994659424
150.5553807,14.4899997711182
150.5710057,6.34999990463257
150.5866307,-1.26999998092651
150.6022557,-6.84000015258789
150.6178807,-10.2399997711182
150.6335057,-12.3900003433228
150.6491307,-14.289999961853
150.6647557,-16.3500003814697
150.6803807,-18.5200004577637
150.6960057,-20.4799995422363
150.7116307,-21.8600006103516
150.7272557,-22.5300006866455
150.7428807,-22.6599998474121
150.7585057,-22.5599994659424
150.7741307,-22.4699993133545
150.7897557,-22.5599994659424
150.8053807,-23.0100002288818
150.8210057,-23.7900009155273
150.8366307,-24.5300006866455
150.8522557,-24.7900009155273
150.8678807,-24.3400001525879
150.8835057,-22.9799995422363
150.8991307,-20.3700008392334
150.9147557,-16.0
150.9303807,-9.47000026702881
150.9460057,-0.600000023841858
150.9616307,10.2799997329712
150.9772557,21.9200000762939
150.9928807,32.1300010681152
151.0085057,39.0200004577637
151.0241307,41.939998626709
151.0397557,41.6399993896484
151.0553807,39.4500007629395
151.0710057,36.5699996948242
151.0866307,33.560001373291
151.1022557,30.3899993896484
151.1178807,26.6000003814697
151.1335057,21.6100006103516
151.1491307,15.039999961853
151.1647557,6.92000007629395
151.1803807,-2.09999990463257
151.1960057,-10.5600004196167
151.2116307,-16.5699996948242
151.2272557,-18.9899997711182
151.2428807,-18.3400001525879
151.2585057,-16.5100002288818
151.2741307,-15.3599996566772
151.2897557,-15.5799999237061
151.3053807,-16.6299991607666
151.3210057,-17.6900005340576
151.3366307,-18.4400005340576
151.3522557,-19.1100006103516
151.3678807,-20.0300006866455
151.3835057,-21.2900009155273
151.3991307,-22.6599998474121
151.4147557,-23.7800006866455
151.4303807,-24.2700004577637
151.4460057,-23.9500007629395
151.4616307,-22.9599990844727
151.4772557,-21.5799999237061
151.4928807,-20.0200004577637
151.5085057,-18.1499996185303
151.5241307,-15.4099998474121
151.5397557,-10.8800001144409
151.5553807,-3.77999997138977
151.5710057,5.92000007629395
151.5866307,17.1499996185303
151.6022557,28.0100002288818
151.6178807,36.5699996948242
151.6335057,41.5499992370605
151.6491307,42.7599983215332
151.6647557,41.0699996948242
151.6803807,38.0200004577637
151.6960057,35.1100006103516
151.7116307,33.0999984741211
151.7272557,31.5699996948242
151.7428807,29.1299991607666
151.7585057,24.3700008392334
151.7741307,17.1499996185303
151.7897557,8.78999996185303
151.8053807,1.16999995708466
151.8210057,-4.34000015258789
151.8366307,-7.48000001907349
151.8522557,-8.90999984741211
151.8678807,-9.63000011444092
151.8835057,-10.3199996948242
151.8991307,-11.1099996566772
151.9147557,-11.6099996566772
151.9303807,-11.2600002288818
151.9460057,-9.94999980926514
151.9616307,-8.38000011444092
151.9772557,-7.65000009536743
151.9928807,-8.42000007629395
152.0085057,-10.5100002288818
152.0241307,-13.0900001525879
152.0397557,-15.2799997329712
152.0553807,-16.4599990844727
152.0710057,-16.3299999237061
152.0866307,-14.9700002670288
152.1022557,-12.8500003814697
152.1178807,-10.5
152.1335057,-7.98000001907349
152.1491307,-4.6100001335144
152.1647557,0.779999971389771
152.1803807,8.94999980926514
152.1960057,19.2999992370605
152.2116307,29.8899993896484
152.2272557,38.2299995422363
152.2428807,42.4799995422363
152.2585057,42.310001373291
152.2741307,39.0099983215332
152.2897557,34.6199989318848
152.3053807,30.7600002288818
152.3210057,27.8999996185303
152.3366307,25.25
152.3522557,21.2900009155273
152.3678807,14.8599996566772
152.3835057,6.1399998664856
152.3991307,-3.09999990463257
152.4147557,-10.4499998092651
152.4303807,-14.3299999237061
152.4460057,-14.9099998474121
152.4616307,-13.7600002288818
152.4772557,-12.7299995422363
152.4928807,-13.0699996948242
152.5085057,-15.0
152.5241307,-17.6399993896484
152.5397557,-19.6299991607666
152.5553807,-20.2000007629395
152.5710057,-19.6100006103516
152.5866307,-18.6900005340576
152.6022557,-18.3700008392334
152.6178807,-19.2800006866455
152.6335057,-21.3899993896484
152.6491307,-24.0
152.6647557,-26.3600006103516
152.6803807,-28.0499992370605
152.6960057,-28.8400001525879
152.7116307,-28.2999992370605
152.7272557,-25.7099990844727
152.7428807,-20.4599990844727
152.7585057,-12.4899997711182
152.7741307,-2.39000010490417
152.7897557,8.72999954223633
152.8053807,19.6399993896484
152.8210057,29.0400009155273
152.8366307,35.810001373291
152.8522557,39.3699989318848
152.8678807,39.7999992370605
152.8835057,37.6199989318848
152.8991307,33.8699989318848
152.9147557,30.0499992370605
152.9303807,27.3999996185303
152.9460057,25.7999992370605
152.9616307,23.8299999237061
152.9772557,20.1100006103516
152.9928807,14.3599996566772
153.0085057,7.44999980926514
153.0241307,0.670000016689301
153.0397557,-4.96999979019165
153.0553807,-9.09000015258789
153.0710057,-11.7600002288818
153.0866307,-13.3900003433228
153.1022557,-14.6700000762939
153.1178807,-16.1700000762939
153.1335057,-18.1599998474121
153.1491307,-20.5900001525879
153.1647557,-23.1299991607666
153.1803807,-25.1399993896484
153.1960057,-25.9799995422363
153.2116307,-25.5100002288818
153.2272557,-24.2199993133545
153.2428807,-22.7999992370605
153.2585057,-21.6599998474121
153.2741307,-20.8099994659424
153.2897557,-20.1000003814697
153.3053807,-19.5300006866455
153.3210057,-19.2099990844727
153.3366307,-18.8799991607666
153.3522557,-17.3299999237061
153.3678807,-12.75
153.3835057,-4.09000015258789
153.3991307,7.8600001335144
153.4147557,20.5900001525879
153.4303807,31.1100006103516
153.4460057,37.2400016784668
153.4616307,38.4799995422363
153.4772557,36.0400009155273
153.4928807,32.0099983215332
153.5085057,28.3400001525879
153.5241307,25.9599990844727
153.5397557,24.6599998474121
153.5553807,23.4200000762939
153.5710057,20.9899997711182
153.5866307,16.6200008392334
153.6022557,10.460000038147
153.6178807,3.59999990463257
153.6335057,-2.42000007629395
153.6491307,-6.6100001335144
153.6647557,-9.0600004196167
153.6803807,-10.7799997329712
153.6960057,-12.8900003433228
153.7116307,-15.9300003051758
153.7272557,-19.6800003051758
153.7428807,-23.2700004577637
153.7585057,-25.5900001525879
153.7741307,-25.9300003051758
153.7897557,-24.4899997711182
153.8053807,-22.1599998474121
153.8210057,-20.0
153.8366307,-18.8799991607666
153.8522557,-19.0300006866455
153.8678807,-19.9300003051758
153.8835057,-20.7900009155273
153.8991307,-21.2600002288818
153.9147557,-21.4599990844727
153.9303807,-21.4599990844727
153.9460057,-20.9300003051758
153.9616307,-18.8999996185303
153.9772557,-13.9799995422363
153.9928807,-5.17000007629395
154.0085057,6.96999979019165
154.0241307,20.1100006103516
154.0397557,31.1499996185303
154.0553807,37.8300018310547
154.0710057,39.8300018310547
154.0866307,38.560001373291
154.1022557,36.1100006103516
154.1178807,33.8899993896484
154.1335057,32.0800018310547
154.1491307,29.7900009155273
154.1647557,26.0200004577637
154.1803807,20.4500007629395
154.1960057,13.5299997329712
154.2116307,6.23000001907349
154.2272557,-0.389999985694885
154.2428807,-5.6100001335144
154.2585057,-9.18000030517578
154.2741307,-11.3599996566772
154.2897557,-12.5900001525879
154.3053807,-13.2799997329712
154.3210057,-13.6800003051758
154.3366307,-13.8100004196167
154.3522557,-13.6999998092651
154.3678807,-13.6400003433228
154.3835057,-14.1599998474121
154.3991307,-15.4700002670288
154.4147557,-17.1900005340576
154.4303807,-18.5900001525879
154.4460057,-19.1399993896484
154.4616307,-18.7199993133545
154.4772557,-17.4099998474121
154.4928807,-15.4499998092651
154.5085057,-13.3400001525879
154.5241307,-11.789999961853
154.5397557,-11.1499996185303
154.5553807,-10.7799997329712
154.5710057,-9.26000022888184
154.5866307,-5.23999977111816
154.6022557,1.58000004291534
154.6178807,10.3900003433228
154.6335057,19.6200008392334
154.6491307,27.7199993133545
154.6647557,33.5400009155273
154.6803807,36.4799995422363
154.6960057,36.5699996948242
154.7116307,34.3699989318848
154.7272557,30.8600006103516
154.7428807,27.1200008392334
154.7585057,23.7600002288818
154.7741307,20.6100006103516
154.7897557,16.8899993896484
154.8053807,11.8500003814697
154.8210057,5.44999980926514
154.8366307,-1.10000002384186
154.8522557,-5.84999990463257
154.8678807,-7.48000001907349
154.8835057,-6.36999988555908
154.8991307,-4.42999982833862
154.9147557,-3.72000002861023
154.9303807,-5.13000011444092
154.9460057,-8.01000022888184
154.9616307,-10.9300003051758
154.9772557,-12.8199996948242
154.9928807,-13.5
155.0085057,-13.4899997711182
155.0241307,-13.4499998092651
155.0397557,-13.7700004577637
155.0553807,-14.539999961853
155.0710057,-15.7299995422363
155.0866307,-17.2800006866455
155.1022557,-19.0799999237061
155.1178807,-20.8700008392334
155.1335057,-22.1800003051758
155.1491307,-22.4400005340576
155.1647557,-21.1200008392334
155.1803807,-17.7000007629395
155.1960057,-11.6400003433228
155.2116307,-2.71000003814697
155.2272557,8.40999984741211
155.2428807,20.0400009155273
155.2585057,29.9599990844727
155.2741307,36.4300003051758
155.2897557,38.8800010681152
155.3053807,38.1399993896484
155.3210057,35.810001373291
155.3366307,33.2299995422363
155.3522557,30.6800003051758
155.3678807,27.4500007629395
155.3835057,22.6100006103516
155.3991307,15.8900003433228
155.4147557,7.98000001907349
155.4303807,0.180000007152557
155.4460057,-6.26000022888184
155.4616307,-10.75
155.4772557,-13.5500001907349
155.4928807,-15.4200000762939
155.5085057,-17.0799999237061
155.5241307,-18.7700004577637
155.5397557,-20.3099994659424
155.5553807,-21.2199993133545
155.5710057,-21.1399993896484
155.5866307,-20.2000007629395
155.6022557,-18.8999996185303
155.6178807,-17.8500003814697
155.6335057,-17.2999992370605
155.6491307,-16.8899993896484
155.6647557,-15.960000038147
155.6803807,-14.289999961853
155.6960057,-12.4099998474121
155.7116307,-11.1999998092651
155.7272557,-11.1099996566772
155.7428807,-11.9399995803833
155.7585057,-13.0
155.7741307,-13.3999996185303
155.7897557,-12.039999961853
155.8053807,-7.71999979019165
155.8210057,0.0900000035762787
155.8366307,10.5500001907349
155.8522557,21.3899993896484
155.8678807,29.9799995422363
155.8835057,34.6199989318848
155.8991307,35.189998626709
155.9147557,32.810001373291
155.9303807,28.7800006866455
155.9460057,23.9500007629395
155.9616307,18.8700008392334
155.9772557,14.1499996185303
155.9928807,10.3000001907349
156.0085057,7.23999977111816
156.0241307,4.44000005722046
156.0397557,1.44000005722046
156.0553807,-1.94000005722046
156.0710057,-5.71000003814697
156.0866307,-9.63000011444092
156.1022557,-13.1300001144409
156.1178807,-15.5600004196167
156.1335057,-16.5699996948242
156.1491307,-16.0599994659424
156.1647557,-14.0900001525879
156.1803807,-11.1199998855591
156.1960057,-8.13000011444092
156.2116307,-6.23000001907349
156.2272557,-6.30000019073486
156.2428807,-8.5
156.2585057,-12.0
156.2741307,-15.289999961853
156.2897557,-17.2000007629395
156.3053807,-17.5900001525879
156.3210057,-17.1100006103516
156.3366307,-16.5
156.3522557,-15.9099998474121
156.3678807,-14.6899995803833
156.3835057,-11.6400003433228
156.3991307,-5.57999992370605
156.4147557,3.82999992370605
156.4303807,15.6499996185303
156.4460057,27.6499996185303
156.4616307,37.1199989318848
156.4772557,42.1800003051758
156.4928807,42.5
156.5085057,39.1300010681152
156.5241307,33.9799995422363
156.5397557,29.0
156.5553807,25.3700008392334
156.5710057,23.0599994659424
156.5866307,21.0799999237061
156.6022557,17.9599990844727
156.6178807,12.5
156.6335057,4.6100001335144
156.6491307,-4.44999980926514
156.6647557,-12.75
156.6803807,-18.5699996948242
156.6960057,-21.2299995422363
156.7116307,-21.2099990844727
156.7272557,-19.6800003051758
156.7428807,-17.7900009155273
156.7585057,-16.1100006103516
156.7741307,-14.8500003814697
156.7897557,-14.2399997711182
156.8053807,-14.4399995803833
156.8210057,-15.1400003433228
156.8366307,-15.6800003051758
156.8522557,-15.7600002288818
156.8678807,-15.6800003051758
156.8835057,-15.960000038147
156.8991307,-16.7299995422363
156.9147557,-17.5300006866455
156.9303807,-17.6800003051758
156.9460057,-16.7000007629395
156.9616307,-14.3000001907349
156.9772557,-10.0500001907349
156.9928807,-3.39000010490417
157.0085057,5.69000005722046
157.0241307,16.0300006866455
157.0397557,25.3299999237061
157.0553807,31.1700000762939
157.0710057,32.4900016784668
157.0866307,30.2099990844727
157.1022557,26.4400005340576
157.1178807,22.7999992370605
157.1335057,19.6900005340576
157.1491307,16.7199993133545
157.1647557,13.4200000762939
157.1803807,9.53999996185303
157.1960057,5.05000019073486
157.2116307,0.0500000007450581
157.2272557,-5.23000001907349
157.2428807,-10.3500003814697
157.2585057,-14.6199998855591
157.2741307,-17.3500003814697
157.2897557,-18.0499992370605
157.3053807,-16.5599994659424
157.3210057,-13.4399995803833
157.3366307,-9.82999992370605
157.3522557,-6.82000017166138
157.3678807,-4.88000011444092
157.3835057,-4.1399998664856
157.3991307,-4.65999984741211
157.4147557,-6.26000022888184
157.4303807,-8.39999961853027
157.4460057,-10.539999961853
157.4616307,-12.3900003433228
157.4772557,-14.0
157.4928807,-15.5
157.5085057,-16.7800006866455
157.5241307,-17.2800006866455
157.5397557,-16.0499992370605
157.5553807,-12.0100002288818
157.5710057,-4.51999998092651
157.5866307,5.8600001335144
157.6022557,17.2099990844727
157.6178807,26.9300003051758
157.6335057,33.1199989318848
157.6491307,35.5299987792969
157.6647557,35.1500015258789
157.6803807,33.1699981689453
157.6960057,30.2099990844727
157.7116307,26.3099994659424
157.7272557,21.4699993133545
157.7428807,15.9799995422363
157.7585057,10.3000001907349
157.7741307,4.84999990463257
157.7897557,-0.0900000035762787
157.8053807,-4.5
157.8210057,-8.53999996185303
157.8366307,-12.3199996948242
157.8522557,-15.3199996948242
157.8678807,-16.4899997711182
157.8835057,-15.0600004196167
157.8991307,-11.3100004196167
157.9147557,-6.82000017166138
157.9303807,-3.65000009536743
157.9460057,-3.1800000667572
157.9616307,-5.42000007629395
157.9772557,-9.36999988555908
157.9928807,-13.6499996185303
158.0085057,-17.0900001525879
158.0241307,-19.1000003814697
158.0397557,-19.6800003051758
158.0553807,-19.1000003814697
158.0710057,-17.6499996185303
158.0866307,-15.4799995422363
158.1022557,-12.6899995803833
158.1178807,-9.21000003814697
158.1335057,-4.51999998092651
158.1491307,2.07999992370605
158.1647557,10.6800003051758
158.1803807,20.0699996948242
158.1960057,28.1800003051758
158.2116307,33.1399993896484
158.2272557,34.189998626709
158.2428807,31.8199996948242
158.2585057,27.2900009155273
158.2741307,22.0499992370605
158.2897557,17.25
158.3053807,13.3400001525879
158.3210057,9.86999988555908
158.3366307,5.8899998664856
158.3522557,0.829999983310699
158.3678807,-4.82000017166138
158.3835057,-9.93000030517578
158.3991307,-13.5299997329712
158.4147557,-15.289999961853
158.4303807,-15.4899997711182
158.4460057,-14.9099998474121
158.4616307,-14.4799995422363
158.4772557,-14.6800003051758
158.4928807,-15.25
158.5085057,-15.5600004196167
158.5241307,-15.2399997711182
158.5397557,-14.5200004577637
158.5553807,-14.0900001525879
158.5710057,-14.6400003433228
158.5866307,-16.2399997711182
158.6022557,-18.1299991607666
158.6178807,-19.1800003051758
158.6335057,-18.5300006866455
158.6491307,-16.2000007629395
158.6647557,-12.789999961853
158.6803807,-8.94999980926514
158.6960057,-4.84000015258789
158.7116307,-0.0599999986588955
158.7272557,5.90000009536743
158.7428807,13.0600004196167
158.7585057,20.5799999237061
158.7741307,27.2299995422363
158.7897557,32.0
158.8053807,34.2400016784668
158.8210057,33.7200012207031
158.8366307,30.7900009155273
158.8522557,26.3500003814697
158.8678807,21.3400001525879
158.8835057,16.2600002288818
158.8991307,11.1999998092651
158.9147557,6.17999982833862
158.9303807,1.42999994754791
158.9460057,-2.84999990463257
158.9616307,-6.61999988555908
158.9772557,-10.0600004196167
158.9928807,-13.3999996185303
159.0085057,-16.6399993896484
159.0241307,-19.2800006866455
159.0397557,-20.4799995422363
159.0553807,-19.7299995422363
159.0710057,-17.3999996185303
159.0866307,-14.5299997329712
159.1022557,-12.2299995422363
159.1178807,-11.0600004196167
159.1335057,-10.7399997711182
159.1491307,-10.4799995422363
159.1647557,-9.89999961853027
159.1803807,-9.39000034332275
159.1960057,-9.60999965667725
159.2116307,-10.7700004577637
159.2272557,-12.2700004577637
159.2428807,-12.8500003814697
159.2585057,-10.9899997711182
159.2741307,-5.57999992370605
159.2897557,3.3199999332428
159.3053807,14.2299995422363
159.3210057,24.7299995422363
159.3366307,32.6100006103516
159.3522557,36.7700004577637
159.3678807,37.4099998474121
159.3835057,35.560001373291
159.3991307,32.439998626709
159.4147557,29.0900001525879
159.4303807,25.8899993896484
159.4460057,22.4799995422363
159.4616307,18.1900005340576
159.4772557,12.6700000762939
159.4928807,6.15000009536743
159.5085057,-0.720000028610229
159.5241307,-7.23000001907349
159.5397557,-12.6899995803833
159.5553807,-16.6200008392334
159.5710057,-18.9400005340576
159.5866307,-19.9400005340576
159.6022557,-20.1399993896484
159.6178807,-20.0900001525879
159.6335057,-20.0499992370605
159.6491307,-20.0400009155273
159.6647557,-19.9500007629395
159.6803807,-19.7099990844727
159.6960057,-19.4099998474121
159.7116307,-19.2299995422363
