Time(s),Value(%)
1241.0120582,46.6500015258789
1241.0276832,40.0999984741211
1241.0433082,35.9799995422363
1241.0589332,33.4000015258789
1241.0745582,30.8199996948242
1241.0901832,26.8400001525879
1241.1058082,20.7000007629395
1241.1214332,12.75
1241.1370582,4.19999980926514
1241.1526832,-3.49000000953674
1241.1683082,-9.22000026702881
1241.1839332,-12.5500001907349
1241.1995582,-13.9200000762939
1241.2151832,-14.3500003814697
1241.2308082,-14.9300003051758
1241.2464332,-16.1499996185303
1241.2620582,-17.6900005340576
1241.2776832,-18.7099990844727
1241.2933082,-18.4899997711182
1241.3089332,-16.8299999237061
1241.3245582,-14.0900001525879
1241.3401832,-10.960000038147
1241.3558082,-8.07999992370605
1241.3714332,-6.01999998092651
1241.3870582,-5.07000017166138
1241.4026832,-5.09000015258789
1241.4183082,-5.55999994277954
1241.4339332,-6.01000022888184
1241.4495582,-6.26000022888184
1241.4651832,-6.5
1241.4808082,-6.92000007629395
1241.4964332,-7.40999984741211
1241.5120582,-7.59000015258789
1241.5276832,-7.34999990463257
1241.5433082,-7.0
1241.5589332,-6.86999988555908
1241.5745582,-7.03000020980835
1241.5901832,-7.40000009536743
1241.6058082,-7.90000009536743
1241.6214332,-8.30000019073486
1241.6370582,-7.80999994277954
1241.6526832,-5.03000020980835
1241.6683082,1.44000005722046
1241.6839332,12.0699996948242
1241.6995582,25.8199996948242
1241.7151832,40.4099998474121
1241.7308082,53.0499992370605
1241.7464332,61.5299987792969
1241.7620582,65.0100021362305
1241.7776832,64.0100021362305
1241.7933082,59.7799987792969
1241.8089332,53.5499992370605
1241.8245582,46.3899993896484
1241.8401832,39.1399993896484
1241.8558082,32.25
1241.8714332,25.3999996185303
1241.8870582,17.7900009155273
1241.9026832,8.98999977111816
1241.9183082,-0.170000001788139
1241.9339332,-7.94999980926514
1241.9495582,-12.8900003433228
1241.9651832,-14.789999961853
1241.9808082,-14.6400003433228
1241.9964332,-13.8400001525879
1242.0120582,-13.4700002670288
1242.0276832,-13.9300003051758
1242.0433082,-14.9399995803833
1242.0589332,-16.0300006866455
1242.0745582,-16.8899993896484
1242.0901832,-17.5100002288818
1242.1058082,-18.1499996185303
1242.1214332,-18.9500007629395
1242.1370582,-19.7999992370605
1242.1526832,-20.4200000762939
1242.1683082,-20.5400009155273
1242.1839332,-20.1100006103516
1242.1995582,-19.3199996948242
1242.2151832,-18.5900001525879
1242.2308082,-18.4500007629395
1242.2464332,-19.2900009155273
1242.2620582,-20.8500003814697
1242.2776832,-22.2399997711182
1242.2933082,-22.5300006866455
1242.3089332,-21.3700008392334
1242.3245582,-19.2299995422363
1242.3401832,-16.9799995422363
1242.3558082,-15.3699998855591
1242.3714332,-14.6099996566772
1242.3870582,-14.460000038147
1242.4026832,-14.4700002670288
1242.4183082,-13.9899997711182
1242.4339332,-11.9399995803833
1242.4495582,-6.8600001335144
1242.4651832,2.45000004768372
1242.4808082,16.0100002288818
1242.4964332,32.0299987792969
1242.5120582,47.1699981689453
1242.5276832,57.7900009155273
1242.5433082,61.7200012207031
1242.5589332,59.3699989318848
1242.5745582,53.189998626709
1242.5901832,45.7200012207031
1242.6058082,38.1399993896484
1242.6214332,30.4899997711182
1242.6370582,22.7999992370605
1242.6526832,15.5
1242.6683082,8.96000003814697
1242.6839332,3.08999991416931
1242.6995582,-2.41000008583069
1242.7151832,-7.6100001335144
1242.7308082,-12.1700000762939
1242.7464332,-15.8100004196167
1242.7620582,-18.5699996948242
1242.7776832,-20.5599994659424
1242.7933082,-21.6499996185303
1242.8089332,-21.7099990844727
1242.8245582,-20.9799995422363
1242.8401832,-19.9599990844727
1242.8558082,-19.0599994659424
1242.8714332,-18.4799995422363
1242.8870582,-18.3099994659424
1242.9026832,-18.5599994659424
1242.9183082,-19.1399993896484
1242.9339332,-19.9699993133545
1242.9495582,-20.9400005340576
1242.9651832,-21.6399993896484
1242.9808082,-21.4599990844727
1242.9964332,-19.9400005340576
1243.0120582,-17.2399997711182
1243.0276832,-14.1499996185303
1243.0433082,-11.710000038147
1243.0589332,-10.5699996948242
1243.0745582,-10.6000003814697
1243.0901832,-11.1199998855591
1243.1058082,-11.3999996185303
1243.1214332,-11.1099996566772
1243.1370582,-10.1800003051758
1243.1526832,-8.42000007629395
1243.1683082,-5.26999998092651
1243.1839332,-0.209999993443489
1243.1995582,6.92000007629395
1243.2151832,15.9099998474121
1243.2308082,26.0200004577637
1243.2464332,35.8300018310547
1243.2620582,43.5099983215332
1243.2776832,47.5200004577637
1243.2933082,47.3800010681152
1243.3089332,43.7900009155273
1243.3245582,37.939998626709
1243.3401832,31.0200004577637
1243.3558082,23.9200000762939
1243.3714332,16.8899993896484
1243.3870582,9.40999984741211
1243.4026832,0.730000019073486
1243.4183082,-9.06999969482422
1243.4339332,-18.5400009155273
1243.4495582,-25.4200000762939
1243.4651832,-28.0
1243.4808082,-26.1299991607666
1243.4964332,-21.3500003814697
1243.5120582,-16.0200004577637
1243.5276832,-12.1599998474121
1243.5433082,-10.8999996185303
1243.5589332,-12.3800001144409
1243.5745582,-15.6300001144409
1243.5901832,-18.7999992370605
1243.6058082,-20.2099990844727
1243.6214332,-19.3099994659424
1243.6370582,-16.8299999237061
1243.6526832,-14.3100004196167
1243.6683082,-13.1800003051758
1243.6839332,-13.8900003433228
1243.6995582,-15.6599998474121
1243.7151832,-17.0900001525879
1243.7308082,-17.2999992370605
1243.7464332,-16.4799995422363
1243.7620582,-15.6899995803833
1243.7776832,-15.8500003814697
1243.7933082,-16.9200000762939
1243.8089332,-17.7700004577637
1243.8245582,-16.5900001525879
1243.8401832,-11.4300003051758
1243.8558082,-1.11000001430511
1243.8714332,13.75
1243.8870582,30.4400005340576
1243.9026832,45.0999984741211
1243.9183082,54.4700012207031
1243.9339332,57.0999984741211
1243.9495582,53.6199989318848
1243.9651832,46.1399993896484
1243.9808082,37.1500015258789
1243.9964332,28.6100006103516
1244.0120582,21.5599994659424
1244.0276832,16.0
1244.0433082,11.1199998855591
1244.0589332,5.84999990463257
1244.0745582,-0.529999971389771
1244.0901832,-7.84999990463257
1244.1058082,-15.1199998855591
1244.1214332,-20.9699993133545
1244.1370582,-24.3500003814697
1244.1526832,-25.2700004577637
1244.1683082,-24.7900009155273
1244.1839332,-24.0300006866455
1244.1995582,-23.4799995422363
1244.2151832,-23.0799999237061
1244.2308082,-22.7199993133545
1244.2464332,-22.4899997711182
1244.2620582,-22.5300006866455
1244.2776832,-22.75
1244.2933082,-22.9099998474121
1244.3089332,-22.7800006866455
1244.3245582,-22.0499992370605
1244.3401832,-20.4200000762939
1244.3558082,-17.8600006103516
1244.3714332,-14.8800001144409
1244.3870582,-12.3599996566772
1244.4026832,-10.9899997711182
1244.4183082,-10.7799997329712
1244.4339332,-11.1700000762939
1244.4495582,-11.5299997329712
1244.4651832,-11.3500003814697
1244.4808082,-9.88000011444092
1244.4964332,-5.73000001907349
1244.5120582,2.4300000667572
1244.5276832,14.5600004196167
1244.5433082,28.7800006866455
1244.5589332,42.25
1244.5745582,52.2900009155273
1244.5901832,57.2999992370605
1244.6058082,57.0
1244.6214332,52.25
1244.6370582,44.5699996948242
1244.6526832,35.7400016784668
1244.6683082,27.2700004577637
1244.6839332,20.1700000762939
1244.6995582,15.039999961853
1244.7151832,11.6700000762939
1244.7308082,8.77999973297119
1244.7464332,4.67000007629395
1244.7620582,-1.55999994277954
1244.7776832,-9.22000026702881
1244.7933082,-16.6000003814697
1244.8089332,-22.0900001525879
1244.8245582,-24.7999992370605
1244.8401832,-24.7999992370605
1244.8558082,-23.1000003814697
1244.8714332,-21.2999992370605
1244.8870582,-20.6299991607666
1244.9026832,-21.3299999237061
1244.9183082,-22.7900009155273
1244.9339332,-24.2700004577637
1244.9495582,-25.2099990844727
1244.9651832,-25.2800006866455
1244.9808082,-24.2999992370605
1244.9964332,-22.3500003814697
1245.0120582,-19.8099994659424
1245.0276832,-17.3999996185303
1245.0433082,-15.9899997711182
1245.0589332,-16.1700000762939
1245.0745582,-17.8999996185303
1245.0901832,-20.3999996185303
1245.1058082,-22.5599994659424
1245.1214332,-23.4899997711182
1245.1370582,-22.8099994659424
1245.1526832,-20.8500003814697
1245.1683082,-18.4099998474121
1245.1839332,-15.7700004577637
1245.1995582,-11.8100004196167
1245.2151832,-4.57999992370605
1245.2308082,6.76000022888184
1245.2464332,20.8500003814697
1245.2620582,34.8400001525879
1245.2776832,46.0999984741211
1245.2933082,53.1399993896484
1245.3089332,55.5299987792969
1245.3245582,53.7000007629395
1245.3401832,48.7200012207031
1245.3558082,42.2299995422363
1245.3714332,36.0200004577637
1245.3870582,31.1700000762939
1245.4026832,27.5599994659424
1245.4183082,24.25
1245.4339332,20.4200000762939
1245.4495582,15.8299999237061
1245.4651832,10.460000038147
1245.4808082,4.34000015258789
1245.4964332,-2.14000010490417
1245.5120582,-8.07999992370605
1245.5276832,-12.6199998855591
1245.5433082,-15.4200000762939
1245.5589332,-16.5200004577637
1245.5745582,-16.0900001525879
1245.5901832,-14.6400003433228
1245.6058082,-13.2700004577637
1245.6214332,-13.039999961853
1245.6370582,-14.1800003051758
1245.6526832,-16.0699996948242
1245.6683082,-17.7999992370605
1245.6839332,-18.6100006103516
1245.6995582,-17.9599990844727
1245.7151832,-15.8199996948242
1245.7308082,-12.9300003051758
1245.7464332,-10.5900001525879
1245.7620582,-9.90999984741211
1245.7776832,-11.0600004196167
1245.7933082,-13.1999998092651
1245.8089332,-15.3299999237061
1245.8245582,-16.8899993896484
1245.8401832,-17.8700008392334
1245.8558082,-18.3899993896484
1245.8714332,-18.4599990844727
1245.8870582,-17.75
1245.9026832,-15.7700004577637
1245.9183082,-12.1000003814697
1245.9339332,-6.15000009536743
1245.9495582,2.95000004768372
1245.9651832,15.5500001907349
1245.9808082,30.3799991607666
1245.9964332,44.689998626709
1246.0120582,55.6300010681152
1246.0276832,61.4500007629395
1246.0433082,61.9000015258789
1246.0589332,58.1800003051758
1246.0745582,52.3699989318848
1246.0901832,46.4700012207031
1246.1058082,41.439998626709
1246.1214332,37.1500015258789
1246.1370582,32.7200012207031
1246.1526832,27.0300006866455
1246.1683082,19.2800006866455
1246.1839332,9.48999977111816
1246.1995582,-1.30999994277954
1246.2151832,-11.3500003814697
1246.2308082,-18.9799995422363
1246.2464332,-23.6599998474121
1246.2620582,-26.1499996185303
1246.2776832,-27.6200008392334
1246.2933082,-28.7299995422363
1246.3089332,-29.3600006103516
1246.3245582,-29.1499996185303
1246.3401832,-27.9699993133545
1246.3558082,-25.9500007629395
1246.3714332,-23.3099994659424
1246.3870582,-20.3799991607666
1246.4026832,-17.6399993896484
1246.4183082,-15.460000038147
1246.4339332,-13.8800001144409
1246.4495582,-12.6099996566772
1246.4651832,-11.6000003814697
1246.4808082,-11.1899995803833
1246.4964332,-12.0299997329712
1246.5120582,-14.7600002288818
1246.5276832,-19.3600006103516
1246.5433082,-24.4400005340576
1246.5589332,-27.5699996948242
1246.5745582,-26.7600002288818
1246.5901832,-22.0400009155273
1246.6058082,-15.460000038147
1246.6214332,-9.68000030517578
1246.6370582,-6.55999994277954
1246.6526832,-6.51000022888184
1246.6683082,-8.6899995803833
1246.6839332,-11.5299997329712
1246.6995582,-13.289999961853
1246.7151832,-12.460000038147
1246.7308082,-7.92000007629395
1246.7464332,1.01999998092651
1246.7620582,14.3699998855591
1246.7776832,30.7700004577637
1246.7933082,47.3199996948242
1246.8089332,60.310001373291
1246.8245582,66.9400024414063
1246.8401832,66.5400009155273
1246.8558082,60.5900001525879
1246.8714332,51.5900001525879
1246.8870582,41.9700012207031
1246.9026832,33.5800018310547
1246.9183082,27.3999996185303
1246.9339332,23.2900009155273
1246.9495582,20.0100002288818
1246.9651832,15.960000038147
1246.9808082,10.2200002670288
1246.9964332,3.05999994277954
1247.0120582,-4.32000017166138
1247.0276832,-10.6400003433228
1247.0433082,-15.2200002670288
1247.0589332,-17.9899997711182
1247.0745582,-19.1900005340576
1247.0901832,-19.3299999237061
1247.1058082,-19.1200008392334
1247.1214332,-18.9099998474121
1247.1370582,-18.4200000762939
1247.1526832,-17.2900009155273
1247.1683082,-15.8599996566772
1247.1839332,-15.0600004196167
1247.1995582,-15.539999961853
1247.2151832,-17.0499992370605
1247.2308082,-18.7299995422363
1247.2464332,-19.9200000762939
1247.2620582,-20.4699993133545
1247.2776832,-20.5499992370605
1247.2933082,-20.3099994659424
1247.3089332,-19.6299991607666
1247.3245582,-18.3500003814697
1247.3401832,-16.7600002288818
1247.3558082,-15.710000038147
1247.3714332,-15.9099998474121
1247.3870582,-17.2700004577637
1247.4026832,-18.9200000762939
1247.4183082,-19.8199996948242
1247.4339332,-19.3400001525879
1247.4495582,-17.4899997711182
1247.4651832,-14.9099998474121
1247.4808082,-12.4499998092651
1247.4964332,-10.5200004577637
1247.5120582,-8.67000007629395
1247.5276832,-5.51999998092651
1247.5433082,0.699999988079071
1247.5589332,11.2799997329712
1247.5745582,25.9099998474121
1247.5901832,42.310001373291
1247.6058082,56.9700012207031
1247.6214332,66.7799987792969
1247.6370582,70.1699981689453
1247.6526832,67.4300003051758
1247.6683082,60.1599998474121
1247.6839332,50.5099983215332
1247.6995582,40.5499992370605
1247.7151832,31.8999996185303
1247.7308082,25.1499996185303
1247.7464332,19.6700000762939
1247.7620582,14.25
1247.7776832,8.26000022888184
1247.7933082,1.96000003814697
1247.8089332,-4.0
1247.8245582,-9.13000011444092
1247.8401832,-13.1499996185303
1247.8558082,-16.1499996185303
1247.8714332,-18.3999996185303
1247.8870582,-20.0799999237061
1247.9026832,-21.1399993896484
1247.9183082,-21.5400009155273
1247.9339332,-21.4799995422363
1247.9495582,-21.4200000762939
1247.9651832,-21.9300003051758
1247.9808082,-23.2600002288818
1247.9964332,-24.9300003051758
1248.0120582,-25.9500007629395
1248.0276832,-25.6100006103516
1248.0433082,-23.9400005340576
1248.0589332,-21.3700008392334
1248.0745582,-18.3099994659424
1248.0901832,-15.2200002670288
1248.1058082,-12.6300001144409
1248.1214332,-10.8900003433228
1248.1370582,-9.86999988555908
1248.1526832,-9.07999992370605
1248.1683082,-8.32999992370605
1248.1839332,-8.0600004196167
1248.1995582,-9.0
1248.2151832,-11.3699998855591
1248.2308082,-14.7299995422363
1248.2464332,-18.2000007629395
1248.2620582,-20.9599990844727
1248.2776832,-22.2700004577637
1248.2933082,-20.9300003051758
1248.3089332,-15.2299995422363
1248.3245582,-4.05000019073486
1248.3401832,11.9499998092651
1248.3558082,30.0599994659424
1248.3714332,46.5299987792969
1248.3870582,58.1199989318848
1248.4026832,63.1699981689453
1248.4183082,62.0
1248.4339332,56.5800018310547
1248.4495582,49.3800010681152
1248.4651832,42.1699981689453
1248.4808082,35.4000015258789
1248.4964332,28.5200004577637
1248.5120582,20.8799991607666
1248.5276832,12.4700002670288
1248.5433082,3.85999989509583
1248.5589332,-4.26999998092651
1248.5745582,-11.3999996185303
1248.5901832,-17.0900001525879
1248.6058082,-21.0
1248.6214332,-23.1000003814697
1248.6370582,-23.7299995422363
1248.6526832,-23.2900009155273
1248.6683082,-21.9699993133545
1248.6839332,-19.8700008392334
1248.6995582,-17.2999992370605
1248.7151832,-14.8199996948242
1248.7308082,-12.9300003051758
1248.7464332,-11.8800001144409
1248.7620582,-11.7399997711182
1248.7776832,-12.5500001907349
1248.7933082,-14.1300001144409
1248.8089332,-15.9799995422363
1248.8245582,-17.3799991607666
1248.8401832,-17.7099990844727
1248.8558082,-16.9799995422363
1248.8714332,-16.0
1248.8870582,-15.7700004577637
1248.9026832,-16.6000003814697
1248.9183082,-18.0900001525879
1248.9339332,-19.6900005340576
1248.9495582,-21.1399993896484
1248.9651832,-22.0599994659424
1248.9808082,-21.7000007629395
1248.9964332,-19.2600002288818
1249.0120582,-14.3100004196167
1249.0276832,-6.71000003814697
1249.0433082,3.49000000953674
1249.0589332,15.8299999237061
1249.0745582,29.1499996185303
1249.0901832,41.6699981689453
1249.1058082,51.4700012207031
1249.1214332,57.1300010681152
1249.1370582,58.1599998474121
1249.1526832,54.8699989318848
1249.1683082,47.9700012207031
1249.1839332,38.4500007629395
1249.1995582,27.5900001525879
1249.2151832,16.8899993896484
1249.2308082,7.55999994277954
1249.2464332,0.0299999993294477
1249.2620582,-6.15999984741211
1249.2776832,-11.8599996566772
1249.2933082,-17.2399997711182
1249.3089332,-21.5
1249.3245582,-23.4599990844727
1249.3401832,-22.5200004577637
1249.3558082,-19.1000003814697
1249.3714332,-14.4300003051758
1249.3870582,-9.92000007629395
1249.4026832,-6.55999994277954
1249.4183082,-4.90000009536743
1249.4339332,-5.36999988555908
1249.4495582,-8.07999992370605
1249.4651832,-12.3500003814697
1249.4808082,-16.9200000762939
1249.4964332,-20.6200008392334
1249.5120582,-22.7000007629395
1249.5276832,-22.9799995422363
1249.5433082,-22.0699996948242
1249.5589332,-21.1800003051758
1249.5745582,-21.3899993896484
1249.5901832,-22.7299995422363
1249.6058082,-24.1599998474121
1249.6214332,-24.3899993896484
1249.6370582,-22.7999992370605
1249.6526832,-19.4899997711182
1249.6683082,-14.4399995803833
1249.6839332,-6.94999980926514
1249.6995582,3.88000011444092
1249.7151832,17.9099998474121
1249.7308082,33.2000007629395
1249.7464332,46.7200012207031
1249.7620582,55.6599998474121
1249.7776832,58.5999984741211
1249.7933082,56.1100006103516
1249.8089332,50.2099990844727
1249.8245582,43.060001373291
1249.8401832,36.1599998474121
1249.8558082,30.25
1249.8714332,25.2199993133545
1249.8870582,20.0
1249.9026832,13.3599996566772
1249.9183082,4.94000005722046
1249.9339332,-4.25
1249.9495582,-12.4099998474121
1249.9651832,-17.7900009155273
1249.9808082,-19.5100002288818
1249.9964332,-18.0100002288818
1250.0120582,-15.0900001525879
1250.0276832,-12.9399995803833
1250.0433082,-12.8900003433228
1250.0589332,-14.8299999237061
1250.0745582,-17.5799999237061
1250.0901832,-19.8600006103516
1250.1058082,-21.0
1250.1214332,-21.0300006866455
1250.1370582,-20.3500003814697
1250.1526832,-19.5599994659424
1250.1683082,-19.1100006103516
1250.1839332,-19.1100006103516
1250.1995582,-19.5799999237061
1250.2151832,-20.6299991607666
1250.2308082,-22.3999996185303
1250.2464332,-24.9099998474121
1250.2620582,-27.8299999237061
1250.2776832,-30.3700008392334
1250.2933082,-31.4099998474121
1250.3089332,-29.9099998474121
1250.3245582,-25.0100002288818
1250.3401832,-16.1200008392334
1250.3558082,-3.1800000667572
1250.3714332,12.7299995422363
1250.3870582,29.1900005340576
1250.4026832,43.0900001525879
1250.4183082,52.0400009155273
1250.4339332,55.5499992370605
1250.4495582,54.939998626709
1250.4651832,52.4000015258789
1250.4808082,49.5699996948242
1250.4964332,46.8699989318848
1250.5120582,43.810001373291
1250.5276832,39.7299995422363
1250.5433082,34.0699996948242
1250.5589332,26.6900005340576
1250.5745582,18.0
1250.5901832,8.89999961853027
1250.6058082,0.239999994635582
1250.6214332,-7.15000009536743
1250.6370582,-12.3800001144409
1250.6526832,-14.9700002670288
1250.6683082,-15.5200004577637
1250.6839332,-15.3900003433228
1250.6995582,-15.7600002288818
1250.7151832,-17.0100002288818
1250.7308082,-19.0
1250.7464332,-21.5499992370605
1250.7620582,-24.5599994659424
1250.7776832,-27.7900009155273
1250.7933082,-30.6399993896484
1250.8089332,-32.3600006103516
1250.8245582,-32.4300003051758
1250.8401832,-30.8299999237061
1250.8558082,-28.0
1250.8714332,-24.8299999237061
1250.8870582,-22.5300006866455
1250.9026832,-22.1399993896484
1250.9183082,-23.8799991607666
1250.9339332,-26.7900009155273
1250.9495582,-29.1800003051758
1250.9651832,-29.6700000762939
1250.9808082,-27.8299999237061
1250.9964332,-23.8700008392334
1251.0120582,-17.8600006103516
1251.0276832,-9.27999973297119
1251.0433082,2.4300000667572
1251.0589332,16.8799991607666
1251.0745582,32.0099983215332
1251.0901832,44.7000007629395
1251.1058082,52.3800010681152
1251.1214332,54.5400009155273
1251.1370582,52.9099998474121
1251.1526832,50.0499992370605
1251.1683082,47.5400009155273
1251.1839332,45.5200004577637
1251.1995582,43.3499984741211
1251.2151832,40.2700004577637
1251.2308082,35.6500015258789
1251.2464332,28.9500007629395
1251.2620582,19.9699993133545
1251.2776832,9.01000022888184
1251.2933082,-2.8199999332428
1251.3089332,-13.7600002288818
1251.3245582,-22.0200004577637
1251.3401832,-26.5900001525879
1251.3558082,-27.6200008392334
