Time(s),Value(%)
159.0011142,13.960000038147
159.0167392,10.5699996948242
159.0323642,7.65000009536743
159.0479892,5.15000009536743
159.0636142,2.84999990463257
159.0792392,0.419999986886978
159.0948642,-2.35999989509583
159.1104892,-5.55000019073486
159.1261142,-8.97000026702881
159.1417392,-12.3599996566772
159.1573642,-15.5100002288818
159.1729892,-18.3199996948242
159.1886142,-20.8199996948242
159.2042392,-23.1000003814697
159.2198642,-25.25
159.2354892,-27.2999992370605
159.2511142,-29.2700004577637
159.2667392,-30.6900005340576
159.2823642,-31.2900009155273
159.2979892,-30.9400005340576
159.3136142,-29.6399993896484
159.3292392,-27.2199993133545
159.3448642,-23.3199996948242
159.3604892,-17.6200008392334
159.3761142,-10.2700004577637
159.3917392,-1.98000001907349
159.4073642,6.21999979019165
159.4229892,13.6599998474121
159.4386142,20.1700000762939
159.4542392,25.9200000762939
159.4698642,31.0100002288818
159.4854892,35.1599998474121
159.5011142,37.9599990844727
159.5167392,39.2200012207031
159.5323642,39.1199989318848
159.5479892,38.0400009155273
159.5636142,36.4099998474121
159.5792392,34.5699996948242
159.5948642,32.7299995422363
159.6104892,30.9899997711182
159.6261142,29.2999992370605
159.6417392,27.5100002288818
159.6573642,25.4899997711182
159.6729892,23.1800003051758
159.6886142,20.5599994659424
159.7042392,17.5300006866455
159.7198642,14.0200004577637
159.7354892,10.0799999237061
159.7511142,5.98999977111816
159.7667392,2.15000009536743
159.7823642,-1.22000002861023
159.7979892,-4.25
159.8136142,-7.17000007629395
159.8292392,-10.0799999237061
159.8448642,-12.9099998474121
159.8604892,-15.710000038147
159.8761142,-18.6800003051758
159.8917392,-21.8999996185303
159.9073642,-25.2000007629395
159.9229892,-28.1499996185303
159.9386142,-30.4599990844727
159.9542392,-32.1800003051758
159.9698642,-33.6100006103516
159.9854892,-34.8699989318848
160.0011142,-35.8300018310547
160.0167392,-36.2999992370605
160.0323642,-36.25
160.0479892,-35.7000007629395
160.0636142,-34.3300018310547
160.0792392,-31.2900009155273
160.0948642,-25.7099990844727
160.1104892,-17.5100002288818
160.1261142,-7.51000022888184
160.1417392,2.98000001907349
160.1573642,12.8900003433228
160.1729892,21.5900001525879
160.1886142,28.9400005340576
160.2042392,34.939998626709
160.2198642,39.689998626709
160.2354892,43.4000015258789
160.2511142,46.5099983215332
160.2667392,49.2400016784668
160.2823642,51.8699989318848
160.2979892,54.4300003051758
160.3136142,56.6500015258789
160.3292392,57.9300003051758
160.3448642,57.7400016784668
160.3604892,56.0099983215332
160.3761142,53.1699981689453
160.3917392,49.8199996948242
160.4073642,46.3899993896484
160.4229892,43.0
160.4386142,39.5400009155273
160.4542392,35.8699989318848
160.4698642,31.9799995422363
160.4854892,27.9400005340576
160.5011142,23.7800006866455
160.5167392,19.4200000762939
160.5323642,14.8400001525879
160.5479892,10.1700000762939
160.5636142,5.71000003814697
160.5792392,1.71000003814697
160.5948642,-1.75
160.6104892,-4.80000019073486
160.6261142,-7.65999984741211
160.6417392,-10.6400003433228
160.6573642,-13.9200000762939
160.6729892,-17.5400009155273
160.6886142,-21.3600006103516
160.7042392,-25.2199993133545
160.7198642,-29.0300006866455
160.7354892,-32.6500015258789
160.7511142,-35.8699989318848
160.7667392,-38.2099990844727
160.7823642,-38.9000015258789
160.7979892,-37.060001373291
160.8136142,-32.1699981689453
160.8292392,-24.5300006866455
160.8448642,-15.2200002670288
160.8604892,-5.51999998092651
160.8761142,3.52999997138977
160.8917392,11.4799995422363
160.9073642,18.3199996948242
160.9229892,24.3099994659424
160.9386142,29.7199993133545
160.9542392,34.7599983215332
160.9698642,39.6100006103516
160.9854892,44.5
161.0011142,49.5900001525879
161.0167392,54.7999992370605
161.0323642,59.5299987792969
161.0479892,62.689998626709
161.0636142,63.4099998474121
161.0792392,61.6300010681152
161.0948642,58.0800018310547
161.1104892,53.6800003051758
161.1261142,49.0800018310547
161.1417392,44.5800018310547
161.1573642,40.25
161.1729892,36.0299987792969
161.1886142,31.8099994659424
161.2042392,27.4300003051758
161.2198642,22.7900009155273
161.2354892,17.8799991607666
161.2511142,12.7799997329712
161.2667392,7.57000017166138
161.2823642,2.28999996185303
161.2979892,-2.99000000953674
161.3136142,-8.21000003814697
161.3292392,-13.25
161.3448642,-18.0900001525879
161.3604892,-22.8299999237061
161.3761142,-27.5300006866455
161.3917392,-32.0999984741211
161.4073642,-36.3499984741211
161.4229892,-40.1399993896484
161.4386142,-43.4099998474121
161.4542392,-46.2299995422363
161.4698642,-48.5400009155273
161.4854892,-50.060001373291
161.5011142,-50.5099983215332
161.5167392,-49.7099990844727
161.5323642,-47.2900009155273
161.5479892,-42.3400001525879
161.5636142,-34.0499992370605
161.5792392,-22.5300006866455
161.5948642,-9.09000015258789
161.6104892,4.5
161.6261142,17.2099990844727
161.6417392,29.2700004577637
161.6573642,41.189998626709
161.6729892,52.439998626709
161.6886142,61.5699996948242
161.7042392,67.5
161.7198642,70.25
161.7354892,70.8199996948242
161.7511142,70.379997253418
161.7667392,69.7300033569336
161.7823642,69.0400009155273
161.7979892,68.2300033569336
161.8136142,67.2799987792969
161.8292392,66.4899978637695
161.8448642,66.2099990844727
161.8604892,66.5100021362305
161.8761142,66.7799987792969
161.8917392,65.7799987792969
161.9073642,62.3699989318848
161.9229892,56.3400001525879
161.9386142,48.3199996948242
161.9542392,39.2299995422363
161.9698642,29.7999992370605
161.9854892,20.4400005340576
162.0011142,11.3800001144409
162.0167392,2.70000004768372
162.0323642,-5.65000009536743
162.0479892,-13.8100004196167
162.0636142,-21.9400005340576
162.0792392,-30.0699996948242
162.0948642,-38.1500015258789
162.1104892,-46.1100006103516
162.1261142,-53.9199981689453
162.1417392,-61.5099983215332
162.1573642,-68.75
162.1729892,-75.5199966430664
162.1886142,-81.8099975585938
162.2042392,-87.75
162.2198642,-93.5
162.2354892,-98.9800033569336
162.2511142,-103.529998779297
162.2667392,-106.029998779297
162.2823642,-105.51000213623
162.2979892,-101.919998168945
162.3136142,-96.0999984741211
162.3292392,-89.0299987792969
162.3448642,-80.9100036621094
162.3604892,-70.8600006103516
162.3761142,-58.1399993896484
162.3917392,-43.4599990844727
162.4073642,-28.8500003814697
162.4229892,-16.2399997711182
162.4386142,-6.44999980926514
162.4542392,0.879999995231628
162.4698642,6.65999984741211
162.4854892,11.7200002670288
162.5011142,16.4200000762939
162.5167392,20.8600006103516
162.5323642,25.1399993896484
162.5479892,29.5599994659424
162.5636142,34.4700012207031
162.5792392,39.8300018310547
162.5948642,44.7000007629395
162.6104892,47.3199996948242
162.6261142,46.1599998474121
162.6417392,41.0299987792969
162.6573642,33.0499992370605
162.6729892,23.7199993133545
162.6886142,14.1599998474121
162.7042392,4.96000003814697
162.7198642,-3.72000002861023
162.7354892,-11.9200000762939
162.7511142,-19.8299999237061
162.7667392,-27.6599998474121
162.7823642,-35.5800018310547
162.7979892,-43.6100006103516
162.8136142,-51.6300010681152
162.8292392,-59.5200004577637
162.8448642,-67.2099990844727
162.8604892,-74.629997253418
162.8761142,-81.6800003051758
162.8917392,-88.3000030517578
162.9073642,-94.5199966430664
162.9229892,-100.5
162.9386142,-106.389999389648
162.9542392,-112.129997253418
162.9698642,-117.449996948242
162.9854892,-122.120002746582
163.0011142,-126.019996643066
163.0167392,-129.070007324219
163.0323642,-130.649993896484
163.0479892,-129.399993896484
163.0636142,-124.050003051758
163.0792392,-114.319999694824
163.0948642,-100.720001220703
163.1104892,-83.6900024414063
163.1261142,-63.4900016784668
163.1417392,-40.9599990844727
163.1573642,-18.0900001525879
163.1729892,2.4300000667572
163.1886142,18.7999992370605
163.2042392,31.25
163.2198642,41.1500015258789
163.2354892,49.1100006103516
163.2511142,54.6199989318848
163.2667392,57.2599983215332
163.2823642,57.2799987792969
163.2979892,55.5499992370605
163.3136142,52.9599990844727
163.3292392,49.8600006103516
163.3448642,46.1300010681152
163.3604892,41.6500015258789
163.3761142,36.6199989318848
163.3917392,31.5400009155273
163.4073642,26.9200000762939
163.4229892,23.0100002288818
163.4386142,19.4799995422363
163.4542392,15.5500001907349
163.4698642,10.3900003433228
163.4854892,3.67000007629395
163.5011142,-4.38000011444092
163.5167392,-13.1599998474121
163.5323642,-22.0499992370605
163.5479892,-30.5699996948242
163.5636142,-38.4500007629395
163.5792392,-45.6599998474121
163.5948642,-52.3600006103516
163.6104892,-58.8499984741211
163.6261142,-65.3899993896484
163.6417392,-72.0899963378906
163.6573642,-78.9499969482422
163.6729892,-86.0699996948242
163.6886142,-93.5500030517578
163.7042392,-101.290000915527
163.7198642,-108.819999694824
163.7354892,-115.400001525879
163.7511142,-120.25
163.7667392,-122.769996643066
163.7823642,-122.720001220703
163.7979892,-120.220001220703
163.8136142,-115.720001220703
163.8292392,-109.940002441406
163.8448642,-103.660003662109
163.8604892,-97.2900009155273
163.8761142,-90.1800003051758
163.8917392,-80.5299987792969
163.9073642,-66.5299987792969
163.9229892,-47.7599983215332
163.9386142,-25.2600002288818
163.9542392,-0.439999997615814
163.9698642,25.4500007629395
163.9854892,51.2200012207031
164.0011142,74.9300003051758
164.0167392,93.7600021362305
164.0323642,105.459999084473
164.0479892,109.930000305176
164.0636142,108.940002441406
164.0792392,104.650001525879
164.0948642,98.5999984741211
164.1104892,91.6800003051758
164.1261142,84.4499969482422
164.1417392,77.25
164.1573642,70.2300033569336
164.1729892,63.3400001525879
164.1886142,56.4500007629395
164.2042392,49.4599990844727
164.2198642,42.3199996948242
164.2354892,34.9099998474121
164.2511142,26.9400005340576
164.2667392,18.7700004577637
164.2823642,10.5799999237061
164.2979892,2.58999991416931
164.3136142,-5.26000022888184
164.3292392,-13.2700004577637
164.3448642,-21.5900001525879
164.3604892,-29.9500007629395
164.3761142,-37.7700004577637
164.3917392,-44.5299987792969
164.4073642,-50.0400009155273
164.4229892,-54.5499992370605
164.4386142,-58.5800018310547
164.4542392,-62.8499984741211
164.4698642,-67.8899993896484
164.4854892,-73.8000030517578
164.5011142,-80.4800033569336
164.5167392,-87.9100036621094
164.5323642,-96.1500015258789
164.5479892,-104.959999084473
164.5636142,-113.470001220703
164.5792392,-120.349998474121
164.5948642,-124.75
164.6104892,-127.0
164.6261142,-128.139999389648
164.6417392,-128.770004272461
164.6573642,-128.619995117188
164.6729892,-126.919998168945
164.6886142,-123.099998474121
164.7042392,-117.230003356934
164.7198642,-109.660003662109
164.7354892,-100.51000213623
164.7511142,-89.370002746582
164.7667392,-75.5199966430664
164.7823642,-58.7900009155273
164.7979892,-40.1500015258789
164.8136142,-21.3400001525879
164.8292392,-3.92000007629395
164.8448642,11.3999996185303
164.8604892,24.7299995422363
164.8761142,36.5900001525879
164.8917392,47.4000015258789
164.9073642,57.3600006103516
164.9229892,66.5199966430664
164.9386142,74.9100036621094
164.9542392,82.620002746582
164.9698642,89.75
164.9854892,96.3300018310547
165.0011142,102.029998779297
165.0167392,106.089996337891
165.0323642,107.730003356934
165.0479892,106.709999084473
165.0636142,103.559997558594
165.0792392,99.25
165.0948642,94.7799987792969
165.1104892,90.8099975585938
165.1261142,87.5199966430664
165.1417392,84.7399978637695
165.1573642,82.0100021362305
165.1729892,78.7699966430664
165.1886142,74.6100006103516
165.2042392,69.4599990844727
165.2198642,63.4599990844727
165.2354892,56.6399993896484
165.2511142,48.5299987792969
165.2667392,39.9599990844727
165.2823642,31.5799999237061
165.2979892,24.2900009155273
165.3136142,18.6399993896484
165.3292392,14.3699998855591
165.3448642,10.8199996948242
165.3604892,7.63000011444092
165.3761142,4.96000003814697
165.3917392,3.07999992370605
165.4073642,2.08999991416931
165.4229892,1.77999997138977
165.4386142,1.67999994754791
165.4542392,1.25999999046326
165.4698642,0.129999995231628
165.4854892,-1.75999999046326
165.5011142,-4.23999977111816
165.5167392,-7.1100001335144
165.5323642,-10.25
165.5479892,-13.4499998092651
165.5636142,-16.1700000762939
165.5792392,-17.4599990844727
165.5948642,-16.1100006103516
165.6104892,-11.1899995803833
165.6261142,-2.47000002861023
165.6417392,9.35999965667725
165.6573642,22.9699993133545
165.6729892,36.9000015258789
165.6886142,50.0299987792969
165.7042392,61.8400001525879
165.7198642,72.3399963378906
165.7354892,81.8300018310547
165.7511142,90.6600036621094
165.7667392,99.0199966430664
165.7823642,106.970001220703
165.7979892,114.51000213623
165.8136142,121.610000610352
165.8292392,128.119995117188
165.8448642,133.600006103516
165.8604892,137.199996948242
165.8761142,138.179992675781
165.8917392,136.470001220703
165.9073642,132.759994506836
165.9229892,128.089996337891
165.9386142,123.349998474121
165.9542392,119.01000213623
165.9698642,115.129997253418
165.9854892,111.529998779297
166.0011142,107.860000610352
166.0167392,103.709999084473
166.0323642,98.8199996948242
166.0479892,93.1800003051758
166.0636142,86.9300003051758
166.0792392,80.1600036621094
166.0948642,72.9100036621094
166.1104892,65.3099975585938
166.1261142,57.7299995422363
166.1417392,50.689998626709
166.1573642,44.4799995422363
166.1729892,38.939998626709
166.1886142,33.6599998474121
166.2042392,28.4799995422363
166.2198642,23.6000003814697
166.2354892,19.2999992370605
166.2511142,15.5299997329712
166.2667392,12.3699998855591
166.2823642,9.4399995803833
166.2979892,6.26999998092651
166.3136142,2.51999998092651
166.3292392,-1.86000001430511
166.3448642,-6.69999980926514
166.3604892,-11.7700004577637
166.3761142,-16.9200000762939
166.3917392,-21.9699993133545
166.4073642,-26.5
166.4229892,-29.7399997711182
166.4386142,-30.7900009155273
166.4542392,-28.9099998474121
166.4698642,-23.9699993133545
166.4854892,-16.5300006866455
166.5011142,-7.65999984741211
166.5167392,1.47000002861023
166.5323642,10.0200004577637
166.5479892,17.5599994659424
166.5636142,24.0699996948242
166.5792392,29.6800003051758
166.5948642,34.5499992370605
166.6104892,38.8300018310547
166.6261142,42.6500015258789
166.6417392,46.1100006103516
166.6573642,49.2700004577637
166.6729892,52.1100006103516
166.6886142,54.3499984741211
166.7042392,55.4500007629395
166.7198642,54.8899993896484
166.7354892,52.6100006103516
166.7511142,49.0299987792969
166.7667392,44.8400001525879
166.7823642,40.6500015258789
166.7979892,36.810001373291
166.8136142,33.4000015258789
166.8292392,30.2700004577637
166.8448642,27.1299991607666
166.8604892,23.6399993896484
166.8761142,19.5300006866455
166.8917392,14.789999961853
166.9073642,9.52000045776367
166.9229892,3.77999997138977
166.9386142,-2.42000007629395
166.9542392,-8.97999954223633
166.9698642,-15.5100002288818
166.9854892,-21.4599990844727
167.0011142,-26.5300006866455
167.0167392,-30.8799991607666
167.0323642,-34.9199981689453
167.0479892,-38.8400001525879
167.0636142,-42.6500015258789
167.0792392,-46.4799995422363
167.0948642,-50.5299987792969
167.1104892,-54.9199981689453
167.1261142,-59.3800010681152
167.1417392,-63.3499984741211
167.1573642,-66.3899993896484
167.1729892,-68.5199966430664
167.1886142,-70.0500030517578
167.2042392,-71.120002746582
167.2198642,-71.6500015258789
167.2354892,-71.5
167.2511142,-70.5400009155273
167.2667392,-69.0599975585938
167.2823642,-66.7699966430664
167.2979892,-62.8300018310547
167.3136142,-56.3400001525879
167.3292392,-47.1599998474121
167.3448642,-35.9900016784668
167.3604892,-23.7700004577637
167.3761142,-11.3299999237061
167.3917392,0.699999988079071
167.4073642,11.6099996566772
167.4229892,20.4799995422363
167.4386142,26.6000003814697
167.4542392,30.0200004577637
167.4698642,31.3500003814697
167.4854892,31.3199996948242
167.5011142,30.4400005340576
167.5167392,29.0300006866455
167.5323642,27.3299999237061
167.5479892,25.4799995422363
167.5636142,23.5400009155273
167.5792392,21.3999996185303
167.5948642,18.9200000762939
167.6104892,16.0400009155273
167.6261142,12.7600002288818
167.6417392,9.09000015258789
167.6573642,5.01000022888184
167.6729892,0.610000014305115
167.6886142,-3.85999989509583
167.7042392,-8.14000034332275
167.7198642,-12.1099996566772
167.7354892,-15.9700002670288
167.7511142,-19.9699993133545
167.7667392,-24.1200008392334
167.7823642,-28.1000003814697
167.7979892,-31.6200008392334
167.8136142,-34.5200004577637
167.8292392,-36.9000015258789
167.8448642,-39.0400009155273
167.8604892,-41.3499984741211
167.8761142,-44.1100006103516
167.8917392,-47.4099998474121
167.9073642,-51.2000007629395
167.9229892,-55.5299987792969
167.9386142,-60.4599990844727
167.9542392,-65.8499984741211
167.9698642,-71.1500015258789
167.9854892,-75.4499969482422
168.0011142,-77.9300003051758
168.0167392,-78.25
168.0323642,-76.5899963378906
168.0479892,-73.3300018310547
168.0636142,-68.9000015258789
168.0792392,-63.7700004577637
168.0948642,-58.4000015258789
168.1104892,-53.0800018310547
168.1261142,-47.7599983215332
168.1417392,-41.9300003051758
168.1573642,-35.060001373291
168.1729892,-26.9799995422363
168.1886142,-18.0200004577637
168.2042392,-8.69999980926514
168.2198642,0.5
168.2354892,9.25
168.2511142,17.1100006103516
168.2667392,23.3799991607666
168.2823642,27.4599990844727
168.2979892,29.25
168.3136142,29.2299995422363
168.3292392,28.1000003814697
168.3448642,26.4899997711182
168.3604892,24.7900009155273
168.3761142,23.2000007629395
168.3917392,21.7199993133545
168.4073642,20.25
168.4229892,18.6000003814697
168.4386142,16.6100006103516
168.4542392,14.2600002288818
168.4698642,11.5500001907349
168.4854892,8.40999984741211
168.5011142,4.78000020980835
168.5167392,0.730000019073486
168.5323642,-3.44000005722046
168.5479892,-7.34000015258789
168.5636142,-10.7200002670288
168.5792392,-13.75
168.5948642,-16.7199993133545
168.6104892,-19.7000007629395
168.6261142,-22.4799995422363
168.6417392,-24.7600002288818
168.6573642,-26.4599990844727
168.6729892,-27.6599998474121
168.6886142,-28.6900005340576
168.7042392,-29.9099998474121
168.7198642,-31.6200008392334
168.7354892,-33.8600006103516
168.7511142,-36.5400009155273
168.7667392,-39.5800018310547
168.7823642,-42.9300003051758
168.7979892,-46.4500007629395
168.8136142,-49.7000007629395
168.8292392,-51.9099998474121
168.8448642,-52.1800003051758
168.8604892,-49.8499984741211
168.8761142,-44.7599983215332
168.8917392,-37.3300018310547
168.9073642,-28.4400005340576
168.9229892,-19.0799999237061
168.9386142,-10.0500001907349
168.9542392,-1.77999997138977
168.9698642,5.71000003814697
168.9854892,12.710000038147
169.0011142,19.5
169.0167392,26.25
169.0323642,33.0200004577637
169.0479892,39.7900009155273
169.0636142,46.5499992370605
169.0792392,53.1500015258789
169.0948642,59.1199989318848
169.1104892,63.6800003051758
169.1261142,66.1600036621094
169.1417392,66.5299987792969
169.1573642,65.3499984741211
169.1729892,63.3499984741211
169.1886142,61.0800018310547
169.2042392,58.810001373291
169.2198642,56.6300010681152
169.2354892,54.4900016784668
169.2511142,52.5200004577637
169.2667392,50.2000007629395
169.2823642,47.3899993896484
169.2979892,44.0699996948242
169.3136142,40.3400001525879
169.3292392,36.2999992370605
169.3448642,32.0200004577637
169.3604892,27.5900001525879
169.3761142,23.1800003051758
169.3917392,19.0200004577637
169.4073642,15.1800003051758
169.4229892,11.4799995422363
169.4386142,7.69999980926514
169.4542392,3.77999997138977
169.4698642,-0.0700000002980232
169.4854892,-3.61999988555908
169.5011142,-6.71999979019165
169.5167392,-9.38000011444092
169.5323642,-11.5799999237061
169.5479892,-13.1999998092651
169.5636142,-14.1099996566772
169.5792392,-14.2200002670288
169.5948642,-13.3199996948242
169.6104892,-10.9099998474121
169.6261142,-6.53000020980835
169.6417392,-0.230000004172325
169.6573642,7.28000020980835
169.6729892,15.1400003433228
169.6886142,22.8099994659424
169.7042392,30.3700008392334
169.7198642,37.9500007629395
169.7354892,45.060001373291
169.7511142,50.8400001525879
169.7667392,54.8199996948242
169.7823642,57.2700004577637
