Time(s),Value(%)
420.0008137,13.8500003814697
420.0164387,11.6199998855591
420.0320637,9.65999984741211
420.0476887,7.84000015258789
420.0633137,6.09999990463257
420.0789387,4.55000019073486
420.0945637,3.32999992370605
420.1101887,2.51999998092651
420.1258137,2.0
420.1414387,1.50999999046326
420.1570637,0.850000023841858
420.1726887,0.0
420.1883137,-1.02999997138977
420.2039387,-2.25999999046326
420.2195637,-3.59999990463257
420.2351887,-4.88000011444092
420.2508137,-5.94999980926514
420.2664387,-6.82000017166138
420.2820637,-7.57000017166138
420.2976887,-8.30000019073486
420.3133137,-8.97000026702881
420.3289387,-9.48999977111816
420.3445637,-9.86999988555908
420.3601887,-10.1599998474121
420.3758137,-10.3800001144409
420.3914387,-10.4799995422363
420.4070637,-10.460000038147
420.4226887,-10.2700004577637
420.4383137,-9.85999965667725
420.4539387,-9.17000007629395
420.4695637,-8.10000038146973
420.4851887,-6.3600001335144
420.5008137,-3.57999992370605
420.5164387,0.46000000834465
420.5320637,5.44999980926514
420.5476887,10.4799995422363
420.5633137,14.5299997329712
420.5789387,17.1499996185303
420.5945637,18.4699993133545
420.6101887,18.7700004577637
420.6258137,18.2299995422363
420.6414387,17.0100002288818
420.6570637,15.3199996948242
420.6726887,13.3900003433228
420.6883137,11.4499998092651
420.7039387,9.61999988555908
420.7195637,7.8600001335144
420.7351887,6.05000019073486
420.7508137,4.21999979019165
420.7664387,2.5699999332428
420.7820637,1.25999999046326
420.7976887,0.200000002980232
420.8133137,-0.819999992847443
420.8289387,-2.03999996185303
420.8445637,-3.50999999046326
420.8601887,-5.13000011444092
420.8758137,-6.76000022888184
420.8914387,-8.25
420.9070637,-9.46000003814697
420.9226887,-10.3400001525879
420.9383137,-10.9899997711182
420.9539387,-11.6000003814697
420.9695637,-12.2700004577637
420.9851887,-12.9700002670288
421.0008137,-13.6300001144409
421.0164387,-14.1999998092651
421.0320637,-14.6499996185303
421.0476887,-14.9399995803833
421.0633137,-15.0299997329712
421.0789387,-14.8299999237061
421.0945637,-14.3199996948242
421.1101887,-13.5
421.1258137,-12.3999996185303
421.1414387,-10.8900003433228
421.1570637,-8.6899995803833
421.1726887,-5.48999977111816
421.1883137,-1.14999997615814
421.2039387,4.0
421.2195637,9.10000038146973
421.2351887,13.1000003814697
421.2508137,15.2700004577637
421.2664387,15.4799995422363
421.2820637,14.1400003433228
421.2976887,11.9700002670288
421.3133137,9.68000030517578
421.3289387,7.69000005722046
421.3445637,5.96999979019165
421.3601887,4.26999998092651
421.3758137,2.49000000953674
421.3914387,0.709999978542328
421.4070637,-0.860000014305115
421.4226887,-2.05999994277954
421.4383137,-2.76999998092651
421.4539387,-3.08999991416931
421.4695637,-3.26999998092651
421.4851887,-3.54999995231628
421.5008137,-4.07999992370605
421.5164387,-4.96000003814697
421.5320637,-6.1399998664856
421.5476887,-7.46999979019165
421.5633137,-8.69999980926514
421.5789387,-9.65999984741211
421.5945637,-10.2700004577637
421.6101887,-10.5799999237061
421.6258137,-10.6000003814697
421.6414387,-10.3900003433228
421.6570637,-10.0799999237061
421.6726887,-9.85000038146973
421.6883137,-9.73999977111816
421.7039387,-9.65999984741211
421.7195637,-9.47000026702881
421.7351887,-9.13000011444092
421.7508137,-8.5600004196167
421.7664387,-7.51999998092651
421.7820637,-5.6399998664856
421.7976887,-2.57999992370605
421.8133137,1.69000005722046
421.8289387,6.90999984741211
421.8445637,12.4200000762939
421.8601887,17.2299995422363
421.8758137,20.4500007629395
421.8914387,21.6200008392334
421.9070637,20.8999996185303
421.9226887,18.8899993896484
421.9383137,16.2600002288818
421.9539387,13.6099996566772
421.9695637,11.2799997329712
421.9851887,9.34000015258789
422.0008137,7.71999979019165
422.0164387,6.38000011444092
422.0320637,5.30999994277954
422.0476887,4.46000003814697
422.0633137,3.71000003814697
422.0789387,2.9300000667572
422.0945637,2.03999996185303
422.1101887,1.08000004291534
422.1258137,0.159999996423721
422.1414387,-0.610000014305115
422.1570637,-1.26999998092651
422.1726887,-1.92999994754791
422.1883137,-2.78999996185303
422.2039387,-3.97000002861023
422.2195637,-5.34000015258789
422.2351887,-6.59000015258789
422.2508137,-7.42000007629395
422.2664387,-7.69000005722046
422.2820637,-7.51999998092651
422.2976887,-7.17999982833862
422.3133137,-6.96999979019165
422.3289387,-7.07000017166138
422.3445637,-7.40000009536743
422.3601887,-7.65999984741211
422.3758137,-7.65000009536743
422.3914387,-7.26000022888184
422.4070637,-6.40000009536743
422.4226887,-4.78999996185303
422.4383137,-2.03999996185303
422.4539387,2.02999997138977
422.4695637,7.09000015258789
422.4851887,12.210000038147
422.5008137,16.3500003814697
422.5164387,18.8299999237061
422.5320637,19.4799995422363
422.5476887,18.6499996185303
422.5633137,16.9200000762939
422.5789387,14.8699998855591
422.5945637,12.8999996185303
422.6101887,11.0500001907349
422.6258137,9.14999961853027
422.6414387,7.15999984741211
422.6570637,5.26000022888184
422.6726887,3.75
422.6883137,2.71000003814697
422.7039387,2.00999999046326
422.7195637,1.41999995708466
422.7351887,0.819999992847443
422.7508137,0.159999996423721
422.7664387,-0.600000023841858
422.7820637,-1.51999998092651
422.7976887,-2.55999994277954
422.8133137,-3.61999988555908
422.8289387,-4.65000009536743
422.8445637,-5.63000011444092
422.8601887,-6.6100001335144
422.8758137,-7.61999988555908
422.8914387,-8.60999965667725
422.9070637,-9.47000026702881
422.9226887,-10.0900001525879
422.9383137,-10.5100002288818
422.9539387,-10.8699998855591
422.9695637,-11.3000001907349
422.9851887,-11.789999961853
423.0008137,-12.1599998474121
423.0164387,-12.1400003433228
423.0320637,-11.4899997711182
423.0476887,-10.1499996185303
423.0633137,-8.06999969482422
423.0789387,-5.09999990463257
423.0945637,-1.19000005722046
423.1101887,3.38000011444092
423.1258137,7.94999980926514
423.1414387,11.6999998092651
423.1570637,14.0
423.1726887,14.6400003433228
423.1883137,13.9200000762939
423.2039387,12.4300003051758
423.2195637,10.7700004577637
423.2351887,9.26000022888184
423.2508137,7.90999984741211
423.2664387,6.59000015258789
423.2820637,5.26000022888184
423.2976887,3.96000003814697
423.3133137,2.85999989509583
423.3289387,2.08999991416931
423.3445637,1.5900000333786
423.3601887,1.17999994754791
423.3758137,0.699999988079071
423.3914387,0.0700000002980232
423.4070637,-0.730000019073486
423.4226887,-1.70000004768372
423.4383137,-2.82999992370605
423.4539387,-4.05999994277954
423.4695637,-5.28999996185303
423.4851887,-6.46999979019165
423.5008137,-7.46999979019165
423.5164387,-8.07999992370605
423.5320637,-8.22999954223633
423.5476887,-8.0
423.5633137,-7.59999990463257
423.5789387,-7.21999979019165
423.5945637,-6.94000005722046
423.6101887,-6.78000020980835
423.6258137,-6.71999979019165
423.6414387,-6.71000003814697
423.6570637,-6.61999988555908
423.6726887,-6.26999998092651
423.6883137,-5.59999990463257
423.7039387,-4.61999988555908
423.7195637,-3.29999995231628
423.7351887,-1.39999997615814
423.7508137,1.3400000333786
423.7664387,4.98999977111816
423.7820637,9.11999988555908
423.7976887,12.9200000762939
423.8133137,15.5699996948242
423.8289387,16.6700000762939
423.8445637,16.2900009155273
423.8601887,14.8800001144409
423.8758137,13.0
423.8914387,11.0900001525879
423.9070637,9.32999992370605
423.9226887,7.69999980926514
423.9383137,6.17000007629395
423.9539387,4.82999992370605
423.9695637,3.75
423.9851887,2.94000005722046
424.0008137,2.29999995231628
424.0164387,1.75
424.0320637,1.21000003814697
424.0476887,0.629999995231628
424.0633137,-0.0299999993294477
424.0789387,-0.810000002384186
424.0945637,-1.70000004768372
424.1101887,-2.67000007629395
424.1258137,-3.6800000667572
424.1414387,-4.65999984741211
424.1570637,-5.57000017166138
424.1726887,-6.42999982833862
424.1883137,-7.21999979019165
424.2039387,-7.84999990463257
424.2195637,-8.28999996185303
424.2351887,-8.64999961853027
424.2508137,-9.09000015258789
424.2664387,-9.63000011444092
424.2820637,-10.1199998855591
424.2976887,-10.4099998474121
424.3133137,-10.4200000762939
424.3289387,-10.1899995803833
424.3445637,-9.78999996185303
424.3601887,-9.30000019073486
424.3758137,-8.60000038146973
424.3914387,-7.32000017166138
424.4070637,-5.07000017166138
424.4226887,-1.70000004768372
424.4383137,2.48000001907349
424.4539387,6.8600001335144
424.4695637,10.6300001144409
424.4851887,13.1800003051758
424.5008137,14.1999998092651
424.5164387,13.7600002288818
424.5320637,12.3400001525879
424.5476887,10.5699996948242
424.5633137,8.86999988555908
424.5789387,7.32000017166138
424.5945637,5.84000015258789
424.6101887,4.26000022888184
424.6258137,2.5
424.6414387,0.740000009536743
424.6570637,-0.740000009536743
424.6726887,-1.73000001907349
424.6883137,-2.14000010490417
424.7039387,-2.16000008583069
424.7195637,-2.1800000667572
424.7351887,-2.52999997138977
424.7508137,-3.33999991416931
424.7664387,-4.53000020980835
424.7820637,-5.92000007629395
424.7976887,-7.23000001907349
424.8133137,-8.25
424.8289387,-8.96000003814697
424.8445637,-9.53999996185303
424.8601887,-10.1599998474121
424.8758137,-10.8100004196167
424.8914387,-11.289999961853
424.9070637,-11.5
424.9226887,-11.5500001907349
424.9383137,-11.6099996566772
424.9539387,-11.7399997711182
424.9695637,-11.8299999237061
424.9851887,-11.6599998474121
425.0008137,-11.0900001525879
425.0164387,-10.1099996566772
425.0320637,-8.86999988555908
425.0476887,-7.42999982833862
425.0633137,-5.6100001335144
425.0789387,-3.02999997138977
425.0945637,0.519999980926514
425.1101887,4.8600001335144
425.1258137,9.27000045776367
425.1414387,12.75
425.1570637,14.4899997711182
425.1726887,14.3000001907349
425.1883137,12.6599998474121
425.2039387,10.5
425.2195637,8.60000038146973
425.2351887,7.26000022888184
425.2508137,6.26999998092651
425.2664387,5.32000017166138
425.2820637,4.26999998092651
425.2976887,3.21000003814697
425.3133137,2.27999997138977
425.3289387,1.5900000333786
425.3445637,1.13999998569489
425.3601887,0.860000014305115
425.3758137,0.579999983310699
425.3914387,0.159999996423721
425.4070637,-0.409999996423721
425.4226887,-1.01999998092651
425.4383137,-1.57000005245209
425.4539387,-2.04999995231628
425.4695637,-2.52999997138977
425.4851887,-3.02999997138977
425.5008137,-3.51999998092651
425.5164387,-3.91000008583069
425.5320637,-4.19000005722046
425.5476887,-4.30000019073486
425.5633137,-4.17999982833862
425.5789387,-3.83999991416931
425.5945637,-3.38000011444092
425.6101887,-2.94000005722046
425.6258137,-2.58999991416931
425.6414387,-2.33999991416931
425.6570637,-2.15000009536743
425.6726887,-1.97000002861023
425.6883137,-1.70000004768372
425.7039387,-1.1599999666214
425.7195637,-0.0900000035762787
425.7351887,1.75999999046326
425.7508137,4.51000022888184
425.7664387,8.0600004196167
425.7820637,11.9499998092651
425.7976887,15.4399995803833
425.8133137,17.7299995422363
425.8289387,18.4799995422363
425.8445637,17.9400005340576
425.8601887,16.7099990844727
425.8758137,15.2799997329712
425.8914387,13.8800001144409
425.9070637,12.5200004577637
425.9226887,11.0799999237061
425.9383137,9.51000022888184
425.9539387,7.92999982833862
425.9695637,6.53999996185303
425.9851887,5.46999979019165
426.0008137,4.6399998664856
426.0164387,3.82999992370605
426.0320637,2.82999992370605
426.0476887,1.64999997615814
426.0633137,0.419999986886978
426.0789387,-0.709999978542328
426.0945637,-1.75
426.1101887,-2.71000003814697
426.1258137,-3.61999988555908
426.1414387,-4.40999984741211
426.1570637,-5.01999998092651
426.1726887,-5.42999982833862
426.1883137,-5.69999980926514
426.2039387,-5.8600001335144
426.2195637,-5.8600001335144
426.2351887,-5.65000009536743
426.2508137,-5.23000001907349
426.2664387,-4.67999982833862
426.2820637,-4.1100001335144
426.2976887,-3.65000009536743
426.3133137,-3.41000008583069
426.3289387,-3.4300000667572
426.3445637,-3.65000009536743
426.3601887,-3.90000009536743
426.3758137,-3.91000008583069
426.3914387,-3.35999989509583
426.4070637,-2.02999997138977
426.4226887,0.0299999993294477
426.4383137,2.5
426.4539387,4.92000007629395
426.4695637,6.84999990463257
426.4851887,7.96999979019165
426.5008137,8.10000038146973
426.5164387,7.3600001335144
426.5320637,6.13000011444092
426.5476887,4.82000017166138
426.5633137,3.70000004768372
426.5789387,2.73000001907349
426.5945637,1.78999996185303
426.6101887,0.839999973773956
426.6258137,0.0399999991059303
426.6414387,-0.430000007152557
426.6570637,-0.589999973773956
426.6726887,-0.550000011920929
426.6883137,-0.560000002384186
426.7039387,-0.889999985694885
426.7195637,-1.69000005722046
426.7351887,-2.91000008583069
426.7508137,-4.46000003814697
426.7664387,-6.17999982833862
426.7820637,-7.8600001335144
426.7976887,-9.31999969482422
426.8133137,-10.4700002670288
426.8289387,-11.3199996948242
426.8445637,-11.9200000762939
426.8601887,-12.3400001525879
426.8758137,-12.6099996566772
426.8914387,-12.6700000762939
426.9070637,-12.4899997711182
426.9226887,-12.1000003814697
426.9383137,-11.6000003814697
426.9539387,-11.0600004196167
426.9695637,-10.5299997329712
426.9851887,-10.0100002288818
427.0008137,-9.46000003814697
427.0164387,-8.77000045776367
427.0320637,-7.8600001335144
427.0476887,-6.65999984741211
427.0633137,-5.15000009536743
427.0789387,-3.27999997138977
427.0945637,-0.959999978542328
427.1101887,1.71000003814697
427.1258137,4.38000011444092
427.1414387,6.48999977111816
427.1570637,7.65000009536743
427.1726887,7.78000020980835
427.1883137,7.1100001335144
427.2039387,6.01999998092651
427.2195637,4.96999979019165
427.2351887,4.21999979019165
427.2508137,3.83999991416931
427.2664387,3.70000004768372
427.2820637,3.59999990463257
427.2976887,3.30999994277954
427.3133137,2.77999997138977
427.3289387,2.13000011444092
427.3445637,1.57000005245209
427.3601887,1.1599999666214
427.3758137,0.899999976158142
427.3914387,0.720000028610229
427.4070637,0.579999983310699
427.4226887,0.479999989271164
427.4383137,0.370000004768372
427.4539387,0.129999995231628
427.4695637,-0.330000013113022
427.4851887,-0.959999978542328
427.5008137,-1.5900000333786
427.5164387,-2.16000008583069
427.5320637,-2.6800000667572
427.5476887,-3.14000010490417
427.5633137,-3.47000002861023
427.5789387,-3.53999996185303
427.5945637,-3.30999994277954
427.6101887,-2.89000010490417
427.6258137,-2.52999997138977
427.6414387,-2.46000003814697
427.6570637,-2.70000004768372
427.6726887,-3.02999997138977
427.6883137,-3.11999988555908
427.7039387,-2.72000002861023
427.7195637,-1.71000003814697
427.7351887,0.0099999997764825
427.7508137,2.47000002861023
427.7664387,5.38000011444092
427.7820637,8.10999965667725
427.7976887,10.0600004196167
427.8133137,10.8999996185303
427.8289387,10.7200002670288
427.8445637,9.97000026702881
427.8601887,9.07999992370605
427.8758137,8.28999996185303
427.8914387,7.67999982833862
427.9070637,7.23000001907349
427.9226887,6.84999990463257
427.9383137,6.44999980926514
427.9539387,5.94999980926514
427.9695637,5.34999990463257
427.9851887,4.78999996185303
428.0008137,4.32999992370605
428.0164387,3.90000009536743
428.0320637,3.3199999332428
428.0476887,2.50999999046326
428.0633137,1.53999996185303
428.0789387,0.629999995231628
428.0945637,-0.0199999995529652
428.1101887,-0.360000014305115
428.1258137,-0.370000004768372
428.1414387,-0.129999995231628
428.1570637,0.239999994635582
428.1726887,0.649999976158142
428.1883137,0.990000009536743
428.2039387,1.1599999666214
428.2195637,1.00999999046326
428.2351887,0.449999988079071
428.2508137,-0.439999997615814
428.2664387,-1.48000001907349
428.2820637,-2.42000007629395
428.2976887,-3.05999994277954
428.3133137,-3.34999990463257
428.3289387,-3.29999995231628
428.3445637,-2.92000007629395
428.3601887,-2.08999991416931
428.3758137,-0.689999997615814
428.3914387,1.26999998092651
428.4070637,3.59999990463257
428.4226887,5.8600001335144
428.4383137,7.67000007629395
428.4539387,8.77999973297119
428.4695637,9.10999965667725
428.4851887,8.71000003814697
428.5008137,7.80999994277954
428.5164387,6.78000020980835
428.5320637,6.03000020980835
428.5476887,5.71999979019165
428.5633137,5.69999980926514
428.5789387,5.67999982833862
428.5945637,5.44000005722046
428.6101887,4.92000007629395
428.6258137,4.17999982833862
428.6414387,3.27999997138977
428.6570637,2.07999992370605
428.6726887,0.479999989271164
428.6883137,-1.35000002384186
428.7039387,-3.05999994277954
428.7195637,-4.36999988555908
428.7351887,-5.26000022888184
428.7508137,-5.84000015258789
428.7664387,-6.21999979019165
428.7820637,-6.53000020980835
428.7976887,-6.82999992370605
428.8133137,-7.07000017166138
428.8289387,-7.21000003814697
428.8445637,-7.32000017166138
428.8601887,-7.46999979019165
428.8758137,-7.69999980926514
428.8914387,-7.96000003814697
428.9070637,-8.22000026702881
428.9226887,-8.44999980926514
428.9383137,-8.63000011444092
428.9539387,-8.76000022888184
428.9695637,-8.68000030517578
428.9851887,-8.02000045776367
429.0008137,-6.32999992370605
429.0164387,-3.5
429.0320637,0.0299999993294477
429.0476887,3.52999997138977
429.0633137,6.30000019073486
429.0789387,7.90999984741211
429.0945637,8.28999996185303
429.1101887,7.75
429.1258137,6.69000005722046
429.1414387,5.5
429.1570637,4.38000011444092
429.1726887,3.36999988555908
429.1883137,2.41000008583069
429.2039387,1.44000005722046
429.2195637,0.46000000834465
429.2351887,-0.5
429.2508137,-1.36000001430511
429.2664387,-2.01999998092651
429.2820637,-2.52999997138977
429.2976887,-3.0
429.3133137,-3.52999997138977
429.3289387,-4.25
429.3445637,-5.15999984741211
429.3601887,-6.1100001335144
429.3758137,-6.8600001335144
429.3914387,-7.19999980926514
429.4070637,-7.07999992370605
429.4226887,-6.71999979019165
429.4383137,-6.38000011444092
429.4539387,-6.28000020980835
429.4695637,-6.40000009536743
429.4851887,-6.55000019073486
429.5008137,-6.46000003814697
429.5164387,-6.1100001335144
429.5320637,-5.80000019073486
429.5476887,-5.80999994277954
429.5633137,-6.1100001335144
429.5789387,-6.42999982833862
429.5945637,-6.53000020980835
429.6101887,-6.34000015258789
429.6258137,-5.92000007629395
429.6414387,-5.21000003814697
429.6570637,-4.05999994277954
429.6726887,-2.40000009536743
429.6883137,-0.379999995231628
429.7039387,1.71000003814697
429.7195637,3.5699999332428
429.7351887,4.92000007629395
429.7508137,5.51000022888184
429.7664387,5.28999996185303
429.7820637,4.53999996185303
429.7976887,3.72000002861023
429.8133137,3.11999988555908
429.8289387,2.71000003814697
429.8445637,2.39000010490417
429.8601887,2.08999991416931
429.8758137,1.77999997138977
429.8914387,1.37000000476837
429.9070637,0.879999995231628
429.9226887,0.389999985694885
429.9383137,-0.0599999986588955
429.9539387,-0.529999971389771
429.9695637,-1.10000002384186
429.9851887,-1.73000001907349
430.0008137,-2.32999992370605
430.0164387,-2.75999999046326
430.0320637,-2.98000001907349
430.0476887,-2.99000000953674
430.0633137,-2.90000009536743
430.0789387,-2.91000008583069
430.0945637,-3.22000002861023
430.1101887,-3.86999988555908
430.1258137,-4.65999984741211
430.1414387,-5.34999990463257
430.1570637,-5.73999977111816
430.1726887,-5.75
430.1883137,-5.34000015258789
430.2039387,-4.55999994277954
430.2195637,-3.60999989509583
430.2351887,-2.71000003814697
430.2508137,-2.03999996185303
430.2664387,-1.62000000476837
430.2820637,-1.22000002861023
430.2976887,-0.409999996423721
430.3133137,1.23000001907349
430.3289387,3.75999999046326
430.3445637,6.71999979019165
430.3601887,9.30000019073486
430.3758137,10.8999996185303
430.3914387,11.3999996185303
430.4070637,11.0699996948242
430.4226887,10.3299999237061
430.4383137,9.47000026702881
430.4539387,8.71000003814697
430.4695637,8.15999984741211
430.4851887,7.84000015258789
430.5008137,7.55999994277954
430.5164387,7.09000015258789
430.5320637,6.3899998664856
430.5476887,5.67999982833862
430.5633137,5.21000003814697
430.5789387,5.03000020980835
430.5945637,4.94999980926514
430.6101887,4.67000007629395
430.6258137,3.95000004768372
430.6414387,2.77999997138977
430.6570637,1.45000004768372
430.6726887,0.300000011920929
430.6883137,-0.46000000834465
