Time(s),Value(%)
538.0139116,41.6599998474121
538.0295366,35.2400016784668
538.0451616,28.2099990844727
538.0607866,20.4699993133545
538.0764116,12.1300001144409
538.0920366,3.21000003814697
538.1076616,-6.28000020980835
538.1232866,-16.1599998474121
538.1389116,-25.8700008392334
538.1545366,-34.4599990844727
538.1701616,-40.9300003051758
538.1857866,-44.5299987792969
538.2014116,-44.9799995422363
538.2170366,-42.5200004577637
538.2326616,-37.8400001525879
538.2482866,-31.8999996185303
538.2639116,-25.6700000762939
538.2795366,-19.7000007629395
538.2951616,-13.5799999237061
538.3107866,-5.90999984741211
538.3264116,4.71999979019165
538.3420366,18.7600002288818
538.3576616,35.6800003051758
538.3732866,54.7599983215332
538.3889116,75.4300003051758
538.4045366,96.7699966430664
538.4201616,116.889999389648
538.4357866,133.119995117188
538.4514116,143.690002441406
538.4670366,149.309997558594
538.4826616,152.289993286133
538.4982866,154.369995117188
538.5139116,155.869995117188
538.5295366,156.320007324219
538.5451616,155.300003051758
538.5607866,152.850006103516
538.5764116,149.160003662109
538.5920366,143.279998779297
538.6076616,136.169998168945
538.6232866,127.919998168945
538.6389116,118.839996337891
538.6545366,109.330001831055
538.6701616,99.7200012207031
538.6857866,90.1800003051758
538.7014116,80.5199966430664
538.7170366,70.1500015258789
538.7326616,58.3499984741211
538.7482866,44.8400001525879
538.7639116,29.9799995422363
538.7795366,14.6899995803833
538.7951616,-0.170000001788139
538.8107866,-14.3000001907349
538.8264116,-27.8799991607666
538.8420366,-41.1500015258789
538.8576616,-54.0699996948242
538.8732866,-66.2399978637695
538.8889116,-77.3600006103516
538.9045366,-87.5500030517578
538.9201616,-97.1100006103516
538.9357866,-106.080001831055
538.9514116,-114.190002441406
538.9670366,-121.150001525879
538.9826616,-126.930000305176
538.9982866,-131.660003662109
539.0139116,-135.240005493164
539.0295366,-137.130004882813
539.0451616,-136.729995727539
539.0607866,-134.119995117188
539.0764116,-130.630004882813
539.0920366,-128.610000610352
539.1076616,-130.179992675781
539.1232866,-135.940002441406
539.1389116,-144.949996948242
539.1545366,-155.830001831055
539.1701616,-168.169998168945
539.1857866,-182.839996337891
539.2014116,-200.479995727539
539.2170366,-219.820007324219
539.2326616,-238.070007324219
539.2482866,-252.770004272461
539.2639116,-263.089996337891
539.2795366,-269.850006103516
539.2951616,-274.839996337891
539.3107866,-279.970001220703
539.3264116,-286.450012207031
539.3420366,-294.480010986328
539.3576616,-303.829986572266
539.3732866,-314.570007324219
539.3889116,-326.950012207031
539.4045366,-327.679992675781
539.4201616,-327.679992675781
539.4357866,-327.679992675781
539.4514116,-327.679992675781
539.4670366,-327.679992675781
539.4826616,-327.679992675781
539.4982866,-327.679992675781
539.5139116,-312.890014648438
539.5295366,-296.049987792969
539.5451616,-278.510009765625
539.5607866,-260.609985351563
539.5764116,-242.949996948242
539.5920366,-223.440002441406
539.6076616,-206.020004272461
539.6232866,-190.729995727539
539.6389116,-177.440002441406
539.6545366,-166.199996948242
539.6701616,-157.089996337891
539.6857866,-149.789993286133
539.7014116,-143.059997558594
539.7170366,-135.050003051758
539.7326616,-124.209999084473
539.7482866,-110.209999084473
539.7639116,-93.7799987792969
539.7795366,-75.8499984741211
539.7951616,-57.1399993896484
539.8107866,-38.1800003051758
539.8264116,-19.4699993133545
539.8420366,-1.28999996185303
539.8576616,16.8299999237061
539.8732866,36.2999992370605
539.8889116,58.5099983215332
539.9045366,83.7300033569336
539.9201616,111.089996337891
539.9357866,139.389999389648
539.9514116,167.619995117188
539.9670366,194.880004882813
539.9826616,219.919998168945
539.9982866,241.039993286133
540.0139116,257.059997558594
540.0295366,268.290008544922
540.0451616,276.149993896484
540.0607866,281.970001220703
540.0764116,286.410003662109
540.0920366,289.660003662109
540.1076616,291.820007324219
540.1232866,293.059997558594
540.1389116,293.670013427734
540.1545366,293.940002441406
540.1701616,294.049987792969
540.1857866,294.070007324219
540.2014116,293.980010986328
540.2170366,293.799987792969
540.2326616,293.559997558594
540.2482866,293.200012207031
540.2639116,292.350006103516
540.2795366,290.390014648438
540.2951616,286.760009765625
540.3107866,281.410003662109
540.3264116,274.760009765625
540.3420366,267.390014648438
540.3576616,259.739990234375
540.3732866,252.070007324219
540.3889116,244.460006713867
540.4045366,236.929992675781
540.4201616,229.470001220703
540.4357866,222.100006103516
540.4514116,214.869995117188
540.4670366,207.899993896484
540.4826616,201.630004882813
540.4982866,196.979995727539
540.5139116,194.770004272461
540.5295366,195.059997558594
540.5451616,196.970001220703
540.5607866,199.320007324219
540.5764116,201.520004272461
540.5920366,200.529998779297
540.6076616,200.529998779297
540.6232866,201.039993286133
540.6389116,200.770004272461
540.6545366,198.630004882813
540.6701616,194.419998168945
540.6857866,188.720001220703
540.7014116,182.479995727539
540.7170366,176.5
540.7326616,171.199996948242
540.7482866,166.589996337891
540.7639116,162.610000610352
540.7795366,159.399993896484
540.7951616,157.139999389648
540.8107866,155.699996948242
540.8264116,154.210006713867
540.8420366,151.229995727539
540.8576616,145.660003662109
540.8732866,137.559997558594
540.8889116,127.900001525879
540.9045366,117.629997253418
540.9201616,107.209999084473
540.9357866,96.75
540.9514116,86.2799987792969
540.9670366,75.879997253418
540.9826616,65.629997253418
540.9982866,55.5900001525879
541.0139116,45.7400016784668
541.0295366,36.0999984741211
541.0451616,26.7099990844727
541.0607866,17.7000007629395
541.0764116,9.13000011444092
541.0920366,1.01999998092651
541.1076616,-6.80000019073486
541.1232866,-14.6800003051758
541.1389116,-22.9599990844727
541.1545366,-31.7099990844727
541.1701616,-40.7799987792969
541.1857866,-49.8400001525879
541.2014116,-58.4199981689453
541.2170366,-66.0299987792969
541.2326616,-72.2900009155273
541.2482866,-77.1999969482422
541.2639116,-81.0800018310547
541.2795366,-84.3000030517578
541.2951616,-86.7699966430664
541.3107866,-87.8499984741211
541.3264116,-86.9300003051758
541.3420366,-84.1800003051758
541.3576616,-80.5899963378906
541.3732866,-77.2699966430664
541.3889116,-74.8899993896484
541.4045366,-73.5
541.4201616,-72.5999984741211
541.4357866,-71.4100036621094
541.4514116,-69.3000030517578
541.4670366,-66.1699981689453
541.4826616,-62.3499984741211
541.4982866,-58.3899993896484
541.5139116,-54.5400009155273
541.5295366,-45.1500015258789
541.5451616,0.479999989271164
541.5607866,143.5
541.5764116,327.670013427734
541.5920366,327.670013427734
541.6076616,327.670013427734
541.6232866,327.670013427734
541.6389116,327.670013427734
541.6545366,327.670013427734
541.6701616,327.670013427734
541.6857866,327.670013427734
541.7014116,258.279998779297
541.7170366,-219.440002441406
541.7326616,-327.679992675781
541.7482866,-327.679992675781
541.7639116,-327.679992675781
541.7795366,-327.679992675781
541.7951616,-327.679992675781
541.8107866,-327.679992675781
541.8264116,-327.679992675781
541.8420366,-327.679992675781
541.8576616,-327.679992675781
541.8732866,-327.679992675781
541.8889116,-327.679992675781
541.9045366,-327.679992675781
541.9201616,-327.679992675781
541.9357866,-327.679992675781
541.9514116,-327.679992675781
541.9670366,-327.679992675781
541.9826616,-327.679992675781
541.9982866,-327.679992675781
542.0139116,-327.679992675781
542.0295366,-327.679992675781
542.0451616,-327.679992675781
542.0607866,-327.679992675781
542.0764116,-327.679992675781
542.0920366,-327.679992675781
542.1076616,-327.679992675781
542.1232866,-327.679992675781
542.1389116,-327.679992675781
542.1545366,-327.679992675781
542.1701616,-327.679992675781
542.1857866,-327.679992675781
542.2014116,-327.679992675781
542.2170366,-305.730010986328
542.2326616,-283.380004882813
542.2482866,-263.179992675781
542.2639116,-244.270004272461
542.2795366,-225.919998168945
542.2951616,-207.820007324219
542.3107866,-189.949996948242
542.3264116,-172.380004882813
542.3420366,-155.020004272461
542.3576616,-137.710006713867
542.3732866,-120.5
542.3889116,-104.029998779297
542.4045366,-89.5199966430664
542.4201616,-78.0800018310547
542.4357866,-69.8600006103516
542.4514116,-64.120002746582
542.4670366,-59.75
542.4826616,-55.8800010681152
542.4982866,-52.0400009155273
542.5139116,-48.0400009155273
542.5295366,-43.939998626709
542.5451616,-39.9599990844727
542.5607866,-36.4799995422363
542.5764116,-33.7900009155273
542.5920366,-32.689998626709
542.6076616,-32.2000007629395
542.6232866,-32.2700004577637
542.6389116,-32.9000015258789
542.6545366,-33.9300003051758
542.6701616,-34.9799995422363
542.6857866,-35.4700012207031
542.7014116,-35.0900001525879
542.7170366,-34.0499992370605
542.7326616,-32.7999992370605
542.7482866,-31.4599990844727
542.7639116,-29.7299995422363
542.7795366,-27.2199993133545
542.7951616,-23.7800006866455
542.8107866,-19.5799999237061
542.8264116,-15.0299997329712
542.8420366,-10.6099996566772
542.8576616,-6.65999984741211
542.8732866,-3.15000009536743
542.8889116,0.479999989271164
542.9045366,5.3600001335144
542.9201616,12.4200000762939
542.9357866,21.9400005340576
542.9514116,33.5900001525879
542.9670366,47.0699996948242
542.9826616,62.5499992370605
542.9982866,80.5199966430664
543.0139116,100.900001525879
543.0295366,122.379997253418
543.0451616,142.949996948242
543.0607866,161.020004272461
543.0764116,176.179992675781
543.0920366,188.979995727539
543.1076616,200.259994506836
543.1232866,210.539993286133
543.1389116,219.899993896484
543.1545366,228.270004272461
543.1701616,235.679992675781
543.1857866,242.289993286133
543.2014116,248.360000610352
543.2170366,253.990005493164
543.2326616,258.899993896484
543.2482866,262.339996337891
543.2639116,263.480010986328
543.2795366,261.940002441406
543.2951616,258.079986572266
543.3107866,252.770004272461
543.3264116,246.990005493164
543.3420366,241.460006713867
543.3576616,236.5
543.3732866,232.029998779297
543.3889116,227.570007324219
543.4045366,222.410003662109
543.4201616,215.970001220703
543.4357866,208.119995117188
543.4514116,199.039993286133
543.4670366,188.830001831055
543.4826616,177.529998779297
543.4982866,165.449996948242
543.5139116,153.479995727539
543.5295366,142.899993896484
543.5451616,134.520004272461
543.5607866,127.949996948242
543.5764116,122.150001525879
543.5920366,118.889999389648
543.6076616,115.389999389648
543.6232866,111.720001220703
543.6389116,107.73999786377
543.6545366,103.349998474121
543.6701616,98.9899978637695
543.6857866,95.8099975585938
543.7014116,95.3399963378906
543.7170366,98.8099975585938
543.7326616,106.680000305176
543.7482866,118.519996643066
543.7639116,133.149993896484
543.7795366,149.070007324219
543.7951616,164.839996337891
543.8107866,179.610000610352
543.8264116,193.330001831055
543.8420366,206.649993896484
543.8576616,220.429992675781
543.8732866,235.0
543.8889116,250.130004882813
543.9045366,265.309997558594
543.9201616,280.010009765625
543.9357866,293.720001220703
543.9514116,305.489990234375
543.9670366,313.820007324219
543.9826616,317.380004882813
543.9982866,316.040008544922
544.0139116,310.929992675781
544.0295366,303.75
544.0451616,295.920013427734
544.0607866,288.279998779297
544.0764116,281.040008544922
544.0920366,274.040008544922
544.1076616,266.790008544922
544.1232866,258.630004882813
544.1389116,249.059997558594
544.1545366,238.039993286133
544.1701616,225.759994506836
544.1857866,212.320007324219
544.2014116,197.729995727539
544.2170366,182.259994506836
544.2326616,166.649993896484
544.2482866,151.949996948242
544.2639116,138.770004272461
544.2795366,126.709999084473
544.2951616,114.980003356934
544.3107866,103.319999694824
544.3264116,92.1999969482422
544.3420366,82.2200012207031
544.3576616,73.629997253418
544.3732866,66.1800003051758
544.3889116,59.1800003051758
544.4045366,51.7700004577637
544.4201616,43.3199996948242
544.4357866,33.8199996948242
544.4514116,24.0100002288818
544.4670366,15.0799999237061
544.4826616,8.07999992370605
544.4982866,3.42000007629395
544.5139116,1.21000003814697
544.5295366,1.85000002384186
544.5451616,6.09999990463257
544.5607866,14.5699996948242
544.5764116,26.8099994659424
544.5920366,41.0900001525879
544.6076616,55.0400009155273
544.6232866,66.9100036621094
544.6389116,76.0999984741211
544.6545366,83.0599975585938
544.6701616,88.5800018310547
544.6857866,93.1999969482422
544.7014116,97.1100006103516
544.7170366,100.269996643066
544.7326616,102.680000305176
544.7482866,104.459999084473
544.7639116,105.779998779297
544.7795366,106.730003356934
544.7951616,107.0
544.8107866,105.819999694824
544.8264116,102.449996948242
544.8420366,96.6600036621094
544.8576616,88.9300003051758
544.8732866,80.1399993896484
544.8889116,71.1900024414063
544.9045366,62.6399993896484
544.9201616,54.689998626709
544.9357866,47.2099990844727
544.9514116,39.7900009155273
544.9670366,31.8899993896484
544.9826616,23.1000003814697
544.9982866,13.3400001525879
545.0139116,2.72000002861023
545.0295366,-8.75
545.0451616,-21.1200008392334
545.0607866,-34.1800003051758
545.0764116,-47.2200012207031
545.0920366,-59.25
545.1076616,-69.6900024414063
545.1232866,-78.879997253418
545.1389116,-87.5899963378906
545.1545366,-96.120002746582
545.1701616,-104.120002746582
545.1857866,-111.050003051758
545.2014116,-116.709999084473
545.2170366,-121.23999786377
545.2326616,-125.019996643066
545.2482866,-128.350006103516
545.2639116,-131.380004882813
545.2795366,-134.130004882813
545.2951616,-136.589996337891
545.3107866,-138.740005493164
545.3264116,-140.610000610352
545.3420366,-142.039993286133
545.3576616,-142.179992675781
545.3732866,-139.279998779297
545.3889116,-131.75
545.4045366,-119.370002746582
545.4201616,-103.400001525879
545.4357866,-85.6100006103516
545.4514116,-67.4800033569336
545.4670366,-50.0800018310547
545.4826616,-34.4599990844727
545.4982866,-21.9300003051758
545.5139116,-13.5200004577637
545.5295366,-9.27000045776367
545.5451616,-8.35000038146973
545.5607866,-9.69999980926514
545.5764116,-12.5799999237061
545.5920366,-16.3600006103516
545.6076616,-20.8799991607666
545.6232866,-25.8199996948242
545.6389116,-30.8299999237061
545.6545366,-35.6699981689453
545.6701616,-40.3499984741211
545.6857866,-45.2099990844727
545.7014116,-50.5299987792969
545.7170366,-56.2900009155273
545.7326616,-62.3400001525879
545.7482866,-68.7900009155273
545.7639116,-75.870002746582
545.7795366,-83.620002746582
545.7951616,-91.5400009155273
545.8107866,-98.8399963378906
545.8264116,-105.099998474121
545.8420366,-110.669998168945
545.8576616,-116.190002441406
545.8732866,-121.73999786377
545.8889116,-126.809997558594
545.9045366,-130.779998779297
545.9201616,-133.429992675781
545.9357866,-135.009994506836
545.9514116,-136.210006713867
545.9670366,-137.899993896484
545.9826616,-140.729995727539
545.9982866,-144.839996337891
546.0139116,-150.139999389648
546.0295366,-156.720001220703
546.0451616,-164.729995727539
546.0607866,-173.860000610352
546.0764116,-182.889999389648
546.0920366,-189.899993896484
546.1076616,-193.479995727539
546.1232866,-193.690002441406
546.1389116,-191.639999389648
546.1545366,-188.240005493164
546.1701616,-183.729995727539
546.1857866,-178.119995117188
546.2014116,-171.520004272461
546.2170366,-164.179992675781
546.2326616,-155.990005493164
546.2482866,-146.169998168945
546.2639116,-133.839996337891
546.2795366,-118.889999389648
546.2951616,-102.180000305176
546.3107866,-85.0599975585938
546.3264116,-68.7200012207031
546.3420366,-53.7999992370605
546.3576616,-40.3899993896484
546.3732866,-28.3400001525879
546.3889116,-17.3999996185303
546.4045366,-7.34000015258789
546.4201616,2.0
546.4357866,10.710000038147
546.4514116,18.8099994659424
546.4670366,26.2700004577637
546.4826616,32.9099998474121
546.4982866,38.3699989318848
546.5139116,42.2299995422363
546.5295366,44.3300018310547
546.5451616,44.9300003051758
546.5607866,44.5900001525879
546.5764116,43.7700004577637
546.5920366,41.9700012207031
546.6076616,39.6300010681152
546.6232866,36.6699981689453
546.6389116,33.310001373291
546.6545366,30.0100002288818
546.6701616,26.9899997711182
546.6857866,24.0499992370605
546.7014116,20.8500003814697
546.7170366,17.4400005340576
546.7326616,14.2799997329712
546.7482866,11.8199996948242
546.7639116,10.1999998092651
546.7795366,9.22000026702881
546.7951616,8.42000007629395
546.8107866,7.19000005722046
546.8264116,5.13000011444092
546.8420366,2.15000009536743
546.8576616,-1.63999998569489
546.8732866,-6.28999996185303
546.8889116,-11.8299999237061
546.9045366,-18.0699996948242
546.9201616,-24.2199993133545
546.9357866,-29.0900001525879
546.9514116,-31.7900009155273
546.9670366,-32.4000015258789
546.9826616,-31.6299991607666
546.9982866,-30.1100006103516
547.0139116,-28.0200004577637
547.0295366,-25.3700008392334
547.0451616,-22.2099990844727
547.0607866,-18.6599998474121
547.0764116,-14.5500001907349
547.0920366,-9.26000022888184
547.1076616,-2.13000011444092
547.1232866,6.96000003814697
547.1389116,17.5900001525879
547.1545366,29.1499996185303
547.1701616,41.1699981689453
547.1857866,53.1699981689453
547.2014116,64.5400009155273
547.2170366,74.4899978637695
547.2326616,82.5
547.2482866,88.6100006103516
547.2639116,93.25
547.2795366,96.7200012207031
547.2951616,99.0999984741211
547.3107866,100.440002441406
547.3264116,100.919998168945
547.3420366,100.819999694824
547.3576616,100.339996337891
547.3732866,99.4700012207031
547.3889116,98.0800018310547
547.4045366,96.0999984741211
547.4201616,93.5500030517578
547.4357866,90.4899978637695
547.4514116,87.0
547.4670366,83.1900024414063
547.4826616,79.2399978637695
547.4982866,75.3300018310547
547.5139116,71.4599990844727
547.5295366,67.4700012207031
547.5451616,63.1800003051758
547.5607866,58.6599998474121
547.5764116,54.1800003051758
547.5920366,49.3199996948242
547.6076616,45.060001373291
547.6232866,41.2999992370605
547.6389116,37.7700004577637
547.6545366,34.0800018310547
547.6701616,29.9899997711182
547.6857866,25.4300003051758
547.7014116,20.4599990844727
547.7170366,15.0799999237061
547.7326616,9.26000022888184
547.7482866,3.14000010490417
547.7639116,-2.8199999332428
547.7795366,-7.90999984741211
547.7951616,-11.5100002288818
547.8107866,-13.3800001144409
547.8264116,-13.6700000762939
547.8420366,-12.6899995803833
547.8576616,-10.8000001907349
547.8732866,-8.35999965667725
547.8889116,-5.73000001907349
547.9045366,-3.15000009536743
547.9201616,-0.569999992847443
547.9357866,2.39000010490417
547.9514116,6.17999982833862
547.9670366,10.9200000762939
547.9826616,16.3999996185303
547.9982866,22.2900009155273
548.0139116,28.3199996948242
548.0295366,34.189998626709
548.0451616,39.4799995422363
548.0607866,43.560001373291
548.0764116,45.9599990844727
548.0920366,46.7299995422363
548.1076616,46.3400001525879
548.1232866,45.2999992370605
548.1389116,43.9099998474121
548.1545366,42.2799987792969
548.1701616,40.4900016784668
548.1857866,38.5800018310547
548.2014116,36.560001373291
548.2170366,34.3400001525879
548.2326616,31.8199996948242
548.2482866,28.9400005340576
548.2639116,25.7299995422363
548.2795366,22.3400001525879
548.2951616,18.9200000762939
548.3107866,15.6199998855591
548.3264116,12.5
548.3420366,9.5600004196167
548.3576616,6.67000007629395
548.3732866,3.59999990463257
548.3889116,0.200000002980232
548.4045366,-3.58999991416931
548.4201616,-7.73000001907349
548.4357866,-12.1899995803833
548.4514116,-16.9599990844727
548.4670366,-21.9400005340576
548.4826616,-26.8400001525879
548.4982866,-31.25
548.5139116,-34.9000015258789
548.5295366,-37.9000015258789
548.5451616,-40.5499992370605
548.5607866,-43.0200004577637
548.5764116,-45.2400016784668
548.5920366,-47.439998626709
548.6076616,-49.2000007629395
548.6232866,-50.5499992370605
548.6389116,-51.5099983215332
548.6545366,-52.0099983215332
548.6701616,-51.9000015258789
548.6857866,-51.1500015258789
548.7014116,-49.7900009155273
