Time(s),Value(%)
2017.0125088,-36.6500015258789
2017.0281338,-40.3699989318848
2017.0437588,-44.3899993896484
2017.0593838,-47.5999984741211
2017.0750088,-49.4700012207031
2017.0906338,-49.9099998474121
2017.1062588,-48.9700012207031
2017.1218838,-46.7999992370605
2017.1375088,-43.6100006103516
2017.1531338,-39.810001373291
2017.1687588,-35.9599990844727
2017.1843838,-32.7200012207031
2017.2000088,-30.5400009155273
2017.2156338,-29.4200000762939
2017.2312588,-28.9200000762939
2017.2468838,-28.3500003814697
2017.2625088,-27.3099994659424
2017.2781338,-25.7900009155273
2017.2937588,-23.9500007629395
2017.3093838,-21.75
2017.3250088,-18.8999996185303
2017.3406338,-14.6999998092651
2017.3562588,-7.65000009536743
2017.3718838,4.61999988555908
2017.3875088,24.3299999237061
2017.4031338,51.4199981689453
2017.4187588,82.1800003051758
2017.4343838,109.879997253418
2017.4500088,127.599998474121
2017.4656338,131.389999389648
2017.4812588,121.879997253418
2017.4968838,103.639999389648
2017.5125088,82.8099975585938
2017.5281338,64.2900009155273
2017.5437588,50.1699981689453
2017.5593838,39.939998626709
2017.5750088,31.6700000762939
2017.5906338,23.1599998474121
2017.6062588,12.9200000762939
2017.6218838,0.959999978542328
2017.6375088,-11.2799997329712
2017.6531338,-22.0200004577637
2017.6687588,-30.25
2017.6843838,-36.0499992370605
2017.7000088,-40.0999984741211
2017.7156338,-43.0200004577637
2017.7312588,-45.0800018310547
2017.7468838,-46.3699989318848
2017.7625088,-47.2099990844727
2017.7781338,-48.1399993896484
2017.7937588,-49.4500007629395
2017.8093838,-50.9000015258789
2017.8250088,-51.9799995422363
2017.8406338,-52.1800003051758
2017.8562588,-51.1800003051758
2017.8718838,-48.939998626709
2017.8875088,-45.7999992370605
2017.9031338,-42.4500007629395
2017.9187588,-39.5299987792969
2017.9343838,-37.0900001525879
2017.9500088,-34.7200012207031
2017.9656338,-32.0699996948242
2017.9812588,-29.2199993133545
2017.9968838,-26.4200000762939
2018.0125088,-23.7600002288818
2018.0281338,-21.3500003814697
2018.0437588,-19.2299995422363
2018.0593838,-16.8199996948242
2018.0750088,-12.039999961853
2018.0906338,-1.50999999046326
2018.1062588,17.5
2018.1218838,44.6699981689453
2018.1375088,75.5199966430664
2018.1531338,102.930000305176
2018.1687588,120.139999389648
2018.1843838,123.660003662109
2018.2000088,114.519996643066
2018.2156338,97.2300033569336
2018.2312588,77.5699996948242
2018.2468838,60.2000007629395
2018.2625088,47.1199989318848
2018.2781338,37.6399993896484
2018.2937588,29.4500007629395
2018.3093838,20.0499992370605
2018.3250088,8.0
2018.3406338,-6.23000001907349
2018.3562588,-20.5400009155273
2018.3718838,-32.4099998474121
2018.3875088,-40.25
2018.4031338,-44.0200004577637
2018.4187588,-45.0099983215332
2018.4343838,-44.9900016784668
2018.4500088,-45.4000015258789
2018.4656338,-47.0299987792969
2018.4812588,-49.9000015258789
2018.4968838,-53.2200012207031
2018.5125088,-55.5299987792969
2018.5281338,-55.6199989318848
2018.5437588,-53.3199996948242
2018.5593838,-49.5800018310547
2018.5750088,-45.7000007629395
2018.5906338,-42.6300010681152
2018.6062588,-40.4199981689453
2018.6218838,-38.4099998474121
2018.6375088,-35.8899993896484
2018.6531338,-32.689998626709
2018.6687588,-29.25
2018.6843838,-26.2600002288818
2018.7000088,-24.0400009155273
2018.7156338,-22.4400005340576
2018.7312588,-21.1700000762939
2018.7468838,-19.9099998474121
2018.7625088,-18.25
2018.7781338,-15.3500003814697
2018.7937588,-9.34000015258789
2018.8093838,2.73000001907349
2018.8250088,23.3799991607666
2018.8406338,52.1699981689453
2018.8562588,84.5899963378906
2018.8718838,113.410003662109
2018.8875088,131.649993896484
2018.9031338,135.600006103516
2018.9187588,126.069999694824
2018.9343838,107.5
2018.9500088,85.6399993896484
2018.9656338,65.2699966430664
2018.9812588,49.0800018310547
2018.9968838,37.5800018310547
2019.0125088,29.3999996185303
2019.0281338,22.1100006103516
2019.0437588,13.4300003051758
2019.0593838,2.42000007629395
2019.0750088,-9.97000026702881
2019.0906338,-21.6000003814697
2019.1062588,-30.4500007629395
2019.1218838,-35.9000015258789
2019.1375088,-38.810001373291
2019.1531338,-40.6100006103516
2019.1687588,-42.3699989318848
2019.1843838,-44.439998626709
2019.2000088,-46.5999984741211
2019.2156338,-48.4500007629395
2019.2312588,-49.5800018310547
2019.2468838,-49.7599983215332
2019.2625088,-48.9799995422363
2019.2781338,-47.4199981689453
2019.2937588,-45.4000015258789
2019.3093838,-43.0400009155273
2019.3250088,-40.4000015258789
2019.3406338,-37.4300003051758
2019.3562588,-34.0800018310547
2019.3718838,-30.4599990844727
2019.3875088,-27.0
2019.4031338,-24.2099990844727
2019.4187588,-22.3500003814697
2019.4343838,-21.2800006866455
2019.4500088,-20.6499996185303
2019.4656338,-20.1599998474121
2019.4812588,-19.5900001525879
2019.4968838,-18.3799991607666
2019.5125088,-15.3100004196167
2019.5281338,-8.18000030517578
2019.5437588,5.84000015258789
2019.5593838,28.6499996185303
2019.5750088,58.9099998474121
2019.5906338,91.2699966430664
2019.6062588,117.910003662109
2019.6218838,131.940002441406
2019.6375088,130.720001220703
2019.6531338,116.870002746582
2019.6687588,96.5199966430664
2019.6843838,76.0599975585938
2019.7000088,59.6699981689453
2019.7156338,48.5699996948242
2019.7312588,41.4000015258789
2019.7468838,35.2099990844727
2019.7625088,26.8400001525879
2019.7781338,14.6000003814697
2019.7937588,-0.689999997615814
2019.8093838,-16.2199993133545
2019.8250088,-28.7900009155273
2019.8406338,-36.5200004577637
2019.8562588,-39.5
2019.8718838,-39.4700012207031
2019.8875088,-38.6699981689453
2019.9031338,-38.7400016784668
2019.9187588,-40.0099983215332
2019.9343838,-41.810001373291
2019.9500088,-43.25
2019.9656338,-43.9700012207031
2019.9812588,-44.0299987792969
2019.9968838,-43.5499992370605
2020.0125088,-42.5499992370605
2020.0281338,-41.2400016784668
2020.0437588,-39.9799995422363
2020.0593838,-38.8699989318848
2020.0750088,-37.4199981689453
2020.0906338,-35.0900001525879
2020.1062588,-31.7000007629395
2020.1218838,-27.6499996185303
2020.1375088,-23.7099990844727
2020.1531338,-20.6800003051758
2020.1687588,-18.9799995422363
2020.1843838,-18.3500003814697
2020.2000088,-18.0
2020.2156338,-16.8799991607666
2020.2312588,-13.8999996185303
2020.2468838,-7.59999990463257
2020.2625088,4.11999988555908
2020.2781338,23.2900009155273
2020.2937588,49.75
2020.3093838,79.5299987792969
2020.3250088,105.569999694824
2020.3406338,120.889999389648
2020.3562588,121.860000610352
2020.3718838,109.680000305176
2020.3875088,89.1800003051758
2020.4031338,66.4000015258789
2020.4187588,46.2400016784668
2020.4343838,31.3299999237061
2020.4500088,21.75
2020.4656338,15.6199998855591
2020.4812588,10.1599998474121
2020.4968838,3.1800000667572
2020.5125088,-5.75
2020.5281338,-15.5
2020.5437588,-24.3799991607666
2020.5593838,-31.2299995422363
2020.5750088,-35.7000007629395
2020.5906338,-38.0299987792969
2020.6062588,-38.8300018310547
2020.6218838,-38.9099998474121
2020.6375088,-39.1800003051758
2020.6531338,-40.2900009155273
2020.6687588,-42.3199996948242
2020.6843838,-44.75
2020.7000088,-46.9199981689453
2020.7156338,-48.3899993896484
2020.7312588,-48.9199981689453
2020.7468838,-48.2799987792969
2020.7625088,-46.4799995422363
2020.7781338,-44.0400009155273
2020.7937588,-41.7599983215332
2020.8093838,-40.2200012207031
2020.8250088,-39.4099998474121
2020.8406338,-38.8300018310547
2020.8562588,-37.7900009155273
2020.8718838,-35.8199996948242
2020.8875088,-32.9000015258789
2020.9031338,-29.3199996948242
2020.9187588,-25.4400005340576
2020.9343838,-21.1599998474121
2020.9500088,-15.1199998855591
2020.9656338,-4.46999979019165
2020.9812588,13.7299995422363
2020.9968838,39.810001373291
2021.0125088,69.8600006103516
2021.0281338,96.75
2021.0437588,113.440002441406
2021.0593838,116.230003356934
2021.0750088,106.169998168945
2021.0906338,87.9000015258789
2021.1062588,67.0699996948242
2021.1218838,48.25
2021.1375088,33.7900009155273
2021.1531338,23.6499996185303
2021.1687588,15.9399995803833
2021.1843838,8.23999977111816
2021.2000088,-0.829999983310699
2021.2156338,-11.0100002288818
2021.2312588,-20.7700004577637
2021.2468838,-28.3199996948242
2021.2625088,-32.6100006103516
2021.2781338,-33.8199996948242
2021.2937588,-33.2299995422363
2021.3093838,-32.6800003051758
2021.3250088,-33.7000007629395
2021.3406338,-36.7799987792969
2021.3562588,-41.2400016784668
2021.3718838,-45.6699981689453
2021.3875088,-48.6199989318848
2021.4031338,-49.2799987792969
2021.4187588,-47.7200012207031
2021.4343838,-44.8199996948242
2021.4500088,-41.7900009155273
2021.4656338,-39.6100006103516
2021.4812588,-38.5499992370605
2021.4968838,-37.9900016784668
2021.5125088,-36.7999992370605
2021.5281338,-34.2900009155273
2021.5437588,-30.8500003814697
2021.5593838,-27.4899997711182
2021.5750088,-24.9899997711182
2021.5906338,-23.5100002288818
2021.6062588,-22.5900001525879
2021.6218838,-21.2600002288818
2021.6375088,-17.7299995422363
2021.6531338,-9.26000022888184
2021.6687588,7.19999980926514
2021.6843838,32.8699989318848
2021.7000088,64.9800033569336
2021.7156338,96.9700012207031
2021.7312588,121.029998779297
2021.7468838,131.520004272461
2021.7625088,127.279998779297
2021.7781338,111.690002441406
2021.7937588,90.6699981689453
2021.8093838,70.0599975585938
2021.8250088,53.7099990844727
2021.8406338,42.5699996948242
2021.8562588,35.060001373291
2021.8718838,28.4500007629395
2021.8875088,20.3199996948242
2021.9031338,9.67000007629395
2021.9187588,-2.69000005722046
2021.9343838,-14.8199996948242
2021.9500088,-24.8199996948242
2021.9656338,-31.7199993133545
2021.9812588,-35.6300010681152
2021.9968838,-37.4300003051758
2022.0125088,-38.3400001525879
2022.0281338,-39.5
2022.0437588,-41.5400009155273
2022.0593838,-44.3400001525879
2022.0750088,-47.0900001525879
2022.0906338,-48.8699989318848
2022.1062588,-49.2900009155273
2022.1218838,-48.5200004577637
2022.1375088,-46.8199996948242
2022.1531338,-44.3499984741211
2022.1687588,-41.3400001525879
2022.1843838,-38.2299995422363
2022.2000088,-35.4099998474121
2022.2156338,-33.0099983215332
2022.2312588,-30.9699993133545
2022.2468838,-29.2099990844727
2022.2625088,-27.6900005340576
2022.2781338,-26.3199996948242
2022.2937588,-24.9799995422363
2022.3093838,-23.5699996948242
2022.3250088,-21.9099998474121
2022.3406338,-19.2900009155273
2022.3562588,-13.9700002670288
2022.3718838,-3.15000009536743
2022.3875088,15.75
2022.4031338,42.8400001525879
2022.4187588,74.370002746582
2022.4343838,103.73999786377
2022.4500088,124.269996643066
2022.4656338,131.940002441406
2022.4812588,126.76000213623
2022.4968838,112.360000610352
2022.5125088,94.0899963378906
2022.5281338,76.6800003051758
2022.5437588,62.5299987792969
2022.5593838,51.2400016784668
2022.5750088,40.5900001525879
2022.5906338,28.1700000762939
2022.6062588,12.8000001907349
2022.6218838,-4.84000015258789
2022.6375088,-22.6900005340576
2022.6531338,-38.1599998474121
2022.6687588,-49.3400001525879
2022.6843838,-55.6500015258789
2022.7000088,-57.9799995422363
2022.7156338,-58.0299987792969
2022.7312588,-57.3400001525879
2022.7468838,-56.8800010681152
2022.7625088,-57.1300010681152
2022.7781338,-58.3899993896484
2022.7937588,-60.6699981689453
2022.8093838,-63.4900016784668
2022.8250088,-65.8099975585938
2022.8406338,-66.370002746582
2022.8562588,-64.2799987792969
2022.8718838,-59.5099983215332
2022.8875088,-53.0499992370605
2022.9031338,-46.4500007629395
2022.9187588,-41.060001373291
2022.9343838,-37.4099998474121
2022.9500088,-35.1500015258789
2022.9656338,-33.3699989318848
2022.9812588,-31.1299991607666
2022.9968838,-27.9500007629395
2023.0125088,-23.9799995422363
2023.0281338,-19.6399993896484
2023.0437588,-14.8800001144409
2023.0593838,-8.22999954223633
2023.0750088,3.40000009536743
2023.0906338,23.1499996185303
2023.1062588,51.4199981689453
2023.1218838,84.2900009155273
2023.1375088,114.610000610352
2023.1531338,135.229995727539
2023.1687588,141.949996948242
2023.1843838,135.020004272461
2023.2000088,118.51000213623
2023.2156338,97.9899978637695
2023.2312588,78.1900024414063
2023.2468838,61.5499992370605
2023.2625088,48.2200012207031
2023.2781338,36.5800018310547
2023.2937588,24.2099990844727
2023.3093838,9.35000038146973
2023.3250088,-7.59999990463257
2023.3406338,-24.0699996948242
2023.3562588,-36.7400016784668
2023.3718838,-43.6399993896484
2023.3875088,-45.2999992370605
2023.4031338,-44.0499992370605
2023.4187588,-42.3400001525879
2023.4343838,-41.4700012207031
2023.4500088,-41.4700012207031
2023.4656338,-41.6100006103516
2023.4812588,-41.0900001525879
2023.4968838,-39.6199989318848
2023.5125088,-37.4099998474121
2023.5281338,-34.7599983215332
2023.5437588,-31.9400005340576
2023.5593838,-29.4699993133545
2023.5750088,-27.9500007629395
2023.5906338,-27.5400009155273
2023.6062588,-27.7199993133545
2023.6218838,-27.7399997711182
2023.6375088,-27.2900009155273
2023.6531338,-26.5599994659424
2023.6687588,-25.7199993133545
2023.6843838,-24.5100002288818
2023.7000088,-22.1000003814697
2023.7156338,-17.4500007629395
2023.7312588,-9.48999977111816
2023.7468838,2.8199999332428
2023.7625088,20.2199993133545
2023.7781338,42.2900009155273
2023.7937588,66.5500030517578
2023.8093838,88.6699981689453
2023.8250088,103.919998168945
2023.8406338,109.300003051758
2023.8562588,104.849998474121
2023.8718838,93.370002746582
2023.8875088,78.8300018310547
2023.9031338,64.6699981689453
2023.9187588,52.8300018310547
2023.9343838,43.4199981689453
2023.9500088,34.9599990844727
2023.9656338,25.4799995422363
2023.9812588,13.9700002670288
2023.9968838,1.19000005722046
2024.0125088,-10.7600002288818
2024.0281338,-19.6599998474121
2024.0437588,-24.3600006103516
2024.0593838,-25.3999996185303
2024.0750088,-24.6900005340576
2024.0906338,-24.5599994659424
2024.1062588,-26.6900005340576
2024.1218838,-31.2700004577637
2024.1375088,-37.0800018310547
2024.1531338,-42.4000015258789
2024.1687588,-46.1599998474121
2024.1843838,-48.3800010681152
2024.2000088,-49.6300010681152
2024.2156338,-50.4799995422363
2024.2312588,-51.1199989318848
2024.2468838,-51.3800010681152
2024.2625088,-50.9599990844727
2024.2781338,-49.7000007629395
2024.2937588,-47.8199996948242
2024.3093838,-45.8800010681152
2024.3250088,-44.5900001525879
2024.3406338,-44.2799987792969
2024.3562588,-44.5699996948242
2024.3718838,-44.5099983215332
2024.3875088,-42.8800010681152
2024.4031338,-38.1300010681152
2024.4187588,-28.2399997711182
2024.4343838,-11.1800003051758
2024.4500088,13.6099996566772
2024.4656338,43.4199981689453
2024.4812588,72.0899963378906
2024.4968838,92.4800033569336
2024.5125088,100.0
2024.5281338,94.5599975585938
2024.5437588,79.9899978637695
2024.5593838,61.8300018310547
2024.5750088,44.939998626709
2024.5906338,31.9200000762939
2024.6062588,22.6399993896484
2024.6218838,15.0699996948242
2024.6375088,6.86999988555908
2024.6531338,-3.07999992370605
2024.6687588,-14.1099996566772
2024.6843838,-24.3400001525879
2024.7000088,-31.9699993133545
2024.7156338,-36.2200012207031
2024.7312588,-37.5800018310547
2024.7468838,-37.4300003051758
2024.7625088,-37.2200012207031
2024.7781338,-37.7599983215332
2024.7937588,-39.0200004577637
2024.8093838,-40.3699989318848
2024.8250088,-41.2000007629395
2024.8406338,-41.1800003051758
2024.8562588,-40.1500015258789
2024.8718838,-38.1699981689453
2024.8875088,-35.810001373291
2024.9031338,-33.9599990844727
2024.9187588,-33.0200004577637
2024.9343838,-32.6300010681152
2024.9500088,-32.2000007629395
2024.9656338,-31.4400005340576
2024.9812588,-30.2000007629395
2024.9968838,-28.1200008392334
2025.0125088,-24.8700008392334
2025.0281338,-20.5699996948242
2025.0437588,-15.7299995422363
2025.0593838,-10.6300001144409
2025.0750088,-4.59999990463257
2025.0906338,4.44999980926514
2025.1062588,19.4899997711182
2025.1218838,42.1599998474121
2025.1375088,70.5100021362305
2025.1531338,98.4199981689453
2025.1687588,117.849998474121
2025.1843838,123.019996643066
2025.2000088,113.610000610352
2025.2156338,94.6500015258789
2025.2312588,73.4000015258789
2025.2468838,55.7400016784668
2025.2625088,44.1199989318848
2025.2781338,37.560001373291
2025.2937588,33.0400009155273
2025.3093838,27.2600002288818
2025.3250088,18.1800003051758
2025.3406338,5.94000005722046
2025.3562588,-7.34999990463257
2025.3718838,-18.9899997711182
2025.3875088,-27.1499996185303
2025.4031338,-31.6100006103516
2025.4187588,-33.3300018310547
2025.4343838,-33.7599983215332
2025.4500088,-34.2200012207031
2025.4656338,-35.3499984741211
2025.4812588,-36.8300018310547
2025.4968838,-37.560001373291
2025.5125088,-36.6100006103516
2025.5281338,-33.9000015258789
2025.5437588,-30.3299999237061
2025.5593838,-27.1800003051758
2025.5750088,-25.3700008392334
2025.5906338,-24.9500007629395
2025.6062588,-25.0599994659424
2025.6218838,-24.5499992370605
2025.6375088,-22.7299995422363
2025.6531338,-19.75
2025.6687588,-16.2900009155273
2025.6843838,-13.0600004196167
2025.7000088,-10.4200000762939
2025.7156338,-8.05000019073486
2025.7312588,-4.3899998664856
2025.7468838,3.46000003814697
2025.7625088,18.5
2025.7781338,41.439998626709
2025.7937588,68.8899993896484
2025.8093838,94.0500030517578
2025.8250088,109.889999389648
2025.8406338,112.779998779297
2025.8562588,104.040000915527
2025.8718838,88.4899978637695
2025.8875088,71.5199966430664
2025.9031338,56.7700004577637
2025.9187588,45.2200012207031
2025.9343838,35.6599998474121
2025.9500088,25.8899993896484
2025.9656338,14.1300001144409
2025.9812588,0.189999997615814
2025.9968838,-14.3900003433228
2026.0125088,-27.2700004577637
2026.0281338,-36.4599990844727
2026.0437588,-41.2000007629395
2026.0593838,-41.9900016784668
2026.0750088,-40.3499984741211
2026.0906338,-38.1699981689453
2026.1062588,-36.8699989318848
2026.1218838,-36.9300003051758
2026.1375088,-38.0699996948242
2026.1531338,-39.7999992370605
2026.1687588,-41.6599998474121
2026.1843838,-43.0999984741211
2026.2000088,-43.5499992370605
2026.2156338,-42.6599998474121
2026.2312588,-40.6100006103516
2026.2468838,-38.0999984741211
2026.2625088,-35.9500007629395
2026.2781338,-34.75
2026.2937588,-34.6100006103516
2026.3093838,-35.1800003051758
2026.3250088,-35.689998626709
2026.3406338,-35.1599998474121
2026.3562588,-32.6199989318848
2026.3718838,-27.1399993896484
2026.3875088,-17.3600006103516
2026.4031338,-1.25
2026.4187588,22.6499996185303
2026.4343838,52.8899993896484
2026.4500088,84.0
2026.4656338,108.300003051758
2026.4812588,119.669998168945
2026.4968838,116.569999694824
2026.5125088,102.349998474121
2026.5281338,83.0899963378906
2026.5437588,64.4300003051758
2026.5593838,49.5
2026.5750088,38.5200004577637
2026.5906338,29.8099994659424
2026.6062588,21.0799999237061
2026.6218838,10.5900001525879
2026.6375088,-2.24000000953674
2026.6531338,-16.7199993133545
2026.6687588,-31.0300006866455
2026.6843838,-42.9599990844727
2026.7000088,-50.7999992370605
2026.7156338,-54.0999984741211
2026.7312588,-53.689998626709
2026.7468838,-51.3600006103516
2026.7625088,-49.0800018310547
2026.7781338,-48.1800003051758
2026.7937588,-48.9500007629395
2026.8093838,-50.75
2026.8250088,-52.5200004577637
2026.8406338,-53.2299995422363
2026.8562588,-52.3300018310547
2026.8718838,-49.9700012207031
2026.8875088,-46.8199996948242
2026.9031338,-43.560001373291
2026.9187588,-40.6399993896484
2026.9343838,-38.1699981689453
2026.9500088,-36.0200004577637
2026.9656338,-33.9799995422363
2026.9812588,-31.9200000762939
2026.9968838,-29.8400001525879
2027.0125088,-27.5699996948242
2027.0281338,-24.25
2027.0437588,-17.9099998474121
2027.0593838,-5.59999990463257
2027.0750088,15.0699996948242
2027.0906338,43.7200012207031
2027.1062588,75.9199981689453
2027.1218838,104.440002441406
2027.1375088,122.290000915527
2027.1531338,125.730003356934
2027.1687588,115.620002746582
2027.1843838,96.5599975585938
2027.2000088,74.5899963378906
2027.2156338,54.75
2027.2312588,39.6100006103516
2027.2468838,29.0799999237061
2027.2625088,21.1299991607666
2027.2781338,13.0699996948242
2027.2937588,2.86999988555908
2027.3093838,-9.77000045776367
2027.3250088,-23.3299999237061
2027.3406338,-35.4000015258789
2027.3562588,-44.1399993896484
2027.3718838,-49.1199989318848
