Time(s),Value(%)
0.0664563,-2.28999996185303
0.0820813,-3.89000010490417
0.0977063,-5.48999977111816
0.1133313,-7.09999990463257
0.1289563,-8.71000003814697
0.1445813,-10.1199998855591
0.1602063,-11.1599998474121
0.1758313,-11.8900003433228
0.1914563,-12.5699996948242
0.2070813,-13.3400001525879
0.2227063,-14.210000038147
0.2383313,-15.0699996948242
0.2539563,-15.7799997329712
0.2695813,-16.1700000762939
0.2852063,-16.1900005340576
0.3008313,-15.9399995803833
0.3164563,-15.6099996566772
0.3320813,-15.3599996566772
0.3477063,-15.1400003433228
0.3633313,-14.8500003814697
0.3789563,-14.4300003051758
0.3945813,-13.8699998855591
0.4102063,-13.0699996948242
0.4258313,-11.6199998855591
0.4414563,-8.81999969482422
0.4570813,-4.03999996185303
0.4727063,2.60999989509583
0.4883313,10.1899995803833
0.5039563,17.3199996948242
0.5195813,22.8400001525879
0.5352063,26.2299995422363
0.5508313,27.6700000762939
0.5664563,27.6900005340576
0.5820813,26.8999996185303
0.5977063,25.6900005340576
0.6133313,24.2099990844727
0.6289563,22.3700008392334
0.6445813,20.1399993896484
0.6602063,17.6100006103516
0.6758313,15.0100002288818
0.6914563,12.5200004577637
0.7070813,10.1800003051758
0.7227063,7.98999977111816
0.7383313,5.96999979019165
0.7539563,4.15000009536743
0.7695813,2.54999995231628
0.7852063,1.0900000333786
0.8008313,-0.400000005960464
0.8164563,-2.11999988555908
0.8320813,-4.07999992370605
0.8477063,-6.15000009536743
0.8633313,-8.09000015258789
0.8789563,-9.72999954223633
0.8945813,-11.1099996566772
0.9102063,-12.3000001907349
0.9258313,-13.4099998474121
0.9414563,-14.4899997711182
0.9570813,-15.5600004196167
0.9727063,-16.5499992370605
0.9883313,-17.2600002288818
1.0039563,-17.5200004577637
1.0195813,-17.2900009155273
1.0352063,-16.6399993896484
1.0508313,-15.7299995422363
1.0664563,-14.8299999237061
1.0820813,-14.1099996566772
1.0977063,-13.5699996948242
1.1133313,-13.0600004196167
1.1289563,-12.460000038147
1.1445813,-11.7600002288818
1.1602063,-11.0600004196167
1.1758313,-10.4499998092651
1.1914563,-9.78999996185303
1.2070813,-8.60999965667725
1.2227063,-6.23000001907349
1.2383313,-2.21000003814697
1.2539563,3.38000011444092
1.2695813,9.92000007629395
1.2852063,16.3799991607666
1.3008313,21.7000007629395
1.3164563,25.2199993133545
1.3320813,26.8700008392334
1.3477063,27.0200004577637
1.3633313,26.2000007629395
1.3789563,24.9300003051758
1.3945813,23.4799995422363
1.4102063,21.8400001525879
1.4258313,19.8400001525879
1.4414563,17.3700008392334
1.4570813,14.5
1.4727063,11.4700002670288
1.4883313,8.53999996185303
1.5039563,6.05999994277954
1.5195813,4.55999994277954
1.5352063,4.71000003814697
1.5508313,7.23999977111816
1.5664563,12.710000038147
1.5820813,20.9099998474121
1.5977063,30.3299999237061
1.6133313,38.7900009155273
1.6289563,44.6300010681152
1.6445813,47.439998626709
1.6602063,47.4900016784668
1.6758313,44.6800003051758
1.6914563,37.7000007629395
1.7070813,24.6499996185303
1.7227063,4.96999979019165
1.7383313,-19.1100006103516
1.7539563,-43.4799995422363
1.7695813,-64.0699996948242
1.7852063,-78.4800033569336
1.8008313,-86.4700012207031
1.8164563,-89.5400009155273
1.8320813,-89.7300033569336
1.8477063,-88.4599990844727
1.8633313,-86.2399978637695
1.8789563,-83.0400009155273
1.8945813,-78.7600021362305
1.9102063,-73.5899963378906
1.9258313,-67.9100036621094
1.9414563,-61.9700012207031
1.9570813,-55.8199996948242
1.9727063,-49.439998626709
1.9883313,-43.0099983215332
2.0039563,-36.7400016784668
2.0195813,-30.6900005340576
2.0352063,-24.5200004577637
2.0508313,-17.6100006103516
2.0664563,-9.35000038146973
2.0820813,0.449999988079071
2.0977063,11.2600002288818
2.1133313,21.9099998474121
2.1289563,31.0400009155273
2.1445813,37.7700004577637
2.1602063,41.9599990844727
2.1758313,44.0999984741211
2.1914563,45.0
2.2070813,45.3699989318848
2.2227063,45.6300010681152
2.2383313,45.7599983215332
2.2539563,45.4799995422363
2.2695813,44.6199989318848
2.2852063,43.2299995422363
2.3008313,41.5099983215332
2.3164563,39.6599998474121
2.3320813,37.9300003051758
2.3477063,36.439998626709
2.3633313,35.1100006103516
2.3789563,33.75
2.3945813,32.2200012207031
2.4102063,30.4500007629395
2.4258313,28.5300006866455
2.4414563,26.6100006103516
2.4570813,24.7600002288818
2.4727063,22.9400005340576
2.4883313,21.0699996948242
2.5039563,19.0499992370605
2.5195813,16.8700008392334
2.5352063,14.6599998474121
2.5508313,12.5299997329712
2.5664563,10.5299997329712
2.5820813,8.65999984741211
2.5977063,6.82000017166138
2.6133313,4.8600001335144
2.6289563,2.73000001907349
2.6445813,0.569999992847443
2.6602063,-1.36000001430511
2.6758313,-2.85999989509583
2.6914563,-3.88000011444092
2.7070813,-4.51999998092651
2.7227063,-5.01000022888184
2.7383313,-5.69000005722046
2.7539563,-6.80000019073486
2.7695813,-8.21000003814697
2.7852063,-9.5600004196167
2.8008313,-10.5299997329712
2.8164563,-10.9799995422363
2.8320813,-10.9799995422363
2.8477063,-10.5799999237061
2.8633313,-9.64000034332275
2.8789563,-7.76000022888184
2.8945813,-4.5
2.9102063,0.219999998807907
2.9258313,5.90000009536743
2.9414563,11.5299997329712
2.9570813,16.2199993133545
2.9727063,19.3899993896484
2.9883313,20.9099998474121
3.0039563,20.9200000762939
3.0195813,19.7800006866455
3.0352063,17.8899993896484
3.0508313,15.5900001525879
3.0664563,13.039999961853
3.0820813,10.3800001144409
3.0977063,7.71999979019165
3.1133313,5.07999992370605
3.1289563,2.45000004768372
3.1445813,-0.159999996423721
3.1602063,-2.71000003814697
3.1758313,-5.03999996185303
3.1914563,-7.03000020980835
3.2070813,-8.69999980926514
3.2227063,-10.0799999237061
3.2383313,-11.3199996948242
3.2539563,-12.6000003814697
3.2695813,-13.9899997711182
3.2852063,-15.4700002670288
3.3008313,-17.0
3.3164563,-18.5200004577637
3.3320813,-19.9099998474121
3.3477063,-20.9799995422363
3.3633313,-21.6800003051758
3.3789563,-22.0900001525879
3.3945813,-22.3099994659424
3.4102063,-22.3500003814697
3.4258313,-22.2299995422363
3.4414563,-22.0
3.4570813,-21.6700000762939
3.4727063,-21.1800003051758
3.4883313,-20.5699996948242
3.5039563,-19.9599990844727
3.5195813,-19.4400005340576
3.5352063,-18.9400005340576
3.5508313,-18.3700008392334
3.5664563,-17.6800003051758
3.5820813,-16.9500007629395
3.5977063,-16.3099994659424
3.6133313,-15.8000001907349
3.6289563,-15.210000038147
3.6445813,-14.1400003433228
3.6602063,-12.0100002288818
3.6758313,-8.30000019073486
3.6914563,-2.88000011444092
3.7070813,3.75999999046326
3.7227063,10.8100004196167
3.7383313,17.4899997711182
3.7539563,23.1700000762939
3.7695813,27.3600006103516
3.7852063,29.7900009155273
3.8008313,30.5499992370605
3.8164563,29.9799995422363
3.8320813,28.5499992370605
3.8477063,26.7399997711182
3.8633313,24.8099994659424
3.8789563,22.7800006866455
3.8945813,20.5599994659424
3.9102063,18.1599998474121
3.9258313,15.7399997711182
3.9414563,13.4700002670288
3.9570813,11.3699998855591
3.9727063,9.34000015258789
3.9883313,7.32999992370605
4.0039563,5.3899998664856
4.0195813,3.58999991416931
4.0352063,1.87000000476837
4.0508313,0.0599999986588955
4.0664563,-1.96000003814697
4.0820813,-4.19000005722046
4.0977063,-6.55000019073486
4.1133313,-8.96000003814697
4.1289563,-11.3100004196167
4.1445813,-13.5
4.1602063,-15.4099998474121
4.1758313,-17.0300006866455
4.1914563,-18.4500007629395
4.2070813,-19.7800006866455
4.2227063,-21.0900001525879
4.2383313,-22.3199996948242
4.2539563,-23.2800006866455
4.2695813,-23.7600002288818
4.2852063,-23.7000007629395
4.3008313,-23.2700004577637
4.3164563,-22.7199993133545
4.3320813,-22.2600002288818
4.3477063,-21.9899997711182
4.3633313,-21.8199996948242
4.3789563,-21.5
4.3945813,-20.8600006103516
4.4102063,-19.8999996185303
4.4258313,-18.6200008392334
4.4414563,-16.9099998474121
4.4570813,-14.4799995422363
4.4727063,-10.8100004196167
4.4883313,-5.34999990463257
4.5039563,1.96000003814697
4.5195813,10.4499998092651
4.5352063,18.8099994659424
4.5508313,25.7299995422363
4.5664563,30.4300003051758
4.5820813,32.810001373291
4.5977063,33.4199981689453
4.6133313,32.9700012207031
4.6289563,32.0499992370605
4.6445813,30.9799995422363
4.6602063,29.8400001525879
4.6758313,28.5
4.6914563,26.6800003051758
4.7070813,24.1599998474121
4.7227063,20.9400005340576
4.7383313,17.2900009155273
4.7539563,13.710000038147
4.7695813,10.6800003051758
4.7852063,8.44999980926514
4.8008313,6.92000007629395
4.8164563,5.71000003814697
4.8320813,4.46000003814697
4.8477063,2.92000007629395
4.8633313,1.05999994277954
4.8789563,-0.970000028610229
4.8945813,-3.0699999332428
4.9102063,-5.11999988555908
4.9258313,-7.07999992370605
4.9414563,-8.96000003814697
4.9570813,-10.7700004577637
4.9727063,-12.4499998092651
4.9883313,-13.9099998474121
5.0039563,-15.1499996185303
5.0195813,-16.2099990844727
5.0352063,-17.0400009155273
5.0508313,-17.6800003051758
5.0664563,-18.2199993133545
5.0820813,-18.6700000762939
5.0977063,-18.9200000762939
5.1133313,-18.8899993896484
5.1289563,-18.6000003814697
5.1445813,-18.1900005340576
5.1602063,-17.8099994659424
5.1758313,-17.4599990844727
5.1914563,-17.0100002288818
5.2070813,-16.3700008392334
5.2227063,-15.6000003814697
5.2383313,-14.8800001144409
5.2539563,-14.3500003814697
5.2695813,-13.6300001144409
5.2852063,-11.9499998092651
5.3008313,-8.47000026702881
5.3164563,-2.80999994277954
5.3320813,4.73000001907349
5.3477063,13.3400001525879
5.3633313,21.8099994659424
5.3789563,28.8799991607666
5.3945813,33.6100006103516
5.4102063,35.75
5.4258313,35.7099990844727
5.4414563,34.25
5.4570813,32.189998626709
5.4727063,30.1299991607666
5.4883313,28.3700008392334
5.5039563,26.8500003814697
5.5195813,25.1800003051758
5.5352063,23.0100002288818
5.5508313,20.3099994659424
5.5664563,17.3799991607666
5.5820813,14.6000003814697
5.5977063,12.2399997711182
5.6133313,10.3100004196167
5.6289563,8.60000038146973
5.6445813,6.96000003814697
5.6602063,5.34999990463257
5.6758313,3.75999999046326
5.6914563,2.19000005722046
5.7070813,0.610000014305115
5.7227063,-1.07000005245209
5.7383313,-3.03999996185303
5.7539563,-5.3600001335144
5.7695813,-7.86999988555908
5.7852063,-10.3199996948242
5.8008313,-12.4399995803833
5.8164563,-14.1099996566772
5.8320813,-15.4099998474121
5.8477063,-16.5599994659424
5.8633313,-17.6800003051758
5.8789563,-18.7399997711182
5.8945813,-19.5799999237061
5.9102063,-20.0799999237061
5.9258313,-20.2199993133545
5.9414563,-20.1299991607666
5.9570813,-19.9699993133545
5.9727063,-19.8099994659424
5.9883313,-19.5699996948242
6.0039563,-19.1299991607666
6.0195813,-18.4699993133545
6.0352063,-17.6900005340576
6.0508313,-16.8899993896484
6.0664563,-16.1399993896484
6.0820813,-15.4799995422363
6.0977063,-14.8199996948242
6.1133313,-13.9499998092651
6.1289563,-12.5900001525879
6.1445813,-10.4300003051758
6.1602063,-7.01000022888184
6.1758313,-1.9099999666214
6.1914563,4.84999990463257
6.2070813,12.6400003433228
6.2227063,20.3299999237061
6.2383313,26.6499996185303
6.2539563,30.7700004577637
6.2695813,32.5499992370605
6.2852063,32.439998626709
6.3008313,31.1200008392334
6.3164563,29.2299995422363
6.3320813,27.1599998474121
6.3477063,25.0400009155273
6.3633313,22.7800006866455
6.3789563,20.2399997711182
6.3945813,17.2999992370605
6.4102063,14.1199998855591
6.4258313,11.0699996948242
6.4414563,8.51000022888184
6.4570813,6.6100001335144
6.4727063,5.30999994277954
6.4883313,4.36999988555908
6.5039563,3.44000005722046
6.5195813,2.19000005722046
6.5352063,0.540000021457672
6.5508313,-1.4099999666214
6.5664563,-3.49000000953674
6.5820813,-5.59000015258789
6.5977063,-7.53999996185303
6.6133313,-9.1899995803833
6.6289563,-10.5799999237061
6.6445813,-11.9700002670288
6.6602063,-13.5200004577637
6.6758313,-15.0900001525879
6.6914563,-16.3999996185303
6.7070813,-17.2600002288818
6.7227063,-17.7800006866455
6.7383313,-18.1900005340576
6.7539563,-18.6700000762939
6.7695813,-19.3199996948242
6.7852063,-20.1100006103516
6.8008313,-20.8600006103516
6.8164563,-21.25
6.8320813,-20.9699993133545
6.8477063,-20.0
6.8633313,-18.5499992370605
6.8789563,-17.0599994659424
6.8945813,-15.8500003814697
6.9102063,-14.9700002670288
6.9258313,-14.1599998474121
6.9414563,-13.0900001525879
6.9570813,-11.3000001907349
6.9727063,-8.26000022888184
6.9883313,-3.55999994277954
7.0039563,2.79999995231628
7.0195813,10.3699998855591
7.0352063,18.2700004577637
7.0508313,25.3600006103516
7.0664563,30.6100006103516
7.0820813,33.5400009155273
7.0977063,34.310001373291
7.1133313,33.4500007629395
7.1289563,31.6000003814697
7.1445813,29.2000007629395
7.1602063,26.4500007629395
7.1758313,23.5100002288818
7.1914563,20.5400009155273
7.2070813,17.7099990844727
7.2227063,15.1400003433228
7.2383313,12.8800001144409
7.2539563,10.960000038147
7.2695813,9.26000022888184
7.2852063,7.6100001335144
7.3008313,5.92999982833862
7.3164563,4.30000019073486
7.3320813,2.70000004768372
7.3477063,1.01999998092651
7.3633313,-0.829999983310699
7.3789563,-2.89000010490417
7.3945813,-5.1399998664856
7.4102063,-7.46000003814697
7.4258313,-9.67000007629395
7.4414563,-11.6099996566772
7.4570813,-13.210000038147
7.4727063,-14.5100002288818
7.4883313,-15.6099996566772
7.5039563,-16.5699996948242
7.5195813,-17.3899993896484
7.5352063,-18.0400009155273
7.5508313,-18.4400005340576
7.5664563,-18.5300006866455
7.5820813,-18.3500003814697
7.5977063,-18.0799999237061
7.6133313,-17.9599990844727
7.6289563,-18.1200008392334
7.6445813,-18.3899993896484
7.6602063,-18.3799991607666
7.6758313,-17.7999992370605
7.6914563,-16.7600002288818
7.7070813,-15.6300001144409
7.7227063,-14.710000038147
7.7383313,-13.960000038147
7.7539563,-12.960000038147
7.7695813,-11.0200004577637
7.7852063,-7.40000009536743
7.8008313,-1.70000004768372
7.8164563,5.80000019073486
7.8320813,14.1599998474121
7.8477063,22.1200008392334
7.8633313,28.5699996948242
7.8789563,32.9300003051758
7.8945813,35.1399993896484
7.9102063,35.5299987792969
7.9258313,34.6500015258789
7.9414563,33.0400009155273
7.9570813,31.0200004577637
7.9727063,28.6700000762939
7.9883313,26.0400009155273
8.0039563,23.2099990844727
8.0195813,20.2199993133545
8.0352063,17.1200008392334
8.0508313,14.0799999237061
8.0664563,11.3400001525879
8.0820813,8.97000026702881
8.0977063,6.86999988555908
8.1133313,4.92000007629395
8.1289563,3.04999995231628
8.1445813,1.23000001907349
8.1602063,-0.589999973773956
8.1758313,-2.48000001907349
8.1914563,-4.42999982833862
8.2070813,-6.44000005722046
8.2227063,-8.46000003814697
8.2383313,-10.4399995803833
8.2539563,-12.3500003814697
8.2695813,-14.2299995422363
8.2852063,-16.1000003814697
8.3008313,-17.8500003814697
8.3164563,-19.3199996948242
8.3320813,-20.4300003051758
8.3477063,-21.2199993133545
8.3633313,-21.7800006866455
8.3789563,-22.1700000762939
8.3945813,-22.3899993896484
8.4102063,-22.4599990844727
8.4258313,-22.4599990844727
8.4414563,-22.4599990844727
8.4570813,-22.4099998474121
8.4727063,-22.1599998474121
8.4883313,-21.5900001525879
8.5039563,-20.6900005340576
8.5195813,-19.6000003814697
8.5352063,-18.5300006866455
8.5508313,-17.5400009155273
8.5664563,-16.2900009155273
8.5820813,-14.0699996948242
8.5977063,-10.1300001144409
8.6133313,-4.09000015258789
8.6289563,3.90000009536743
8.6445813,13.0600004196167
8.6602063,21.9400005340576
8.6758313,29.0599994659424
8.6914563,33.5800018310547
8.7070813,35.5299987792969
8.7227063,35.5099983215332
8.7383313,34.2900009155273
8.7539563,32.5499992370605
8.7695813,30.7299995422363
8.7852063,28.9699993133545
8.8008313,27.0400009155273
8.8164563,24.6299991607666
8.8320813,21.6399993896484
8.8477063,18.2700004577637
8.8633313,14.8999996185303
8.8789563,11.8500003814697
8.8945813,9.32999992370605
8.9102063,7.23000001907349
8.9258313,5.32000017166138
8.9414563,3.44000005722046
8.9570813,1.58000004291534
8.9727063,-0.28999999165535
8.9883313,-2.28999996185303
9.0039563,-4.5
9.0195813,-6.90000009536743
9.0352063,-9.34000015258789
9.0508313,-11.6700000762939
9.0664563,-13.789999961853
9.0820813,-15.6899995803833
9.0977063,-17.4200000762939
9.1133313,-19.0200004577637
9.1289563,-20.4699993133545
9.1445813,-21.7099990844727
9.1602063,-22.7199993133545
9.1758313,-23.4500007629395
9.1914563,-23.9400005340576
9.2070813,-24.2999992370605
9.2227063,-24.6700000762939
9.2383313,-25.0100002288818
9.2539563,-25.2399997711182
9.2695813,-25.25
9.2852063,-24.9899997711182
9.3008313,-24.4500007629395
9.3164563,-23.6800003051758
9.3320813,-22.7199993133545
9.3477063,-21.5
9.3633313,-19.9899997711182
9.3789563,-18.1200008392334
9.3945813,-15.6300001144409
9.4102063,-11.9899997711182
9.4258313,-6.65999984741211
9.4414563,0.509999990463257
9.4570813,9.05000019073486
9.4727063,17.9500007629395
9.4883313,26.0100002288818
9.5039563,32.3199996948242
9.5195813,36.3800010681152
9.5352063,38.1800003051758
9.5508313,38.1199989318848
9.5664563,36.9300003051758
9.5820813,35.2999992370605
9.5977063,33.7000007629395
9.6133313,32.25
9.6289563,30.75
9.6445813,28.8600006103516
9.6602063,26.3299999237061
9.6758313,23.1499996185303
9.6914563,19.5799999237061
9.7070813,16.0599994659424
9.7227063,13.0299997329712
9.7383313,10.6899995803833
9.7539563,8.89999961853027
9.7695813,7.38000011444092
9.7852063,5.86999988555908
9.8008313,4.26999998092651
9.8164563,2.61999988555908
9.8320813,0.910000026226044
9.8477063,-0.980000019073486
9.8633313,-3.15000009536743
9.8789563,-5.6100001335144
9.8945813,-8.25
9.9102063,-10.8400001525879
9.9258313,-13.0200004577637
9.9414563,-14.5500001907349
9.9570813,-15.4200000762939
9.9727063,-15.75
9.9883313,-15.7299995422363
10.0039563,-15.5600004196167
10.0195813,-15.4300003051758
10.0352063,-15.4799995422363
10.0508313,-15.8100004196167
10.0664563,-16.3500003814697
10.0820813,-16.8999996185303
10.0977063,-17.1499996185303
10.1133313,-16.6700000762939
10.1289563,-15.1400003433228
10.1445813,-12.7799997329712
10.1602063,-10.4099998474121
10.1758313,-8.92000007629395
10.1914563,-8.68000030517578
10.2070813,-9.35999965667725
10.2227063,-10.0100002288818
10.2383313,-9.43000030517578
10.2539563,-6.75
10.2695813,-1.79999995231628
10.2852063,4.71999979019165
10.3008313,11.6899995803833
10.3164563,17.9699993133545
10.3320813,22.7900009155273
10.3477063,25.8999996185303
10.3633313,27.3899993896484
10.3789563,27.6000003814697
10.3945813,26.9300003051758
10.4102063,25.9099998474121
10.4258313,24.8799991607666
10.4414563,23.7800006866455
10.4570813,22.2299995422363
10.4727063,20.0100002288818
10.4883313,17.2299995422363
10.5039563,14.2399997711182
10.5195813,11.3100004196167
10.5352063,8.60999965667725
10.5508313,6.17999982833862
10.5664563,3.95000004768372
10.5820813,1.79999995231628
10.5977063,-0.490000009536743
10.6133313,-3.1800000667572
10.6289563,-6.40000009536743
10.6445813,-10.0200004577637
10.6602063,-13.6099996566772
10.6758313,-16.6900005340576
10.6914563,-19.0799999237061
10.7070813,-21.0
10.7227063,-22.7800006866455
10.7383313,-24.5799999237061
10.7539563,-26.3899993896484
10.7695813,-28.1299991607666
10.7852063,-29.6900005340576
10.8008313,-31.0200004577637
10.8164563,-32.1199989318848
10.8320813,-33.0
10.8477063,-33.6300010681152
10.8633313,-34.0299987792969
10.8789563,-34.25
10.8945813,-34.25
10.9102063,-33.9099998474121
10.9258313,-33.1100006103516
10.9414563,-31.8099994659424
10.9570813,-30.0699996948242
10.9727063,-27.9500007629395
10.9883313,-25.25
11.0039563,-21.5200004577637
11.0195813,-16.25
11.0352063,-9.22000026702881
11.0508313,-0.589999973773956
11.0664563,9.06999969482422
11.0820813,18.7199993133545
11.0977063,27.1299991607666
11.1133313,33.3499984741211
11.1289563,37.0
11.1445813,38.2599983215332
11.1602063,37.7099990844727
11.1758313,36.060001373291
11.1914563,33.8499984741211
11.2070813,31.3700008392334
11.2227063,28.7399997711182
11.2383313,26.1200008392334
11.2539563,23.6100006103516
11.2695813,21.2299995422363
11.2852063,18.9099998474121
11.3008313,16.6000003814697
11.3164563,14.289999961853
11.3320813,11.9499998092651
11.3477063,9.5
11.3633313,7.0
11.3789563,4.71000003814697
11.3945813,2.86999988555908
11.4102063,1.46000003814697
11.4258313,0.28999999165535
11.4414563,-0.839999973773956
11.4570813,-1.97000002861023
11.4727063,-3.07999992370605
11.4883313,-4.15000009536743
11.5039563,-5.15000009536743
11.5195813,-5.98000001907349
11.5352063,-6.59999990463257
