Time(s),Value(%)
665.0008137,-25.1000003814697
665.0164387,-24.0300006866455
665.0320637,-23.8500003814697
665.0476887,-24.2999992370605
665.0633137,-25.3099994659424
665.0789387,-26.8400001525879
665.0945637,-28.75
665.1101887,-30.8199996948242
665.1258137,-32.9700012207031
665.1414387,-35.2900009155273
665.1570637,-37.9900016784668
665.1726887,-41.1800003051758
665.1883137,-44.9099998474121
665.2039387,-49.3699989318848
665.2195637,-54.689998626709
665.2351887,-60.7700004577637
665.2508137,-67.1500015258789
665.2664387,-73.25
665.2820637,-78.6500015258789
665.2976887,-83.3300018310547
665.3133137,-87.3300018310547
665.3289387,-90.5100021362305
665.3445637,-92.5500030517578
665.3601887,-93.3000030517578
665.3758137,-92.9700012207031
665.3914387,-91.9400024414063
665.4070637,-90.5599975585938
665.4226887,-88.9199981689453
665.4383137,-86.9199981689453
665.4539387,-84.4800033569336
665.4695637,-81.5699996948242
665.4851887,-78.2099990844727
665.5008137,-74.4700012207031
665.5164387,-70.4599990844727
665.5320637,-66.3000030517578
665.5476887,-62.0999984741211
665.5633137,-57.8300018310547
665.5789387,-53.2999992370605
665.5945637,-48.3600006103516
665.6101887,-43.1100006103516
665.6258137,-37.8300018310547
665.6414387,-32.8400001525879
665.6570637,-28.2900009155273
665.6726887,-24.3199996948242
665.6883137,-21.5799999237061
665.7039387,-21.5200004577637
665.7195637,-25.4799995422363
665.7351887,-33.7000007629395
665.7508137,-45.4700012207031
665.7664387,-59.9599990844727
665.7820637,-76.5299987792969
665.7976887,-94.2799987792969
665.8133137,-111.51000213623
665.8289387,-126.019996643066
665.8445637,-136.779998779297
665.8601887,-145.089996337891
665.8758137,-153.300003051758
665.8914387,-162.429992675781
665.9070637,-171.710006713867
665.9226887,-179.809997558594
665.9383137,-185.990005493164
665.9539387,-190.130004882813
665.9695637,-191.860000610352
665.9851887,-189.889999389648
666.0008137,-182.919998168945
666.0164387,-170.960006713867
666.0320637,-155.470001220703
666.0476887,-138.449996948242
666.0633137,-121.5
666.0789387,-105.419998168945
666.0945637,-90.3600006103516
666.1101887,-76.0899963378906
666.1258137,-62.2099990844727
666.1414387,-48.3699989318848
666.1570637,-34.3699989318848
666.1726887,-20.2800006866455
666.1883137,-6.5
666.2039387,6.36999988555908
666.2195637,17.8999996185303
666.2351887,27.9599990844727
666.2508137,36.810001373291
666.2664387,44.9000015258789
666.2820637,52.5999984741211
666.2976887,60.1800003051758
666.3133137,67.8600006103516
666.3289387,75.870002746582
666.3445637,84.3600006103516
666.3601887,93.2399978637695
666.3758137,102.25
666.3914387,110.550003051758
666.4070637,115.639999389648
666.4226887,113.029998779297
666.4383137,98.5500030517578
666.4539387,71.8600006103516
666.4695637,35.1699981689453
666.4851887,-9.06999969482422
666.5008137,-59.0800018310547
666.5164387,-112.300003051758
666.5320637,-163.710006713867
666.5476887,-206.270004272461
666.5633137,-234.720001220703
666.5789387,-249.009994506836
666.5945637,-252.75
666.6101887,-249.089996337891
666.6258137,-239.259994506836
666.6414387,-223.919998168945
666.6570637,-204.419998168945
666.6726887,-182.929992675781
666.6883137,-161.970001220703
666.7039387,-143.779998779297
666.7195637,-129.619995117188
666.7351887,-119.389999389648
666.7508137,-112.279998779297
666.7664387,-107.680000305176
666.7820637,-105.339996337891
666.7976887,-104.610000610352
666.8133137,-103.51000213623
666.8289387,-98.7300033569336
666.8445637,-87.620002746582
666.8601887,-70.1699981689453
666.8758137,-48.5200004577637
666.8914387,-25.0300006866455
666.9070637,-1.0900000333786
666.9226887,22.7600002288818
666.9383137,46.2999992370605
666.9539387,69.3300018310547
666.9695637,91.8399963378906
666.9851887,114.089996337891
667.0008137,136.419998168945
667.0164387,158.860000610352
667.0320637,181.0
667.0476887,202.160003662109
667.0633137,221.75
667.0789387,239.529998779297
667.0945637,255.710006713867
667.1101887,270.760009765625
667.1258137,285.119995117188
667.1414387,298.890014648438
667.1570637,311.970001220703
667.1726887,324.190002441406
667.1883137,327.670013427734
667.2039387,327.670013427734
667.2195637,327.670013427734
667.2351887,327.670013427734
667.2508137,327.670013427734
667.2664387,327.670013427734
667.2820637,327.670013427734
667.2976887,327.670013427734
667.3133137,327.670013427734
667.3289387,327.670013427734
667.3445637,327.670013427734
667.3601887,327.670013427734
667.3758137,327.670013427734
667.3914387,327.670013427734
667.4070637,327.670013427734
667.4226887,327.670013427734
667.4383137,327.670013427734
667.4539387,327.670013427734
667.4695637,327.670013427734
667.4851887,327.670013427734
667.5008137,327.670013427734
667.5164387,327.670013427734
667.5320637,327.670013427734
667.5476887,327.670013427734
667.5633137,327.670013427734
667.5789387,327.670013427734
667.5945637,327.670013427734
667.6101887,327.670013427734
667.6258137,327.670013427734
667.6414387,327.670013427734
667.6570637,327.670013427734
667.6726887,327.670013427734
667.6883137,327.670013427734
667.7039387,325.559997558594
667.7195637,319.940002441406
667.7351887,313.700012207031
667.7508137,306.910003662109
667.7664387,299.510009765625
667.7820637,291.459991455078
667.7976887,282.910003662109
667.8133137,274.109985351563
667.8289387,265.329986572266
667.8445637,256.739990234375
667.8601887,248.419998168945
667.8758137,240.410003662109
667.8914387,232.880004882813
667.9070637,226.0
667.9226887,219.720001220703
667.9383137,213.570007324219
667.9539387,206.839996337891
667.9695637,199.100006103516
667.9851887,190.529998779297
668.0008137,181.690002441406
668.0164387,172.899993896484
668.0320637,164.059997558594
668.0476887,154.899993896484
668.0633137,145.270004272461
668.0789387,135.210006713867
668.0945637,124.809997558594
668.1101887,114.01000213623
668.1258137,102.730003356934
668.1414387,90.8399963378906
668.1570637,77.8000030517578
668.1726887,62.5200004577637
668.1883137,43.9700012207031
668.2039387,22.1399993896484
668.2195637,-1.83000004291534
668.2351887,-26.6800003051758
668.2508137,-52.7200012207031
668.2664387,-82.2699966430664
668.2820637,-117.410003662109
668.2976887,-157.25
668.3133137,-198.089996337891
668.3289387,-235.889999389648
668.3445637,-268.390014648438
668.3601887,-295.399993896484
668.3758137,-317.429992675781
668.3914387,-327.679992675781
668.4070637,-327.679992675781
668.4226887,-327.679992675781
668.4383137,-327.679992675781
668.4539387,-327.679992675781
668.4695637,-327.679992675781
668.4851887,-327.679992675781
668.5008137,-327.679992675781
668.5164387,-327.679992675781
668.5320637,-327.679992675781
668.5476887,-321.910003662109
668.5633137,-302.529998779297
668.5789387,-279.290008544922
668.5945637,-254.080001831055
668.6101887,-227.759994506836
668.6258137,-200.199996948242
668.6414387,-171.449996948242
668.6570637,-142.669998168945
668.6726887,-115.919998168945
668.6883137,-92.7900009155273
668.7039387,-73.2300033569336
668.7195637,-56.2999992370605
668.7351887,-41.6800003051758
668.7508137,-29.8899993896484
668.7664387,-21.3899993896484
668.7820637,-15.8699998855591
668.7976887,-12.4300003051758
668.8133137,-10.3199996948242
668.8289387,-9.4399995803833
668.8445637,-10.1599998474121
668.8601887,-12.5900001525879
668.8758137,-16.1800003051758
668.8914387,-19.7999992370605
668.9070637,-22.3600006103516
668.9226887,-23.4400005340576
668.9383137,-23.4099998474121
668.9539387,-23.1900005340576
668.9695637,-23.5699996948242
668.9851887,-24.8600006103516
669.0008137,-26.9599990844727
669.0164387,-29.8600006103516
669.0320637,-33.6300010681152
669.0476887,-38.25
669.0633137,-43.4700012207031
669.0789387,-48.9599990844727
669.0945637,-54.6500015258789
669.1101887,-60.9000015258789
669.1258137,-68.1800003051758
669.1414387,-76.5800018310547
669.1570637,-85.5999984741211
669.1726887,-94.3099975585938
669.1883137,-101.879997253418
669.2039387,-107.930000305176
669.2195637,-112.449996948242
669.2351887,-115.459999084473
669.2508137,-116.779998779297
669.2664387,-116.059997558594
669.2820637,-113.26000213623
669.2976887,-108.98999786377
669.3133137,-104.319999694824
669.3289387,-100.190002441406
669.3445637,-97.0299987792969
669.3601887,-94.6699981689453
669.3758137,-92.3399963378906
669.3914387,-88.8399963378906
669.4070637,-83.2200012207031
669.4226887,-75.120002746582
669.4383137,-64.3399963378906
669.4539387,-49.4799995422363
669.4695637,-29.3899993896484
669.4851887,-4.42999982833862
669.5008137,22.7000007629395
669.5164387,48.2200012207031
669.5320637,70.3199996948242
669.5476887,91.0
669.5633137,113.569999694824
669.5789387,138.539993286133
669.5945637,163.089996337891
669.6101887,183.690002441406
669.6258137,198.580001831055
669.6414387,208.610000610352
669.6570637,217.429992675781
669.6726887,230.460006713867
669.6883137,252.059997558594
669.7039387,282.980010986328
669.7195637,320.869995117188
669.7351887,327.670013427734
669.7508137,327.670013427734
669.7664387,327.670013427734
669.7820637,327.670013427734
669.7976887,327.670013427734
669.8133137,327.670013427734
669.8289387,327.670013427734
669.8445637,327.670013427734
669.8601887,327.670013427734
669.8758137,327.670013427734
669.8914387,311.760009765625
669.9070637,268.119995117188
669.9226887,226.279998779297
669.9383137,185.839996337891
669.9539387,146.460006713867
669.9695637,108.0
669.9851887,70.6600036621094
670.0008137,35.0800018310547
670.0164387,2.25999999046326
670.0320637,-26.9400005340576
670.0476887,-52.5400009155273
670.0633137,-75.5699996948242
670.0789387,-97.6999969482422
670.0945637,-120.25
670.1101887,-143.520004272461
670.1258137,-167.080001831055
670.1414387,-190.660003662109
670.1570637,-214.309997558594
670.1726887,-238.020004272461
670.1883137,-261.489990234375
670.2039387,-284.089996337891
670.2195637,-304.869995117188
670.2351887,-322.630004882813
670.2508137,-327.679992675781
670.2664387,-327.679992675781
670.2820637,-327.679992675781
670.2976887,-327.679992675781
670.3133137,-327.679992675781
670.3289387,-327.679992675781
670.3445637,-327.679992675781
670.3601887,-327.679992675781
670.3758137,-327.679992675781
670.3914387,-327.679992675781
670.4070637,-327.679992675781
670.4226887,-327.679992675781
670.4383137,-327.679992675781
670.4539387,-327.679992675781
670.4695637,-327.679992675781
670.4851887,-327.679992675781
670.5008137,-327.679992675781
670.5164387,-327.679992675781
670.5320637,-327.679992675781
670.5476887,-327.679992675781
670.5633137,-327.679992675781
670.5789387,-327.679992675781
670.5945637,-327.679992675781
670.6101887,-327.679992675781
670.6258137,-327.679992675781
670.6414387,-327.679992675781
670.6570637,-327.679992675781
670.6726887,-327.679992675781
670.6883137,-324.660003662109
670.7039387,-287.299987792969
670.7195637,-224.449996948242
670.7351887,-103.76000213623
670.7508137,106.470001220703
670.7664387,327.670013427734
670.7820637,327.670013427734
670.7976887,327.670013427734
670.8133137,327.670013427734
670.8289387,327.670013427734
670.8445637,327.670013427734
670.8601887,327.670013427734
670.8758137,327.670013427734
670.8914387,327.670013427734
670.9070637,327.670013427734
670.9226887,327.670013427734
670.9383137,327.670013427734
670.9539387,327.670013427734
670.9695637,327.670013427734
670.9851887,327.670013427734
671.0008137,327.670013427734
671.0164387,327.670013427734
671.0320637,327.670013427734
671.0476887,327.670013427734
671.0633137,327.670013427734
671.0789387,218.949996948242
671.0945637,-31.0100002288818
671.1101887,-292.040008544922
671.1258137,-327.679992675781
671.1414387,-327.679992675781
671.1570637,-327.679992675781
671.1726887,-327.679992675781
671.1883137,-327.679992675781
671.2039387,-327.679992675781
671.2195637,-327.679992675781
671.2351887,-327.679992675781
671.2508137,-327.679992675781
671.2664387,-327.679992675781
671.2820637,-327.679992675781
671.2976887,-327.679992675781
671.3133137,-327.679992675781
671.3289387,-327.679992675781
671.3445637,-327.679992675781
671.3601887,-327.679992675781
671.3758137,-327.679992675781
671.3914387,-327.679992675781
671.4070637,-327.679992675781
671.4226887,-327.679992675781
671.4383137,-327.679992675781
671.4539387,-327.679992675781
671.4695637,-327.679992675781
671.4851887,-327.679992675781
671.5008137,-327.679992675781
671.5164387,-327.679992675781
671.5320637,-327.679992675781
671.5476887,-327.679992675781
671.5633137,-327.679992675781
671.5789387,-327.679992675781
671.5945637,-327.679992675781
671.6101887,-327.679992675781
671.6258137,-327.679992675781
671.6414387,-327.679992675781
671.6570637,-327.679992675781
671.6726887,-327.679992675781
671.6883137,-327.679992675781
671.7039387,-327.679992675781
671.7195637,-327.679992675781
671.7351887,-327.679992675781
671.7508137,-327.679992675781
671.7664387,-327.679992675781
671.7820637,-327.679992675781
671.7976887,-327.679992675781
671.8133137,-327.679992675781
671.8289387,-327.679992675781
671.8445637,-327.679992675781
671.8601887,-327.679992675781
671.8758137,-327.679992675781
671.8914387,-327.679992675781
671.9070637,-327.679992675781
671.9226887,-327.679992675781
671.9383137,-327.679992675781
671.9539387,-327.679992675781
671.9695637,-310.329986572266
671.9851887,-247.660003662109
672.0008137,-187.0
672.0164387,-128.570007324219
672.0320637,-72.0
672.0476887,-16.4899997711182
672.0633137,38.6300010681152
672.0789387,93.5100021362305
672.0945637,147.710006713867
672.1101887,200.690002441406
672.1258137,252.070007324219
672.1414387,301.720001220703
672.1570637,327.670013427734
672.1726887,327.670013427734
672.1883137,327.670013427734
672.2039387,327.670013427734
672.2195637,327.670013427734
672.2351887,327.670013427734
672.2508137,327.670013427734
672.2664387,327.670013427734
672.2820637,327.670013427734
672.2976887,327.670013427734
672.3133137,327.670013427734
672.3289387,327.670013427734
672.3445637,327.670013427734
672.3601887,327.670013427734
672.3758137,327.670013427734
672.3914387,327.670013427734
672.4070637,327.670013427734
672.4226887,327.670013427734
672.4383137,327.670013427734
672.4539387,327.670013427734
672.4695637,327.670013427734
672.4851887,327.670013427734
672.5008137,327.670013427734
672.5164387,327.670013427734
672.5320637,327.670013427734
672.5476887,327.670013427734
672.5633137,327.670013427734
672.5789387,327.670013427734
672.5945637,327.670013427734
672.6101887,327.670013427734
672.6258137,327.670013427734
672.6414387,327.670013427734
672.6570637,327.670013427734
672.6726887,327.670013427734
672.6883137,327.670013427734
672.7039387,327.670013427734
672.7195637,327.670013427734
672.7351887,327.670013427734
672.7508137,327.670013427734
672.7664387,327.670013427734
672.7820637,327.670013427734
672.7976887,327.670013427734
672.8133137,327.670013427734
672.8289387,327.670013427734
672.8445637,327.670013427734
672.8601887,327.670013427734
672.8758137,327.670013427734
672.8914387,327.670013427734
672.9070637,327.670013427734
672.9226887,327.670013427734
672.9383137,327.670013427734
672.9539387,327.670013427734
672.9695637,327.670013427734
672.9851887,327.670013427734
673.0008137,327.670013427734
673.0164387,327.670013427734
673.0320637,327.670013427734
673.0476887,327.670013427734
673.0633137,327.670013427734
673.0789387,327.670013427734
673.0945637,327.670013427734
673.1101887,327.670013427734
673.1258137,327.670013427734
673.1414387,327.670013427734
673.1570637,327.670013427734
673.1726887,327.670013427734
673.1883137,327.670013427734
673.2039387,327.670013427734
673.2195637,327.670013427734
673.2351887,327.670013427734
673.2508137,327.670013427734
673.2664387,327.670013427734
673.2820637,327.670013427734
673.2976887,327.670013427734
673.3133137,327.670013427734
673.3289387,327.670013427734
673.3445637,327.670013427734
673.3601887,327.670013427734
673.3758137,327.670013427734
673.3914387,327.670013427734
673.4070637,327.670013427734
673.4226887,327.670013427734
673.4383137,327.670013427734
673.4539387,327.670013427734
673.4695637,327.670013427734
673.4851887,226.929992675781
673.5008137,71.4000015258789
673.5164387,-76.5599975585938
673.5320637,-218.059997558594
673.5476887,-327.679992675781
673.5633137,-327.679992675781
673.5789387,-327.679992675781
673.5945637,-327.679992675781
673.6101887,-327.679992675781
673.6258137,-327.679992675781
673.6414387,-327.679992675781
673.6570637,-327.679992675781
673.6726887,-327.679992675781
673.6883137,-327.679992675781
673.7039387,-327.679992675781
673.7195637,-327.679992675781
673.7351887,-327.679992675781
673.7508137,-327.679992675781
673.7664387,-327.679992675781
673.7820637,-327.679992675781
673.7976887,-327.679992675781
673.8133137,-327.679992675781
673.8289387,-327.679992675781
673.8445637,-327.679992675781
673.8601887,-327.679992675781
673.8758137,-327.679992675781
673.8914387,-327.679992675781
673.9070637,-327.679992675781
673.9226887,-327.679992675781
673.9383137,-327.679992675781
673.9539387,-327.679992675781
673.9695637,-327.679992675781
673.9851887,-327.679992675781
674.0008137,-327.679992675781
674.0164387,-327.679992675781
674.0320637,-327.679992675781
674.0476887,-327.679992675781
674.0633137,-327.679992675781
674.0789387,-327.679992675781
674.0945637,-327.679992675781
674.1101887,-327.679992675781
674.1258137,-327.679992675781
674.1414387,-327.679992675781
674.1570637,-327.679992675781
674.1726887,-327.679992675781
674.1883137,-327.679992675781
674.2039387,-327.679992675781
674.2195637,-327.679992675781
674.2351887,-327.679992675781
674.2508137,-327.679992675781
674.2664387,-327.679992675781
674.2820637,-327.679992675781
674.2976887,-327.679992675781
674.3133137,-327.679992675781
674.3289387,-327.679992675781
674.3445637,-327.679992675781
674.3601887,-327.679992675781
674.3758137,-327.679992675781
674.3914387,-327.679992675781
674.4070637,-327.679992675781
674.4226887,-327.679992675781
674.4383137,-327.679992675781
674.4539387,-327.679992675781
674.4695637,-327.679992675781
674.4851887,-327.679992675781
674.5008137,-327.679992675781
674.5164387,-327.679992675781
674.5320637,-327.679992675781
674.5476887,-327.679992675781
674.5633137,-327.679992675781
674.5789387,-327.679992675781
674.5945637,327.670013427734
674.6101887,327.670013427734
674.6258137,327.670013427734
674.6414387,327.670013427734
674.6570637,327.670013427734
674.6726887,327.670013427734
674.6883137,327.670013427734
674.7039387,327.670013427734
674.7195637,327.670013427734
674.7351887,327.670013427734
674.7508137,327.670013427734
674.7664387,327.670013427734
674.7820637,327.670013427734
674.7976887,327.670013427734
674.8133137,327.670013427734
674.8289387,327.670013427734
674.8445637,327.670013427734
674.8601887,327.670013427734
674.8758137,327.670013427734
674.8914387,327.670013427734
674.9070637,327.670013427734
674.9226887,327.670013427734
674.9383137,327.670013427734
674.9539387,327.670013427734
674.9695637,327.670013427734
674.9851887,327.670013427734
675.0008137,327.670013427734
675.0164387,327.670013427734
675.0320637,327.670013427734
675.0476887,327.670013427734
675.0633137,327.670013427734
675.0789387,327.670013427734
675.0945637,327.670013427734
675.1101887,327.670013427734
675.1258137,327.670013427734
675.1414387,327.670013427734
675.1570637,327.670013427734
675.1726887,327.670013427734
675.1883137,327.670013427734
675.2039387,327.670013427734
675.2195637,327.670013427734
675.2351887,327.670013427734
675.2508137,327.670013427734
675.2664387,327.670013427734
675.2820637,327.670013427734
675.2976887,327.670013427734
675.3133137,327.670013427734
675.3289387,327.670013427734
675.3445637,327.670013427734
675.3601887,327.670013427734
675.3758137,327.670013427734
675.3914387,327.670013427734
675.4070637,327.670013427734
675.4226887,327.670013427734
675.4383137,327.670013427734
675.4539387,327.670013427734
675.4695637,327.670013427734
675.4851887,327.670013427734
675.5008137,327.670013427734
675.5164387,327.670013427734
675.5320637,327.670013427734
675.5476887,327.670013427734
675.5633137,327.670013427734
675.5789387,327.670013427734
675.5945637,327.670013427734
675.6101887,327.670013427734
675.6258137,327.670013427734
675.6414387,327.670013427734
675.6570637,327.670013427734
