Time(s),Value(%)
400.0073503,18.3400001525879
400.0229753,10.8999996185303
400.0386003,2.48000001907349
400.0542253,-5.53999996185303
400.0698503,-11.7799997329712
400.0854753,-15.2799997329712
400.1011003,-16.1299991607666
400.1167253,-15.5
400.1323503,-14.9499998092651
400.1479753,-15.6899995803833
400.1636003,-18.1700000762939
400.1792253,-21.9599990844727
400.1948503,-26.0300006866455
400.2104753,-29.2999992370605
400.2261003,-31.2399997711182
400.2417253,-31.9200000762939
400.2573503,-31.7800006866455
400.2729753,-31.2900009155273
400.2886003,-30.7000007629395
400.3042253,-29.9400005340576
400.3198503,-28.8899993896484
400.3354753,-27.6900005340576
400.3511003,-26.6100006103516
400.3667253,-25.6700000762939
400.3823503,-24.4400005340576
400.3979753,-22.3700008392334
400.4136003,-19.2700004577637
400.4292253,-15.4499998092651
400.4448503,-11.6899995803833
400.4604753,-9.06999969482422
400.4761003,-8.48999977111816
400.4917253,-9.9399995803833
400.5073503,-12.2200002670288
400.5229753,-13.4399995803833
400.5386003,-11.6899995803833
400.5542253,-5.78999996185303
400.5698503,4.11999988555908
400.5854753,16.6599998474121
400.6011003,29.4200000762939
400.6167253,39.5900001525879
400.6323503,45.0999984741211
400.6479753,45.6100006103516
400.6636003,42.7700004577637
400.6792253,39.2400016784668
400.6948503,36.9900016784668
400.7104753,36.1199989318848
400.7261003,35.2200012207031
400.7417253,32.6699981689453
400.7573503,27.75
400.7729753,20.8500003814697
400.7886003,13.0200004577637
400.8042253,5.42000007629395
400.8198503,-1.03999996185303
400.8354753,-5.80999994277954
400.8511003,-8.69999980926514
400.8667253,-10.0299997329712
400.8823503,-10.6300001144409
400.8979753,-11.4099998474121
400.9136003,-13.039999961853
400.9292253,-15.5799999237061
400.9448503,-18.4699993133545
400.9604753,-20.8199996948242
400.9761003,-22.1299991607666
400.9917253,-22.5900001525879
401.0073503,-22.7700004577637
401.0229753,-23.0400009155273
401.0386003,-23.25
401.0542253,-22.8899993896484
401.0698503,-21.6900005340576
401.0854753,-20.0
401.1011003,-18.6900005340576
401.1167253,-18.4799995422363
401.1323503,-19.3500003814697
401.1479753,-20.6499996185303
401.1636003,-21.7399997711182
401.1792253,-22.3899993896484
401.1948503,-22.6499996185303
401.2104753,-22.4699993133545
401.2261003,-21.6900005340576
401.2417253,-20.4500007629395
401.2573503,-19.1499996185303
401.2729753,-18.2900009155273
401.2886003,-18.0
401.3042253,-18.0400009155273
401.3198503,-18.1000003814697
401.3354753,-18.0400009155273
401.3511003,-17.5100002288818
401.3667253,-15.2700004577637
401.3823503,-9.44999980926514
401.3979753,1.19000005722046
401.4136003,15.8999996185303
401.4292253,31.7999992370605
401.4448503,45.1100006103516
401.4604753,52.9000015258789
401.4761003,54.4000015258789
401.4917253,51.25
401.5073503,46.6199989318848
401.5229753,43.2299995422363
401.5386003,41.8800010681152
401.5542253,41.4900016784668
401.5698503,40.3300018310547
401.5854753,37.1800003051758
401.6011003,31.7199993133545
401.6167253,24.3899993896484
401.6323503,16.2399997711182
401.6479753,8.56999969482422
401.6636003,2.5699999332428
401.6792253,-1.08000004291534
401.6948503,-2.44000005722046
401.7104753,-2.15000009536743
401.7261003,-1.19000005722046
401.7417253,-0.589999973773956
401.7573503,-1.08000004291534
401.7729753,-2.90000009536743
401.7886003,-5.82999992370605
401.8042253,-9.55000019073486
401.8198503,-13.7200002670288
401.8354753,-17.8500003814697
401.8511003,-21.3700008392334
401.8667253,-23.8099994659424
401.8823503,-24.9599990844727
401.8979753,-24.9799995422363
401.9136003,-24.5499992370605
401.9292253,-24.4799995422363
401.9448503,-24.9799995422363
401.9604753,-25.6100006103516
401.9761003,-25.7700004577637
401.9917253,-25.1000003814697
402.0073503,-23.6700000762939
402.0229753,-21.8700008392334
402.0386003,-20.1900005340576
402.0542253,-19.0100002288818
402.0698503,-18.2600002288818
402.0854753,-17.4500007629395
402.1011003,-16.0100002288818
402.1167253,-13.6499996185303
402.1323503,-10.3800001144409
402.1479753,-6.40999984741211
402.1636003,-2.29999995231628
402.1792253,1.17999994754791
402.1948503,3.57999992370605
402.2104753,5.3899998664856
402.2261003,8.01000022888184
402.2417253,12.8400001525879
402.2573503,20.3099994659424
402.2729753,29.5100002288818
402.2886003,38.7599983215332
402.3042253,46.2000007629395
402.3198503,50.3199996948242
402.3354753,50.5800018310547
402.3511003,47.6500015258789
402.3667253,43.0299987792969
402.3823503,38.25
402.3979753,34.2200012207031
402.4136003,31.0699996948242
402.4292253,28.3099994659424
402.4448503,25.1900005340576
402.4604753,21.0799999237061
402.4761003,15.7200002670288
402.4917253,9.5600004196167
402.5073503,3.75999999046326
402.5229753,-0.400000005960464
402.5386003,-2.29999995231628
402.5542253,-2.35999989509583
402.5698503,-1.92999994754791
402.5854753,-2.6800000667572
402.6011003,-5.67999982833862
402.6167253,-10.6499996185303
402.6323503,-16.1499996185303
402.6479753,-20.7399997711182
402.6636003,-23.6900005340576
402.6792253,-25.0
402.6948503,-24.9599990844727
402.7104753,-23.9400005340576
402.7261003,-22.4500007629395
402.7417253,-20.8999996185303
402.7573503,-19.3400001525879
402.7729753,-17.5100002288818
402.7886003,-15.289999961853
402.8042253,-12.8400001525879
402.8198503,-10.75
402.8354753,-9.88000011444092
402.8511003,-11.1499996185303
402.8667253,-14.9899997711182
402.8823503,-20.7199993133545
402.8979753,-26.4400005340576
402.9136003,-29.8799991607666
402.9292253,-29.4599990844727
402.9448503,-25.0
402.9604753,-17.7399997711182
402.9761003,-9.86999988555908
402.9917253,-3.58999991416931
403.0073503,0.0299999993294477
403.0229753,1.79999995231628
403.0386003,4.03000020980835
403.0542253,9.11999988555908
403.0698503,17.9799995422363
403.0854753,29.3799991607666
403.1011003,40.6599998474121
403.1167253,49.0499992370605
403.1323503,52.8800010681152
403.1479753,52.0400009155273
403.1636003,47.75
403.1792253,41.9300003051758
403.1948503,36.5299987792969
403.2104753,32.6199989318848
403.2261003,29.9200000762939
403.2417253,27.0900001525879
403.2573503,22.7700004577637
403.2729753,16.6000003814697
403.2886003,9.26000022888184
403.3042253,1.73000001907349
403.3198503,-5.32999992370605
403.3354753,-11.539999961853
403.3511003,-16.3999996185303
403.3667253,-19.3199996948242
403.3823503,-19.9099998474121
403.3979753,-18.4400005340576
403.4136003,-16.0699996948242
403.4292253,-14.3699998855591
403.4448503,-14.4399995803833
403.4604753,-16.5599994659424
403.4761003,-20.2099990844727
403.4917253,-24.4400005340576
403.5073503,-28.1200008392334
403.5229753,-30.2000007629395
403.5386003,-29.9099998474121
403.5542253,-27.1700000762939
403.5698503,-22.8299999237061
403.5854753,-18.5100002288818
403.6011003,-15.8999996185303
403.6167253,-15.789999961853
403.6323503,-17.6100006103516
403.6479753,-19.8899993896484
403.6636003,-21.2999992370605
403.6792253,-21.4799995422363
403.6948503,-20.7099990844727
403.7104753,-19.2900009155273
403.7261003,-17.3600006103516
403.7417253,-15.0299997329712
403.7573503,-12.3500003814697
403.7729753,-9.59000015258789
403.7886003,-7.3899998664856
403.8042253,-6.36999988555908
403.8198503,-6.19999980926514
403.8354753,-5.19999980926514
403.8511003,-1.22000002861023
403.8667253,6.88000011444092
403.8823503,18.5
403.8979753,31.4699993133545
403.9136003,42.9900016784668
403.9292253,50.6399993896484
403.9448503,53.2299995422363
403.9604753,51.0900001525879
403.9761003,45.7599983215332
403.9917253,39.5499992370605
404.0073503,34.7400016784668
404.0229753,32.3499984741211
404.0386003,31.4799995422363
404.0542253,30.0499992370605
404.0698503,26.4300003051758
404.0854753,20.3700008392334
404.1011003,12.6800003051758
404.1167253,4.46999979019165
404.1323503,-3.27999997138977
404.1479753,-9.72999954223633
404.1636003,-14.039999961853
404.1792253,-15.6800003051758
404.1948503,-14.9499998092651
404.2104753,-13.0299997329712
404.2261003,-11.3800001144409
404.2417253,-11.1300001144409
404.2573503,-12.5200004577637
404.2729753,-15.0
404.2886003,-17.5200004577637
404.3042253,-19.0900001525879
404.3198503,-19.2600002288818
404.3354753,-18.3600006103516
404.3511003,-17.3700008392334
404.3667253,-17.2600002288818
404.3823503,-18.1700000762939
404.3979753,-19.3600006103516
404.4136003,-20.0400009155273
404.4292253,-20.1200008392334
404.4448503,-20.1900005340576
404.4604753,-20.7700004577637
404.4761003,-21.7999992370605
404.4917253,-22.5799999237061
404.5073503,-22.3700008392334
404.5229753,-20.9500007629395
404.5386003,-18.7800006866455
404.5542253,-16.5599994659424
404.5698503,-14.7700004577637
404.5854753,-13.5
404.6011003,-12.4700002670288
404.6167253,-11.1700000762939
404.6323503,-8.94999980926514
404.6479753,-4.94999980926514
404.6636003,1.82000005245209
404.6792253,11.7200002670288
404.6948503,23.6499996185303
404.7104753,35.1800003051758
404.7261003,43.7299995422363
404.7417253,47.8499984741211
404.7573503,47.7799987792969
404.7729753,44.9900016784668
404.7886003,41.1800003051758
404.8042253,37.6399993896484
404.8198503,35.0400009155273
404.8354753,33.189998626709
404.8511003,31.2099990844727
404.8667253,28.1399993896484
404.8823503,23.3799991607666
404.8979753,16.8799991607666
404.9136003,9.11999988555908
404.9292253,1.12000000476837
404.9448503,-5.84000015258789
404.9604753,-10.6700000762939
404.9761003,-12.9200000762939
404.9917253,-13.0500001907349
405.0073503,-12.0
405.0229753,-10.6599998474121
405.0386003,-9.69999980926514
405.0542253,-9.64000034332275
405.0698503,-10.9399995803833
405.0854753,-13.710000038147
405.1011003,-17.4699993133545
405.1167253,-21.2399997711182
405.1323503,-23.9099998474121
405.1479753,-24.6499996185303
405.1636003,-23.4500007629395
405.1792253,-21.4099998474121
405.1948503,-20.1000003814697
405.2104753,-20.3600006103516
405.2261003,-21.6499996185303
405.2417253,-22.75
405.2573503,-22.8299999237061
405.2729753,-21.8299999237061
405.2886003,-20.2199993133545
405.3042253,-18.4599990844727
405.3198503,-16.7600002288818
405.3354753,-15.1099996566772
405.3511003,-13.539999961853
405.3667253,-12.1599998474121
405.3823503,-11.1599998474121
405.3979753,-10.7799997329712
405.4136003,-11.1899995803833
405.4292253,-11.9300003051758
405.4448503,-11.2700004577637
405.4604753,-6.80999994277954
405.4761003,2.67000007629395
405.4917253,15.8800001144409
405.5073503,29.4799995422363
405.5229753,39.8600006103516
405.5386003,44.9199981689453
405.5542253,44.9099998474121
405.5698503,42.0499992370605
405.5854753,39.1300010681152
405.6011003,37.810001373291
405.6167253,37.7299995422363
405.6323503,37.1699981689453
405.6479753,34.3800010681152
405.6636003,28.4899997711182
405.6792253,19.8799991607666
405.6948503,9.98999977111816
405.7104753,0.889999985694885
405.7261003,-5.53000020980835
405.7417253,-8.63000011444092
405.7573503,-9.19999980926514
405.7729753,-8.60999965667725
405.7886003,-7.80999994277954
405.8042253,-7.1399998664856
405.8198503,-6.82000017166138
405.8354753,-7.25
405.8511003,-8.96000003814697
405.8667253,-12.1499996185303
405.8823503,-16.4200000762939
405.8979753,-20.8099994659424
405.9136003,-24.25
405.9292253,-26.0100002288818
405.9448503,-26.0100002288818
405.9604753,-24.8400001525879
405.9761003,-23.2800006866455
405.9917253,-21.7900009155273
406.0073503,-20.3500003814697
406.0229753,-18.9300003051758
406.0386003,-17.6800003051758
406.0542253,-16.7999992370605
406.0698503,-16.2900009155273
406.0854753,-15.9700002670288
406.1011003,-15.5900001525879
406.1167253,-15.039999961853
406.1323503,-14.4099998474121
406.1479753,-13.9499998092651
406.1636003,-13.7799997329712
406.1792253,-13.7600002288818
406.1948503,-13.5100002288818
406.2104753,-12.25
406.2261003,-8.73999977111816
406.2417253,-1.79999995231628
406.2573503,8.78999996185303
406.2729753,21.9699993133545
406.2886003,35.5299987792969
406.3042253,46.9599990844727
406.3198503,54.3800010681152
406.3354753,57.2000007629395
406.3511003,56.1300010681152
406.3667253,52.5200004577637
406.3823503,47.6300010681152
406.3979753,42.3300018310547
406.4136003,37.310001373291
406.4292253,33.1399993896484
406.4448503,29.9300003051758
406.4604753,27.2600002288818
406.4761003,24.6100006103516
406.4917253,21.6499996185303
406.5073503,18.1900005340576
406.5229753,14.0799999237061
406.5386003,9.46000003814697
406.5542253,4.8899998664856
406.5698503,0.970000028610229
406.5854753,-2.15000009536743
406.6011003,-4.96999979019165
406.6167253,-8.21000003814697
406.6323503,-12.1899995803833
406.6479753,-16.6200008392334
406.6636003,-20.8999996185303
406.6792253,-24.4799995422363
406.6948503,-27.1100006103516
406.7104753,-28.9200000762939
406.7261003,-30.0599994659424
406.7417253,-30.4200000762939
406.7573503,-29.8700008392334
406.7729753,-28.6299991607666
406.7886003,-27.0599994659424
406.8042253,-25.3700008392334
406.8198503,-23.6499996185303
406.8354753,-22.2299995422363
406.8511003,-21.4599990844727
406.8667253,-21.4799995422363
406.8823503,-22.0300006866455
406.8979753,-22.5200004577637
406.9136003,-22.1299991607666
406.9292253,-20.4400005340576
406.9448503,-17.9500007629395
406.9604753,-15.8999996185303
406.9761003,-15.0900001525879
406.9917253,-15.1499996185303
407.0073503,-14.8199996948242
407.0229753,-12.8900003433228
407.0386003,-8.71000003814697
407.0542253,-1.9099999666214
407.0698503,7.63000011444092
407.0854753,19.5200004577637
407.1011003,32.3499984741211
407.1167253,43.8699989318848
407.1323503,51.7799987792969
407.1479753,54.7599983215332
407.1636003,53.0
407.1792253,48.1199989318848
407.1948503,42.3199996948242
407.2104753,37.3800010681152
407.2261003,33.9199981689453
407.2417253,31.3899993896484
407.2573503,28.7399997711182
407.2729753,25.1299991607666
407.2886003,20.2000007629395
407.3042253,14.0600004196167
407.3198503,7.30000019073486
407.3354753,0.959999978542328
407.3511003,-3.89000010490417
407.3667253,-6.88000011444092
407.3823503,-8.40999984741211
407.3979753,-9.06999969482422
407.4136003,-9.13000011444092
407.4292253,-8.65999984741211
407.4448503,-7.96000003814697
407.4604753,-7.65999984741211
407.4761003,-8.43000030517578
407.4917253,-10.6000003814697
407.5073503,-14.0900001525879
407.5229753,-18.3199996948242
407.5386003,-22.2900009155273
407.5542253,-25.0400009155273
407.5698503,-26.1299991607666
407.5854753,-25.7999992370605
407.6011003,-24.8199996948242
407.6167253,-24.1100006103516
407.6323503,-24.2199993133545
407.6479753,-24.9699993133545
407.6636003,-25.7999992370605
407.6792253,-26.2999992370605
407.6948503,-26.5200004577637
407.7104753,-26.6499996185303
407.7261003,-26.5799999237061
407.7417253,-25.9099998474121
407.7573503,-24.4899997711182
407.7729753,-22.5400009155273
407.7886003,-20.4400005340576
407.8042253,-18.6299991607666
407.8198503,-17.5
407.8354753,-16.8999996185303
407.8511003,-15.9200000762939
407.8667253,-12.8599996566772
407.8823503,-5.78000020980835
407.8979753,6.19000005722046
407.9136003,21.8099994659424
407.9292253,37.9099998474121
407.9448503,50.9199981689453
407.9604753,58.1699981689453
407.9761003,58.810001373291
407.9917253,54.0299987792969
408.0073503,46.6800003051758
408.0229753,39.7400016784668
408.0386003,34.9199981689453
408.0542253,32.2700004577637
408.0698503,30.8700008392334
408.0854753,29.3299999237061
408.1011003,26.3600006103516
408.1167253,21.1499996185303
408.1323503,13.8699998855591
408.1479753,5.76999998092651
408.1636003,-1.44000005722046
408.1792253,-6.48000001907349
408.1948503,-9.03999996185303
408.2104753,-9.61999988555908
408.2261003,-9.0600004196167
408.2417253,-8.32999992370605
408.2573503,-8.39999961853027
408.2729753,-9.72999954223633
408.2886003,-11.8100004196167
408.3042253,-13.4700002670288
408.3198503,-13.6800003051758
408.3354753,-12.3500003814697
408.3511003,-10.4200000762939
408.3667253,-9.35000038146973
408.3823503,-10.0900001525879
408.3979753,-12.5600004196167
408.4136003,-15.7200002670288
408.4292253,-18.1200008392334
408.4448503,-18.9400005340576
408.4604753,-18.2999992370605
408.4761003,-16.9300003051758
408.4917253,-15.6199998855591
408.5073503,-15.0200004577637
408.5229753,-15.6000003814697
408.5386003,-17.3600006103516
408.5542253,-19.8199996948242
408.5698503,-22.2800006866455
408.5854753,-24.0100002288818
408.6011003,-24.25
408.6167253,-22.4300003051758
408.6323503,-18.3899993896484
408.6479753,-12.3100004196167
408.6636003,-4.36999988555908
408.6792253,5.30000019073486
408.6948503,16.3899993896484
408.7104753,28.0100002288818
408.7261003,38.7000007629395
408.7417253,46.6300010681152
408.7573503,50.3300018310547
408.7729753,49.3699989318848
408.7886003,44.560001373291
408.8042253,37.4300003051758
408.8198503,29.6000003814697
408.8354753,22.5400009155273
408.8511003,17.4899997711182
408.8667253,14.8800001144409
408.8823503,14.1400003433228
408.8979753,13.8699998855591
408.9136003,12.5500001907349
408.9292253,9.35000038146973
408.9448503,4.46000003814697
408.9604753,-1.16999995708466
408.9761003,-6.44999980926514
408.9917253,-10.5600004196167
409.0073503,-12.9700002670288
409.0229753,-13.5900001525879
409.0386003,-12.789999961853
409.0542253,-11.3599996566772
409.0698503,-10.1300001144409
409.0854753,-9.68000030517578
409.1011003,-10.289999961853
409.1167253,-11.8900003433228
409.1323503,-14.0799999237061
409.1479753,-16.1100006103516
409.1636003,-17.25
409.1792253,-17.2600002288818
409.1948503,-16.5200004577637
409.2104753,-15.6599998474121
409.2261003,-15.1800003051758
409.2417253,-15.210000038147
409.2573503,-15.6700000762939
409.2729753,-16.5200004577637
409.2886003,-17.8600006103516
409.3042253,-19.6499996185303
409.3198503,-21.5799999237061
409.3354753,-23.1800003051758
409.3511003,-23.9899997711182
409.3667253,-23.7099990844727
409.3823503,-22.3600006103516
409.3979753,-20.2299995422363
409.4136003,-17.5799999237061
409.4292253,-14.2600002288818
409.4448503,-9.80000019073486
409.4604753,-3.74000000953674
409.4761003,4.05000019073486
409.4917253,13.3400001525879
409.5073503,23.3899993896484
409.5229753,33.0499992370605
409.5386003,41.0800018310547
409.5542253,46.5900001525879
409.5698503,49.2599983215332
409.5854753,49.2299995422363
409.6011003,46.9900016784668
409.6167253,43.310001373291
409.6323503,39.1599998474121
409.6479753,35.2400016784668
409.6636003,31.4799995422363
409.6792253,27.25
409.6948503,22.0499992370605
409.7104753,15.8900003433228
409.7261003,9.17000007629395
409.7417253,2.6800000667572
409.7573503,-2.52999997138977
409.7729753,-5.67999982833862
409.7886003,-6.69999980926514
409.8042253,-6.30000019073486
409.8198503,-5.65000009536743
409.8354753,-5.78000020980835
409.8511003,-7.15000009536743
409.8667253,-9.6899995803833
409.8823503,-13.1800003051758
409.8979753,-17.3099994659424
409.9136003,-21.6599998474121
409.9292253,-25.75
409.9448503,-29.0
409.9604753,-30.9899997711182
409.9761003,-31.5599994659424
409.9917253,-30.7399997711182
410.0073503,-28.8700008392334
410.0229753,-26.6499996185303
410.0386003,-24.8999996185303
410.0542253,-24.0799999237061
410.0698503,-24.1800003051758
410.0854753,-24.9500007629395
410.1011003,-26.2000007629395
410.1167253,-27.5499992370605
410.1323503,-28.4099998474121
410.1479753,-28.1399993896484
410.1636003,-26.2600002288818
410.1792253,-22.7800006866455
410.1948503,-18.2700004577637
410.2104753,-13.5799999237061
410.2261003,-9.17000007629395
410.2417253,-4.6399998664856
410.2573503,1.00999999046326
410.2729753,8.64999961853027
410.2886003,18.1800003051758
410.3042253,28.1900005340576
410.3198503,36.4500007629395
410.3354753,41.1399993896484
410.3511003,41.9500007629395
410.3667253,40.0800018310547
410.3823503,37.3600006103516
410.3979753,35.310001373291
410.4136003,34.5
410.4292253,34.2999992370605
410.4448503,33.4099998474121
410.4604753,30.8299999237061
410.4761003,26.4799995422363
410.4917253,20.9899997711182
410.5073503,14.9499998092651
410.5229753,8.61999988555908
410.5386003,2.13000011444092
410.5542253,-4.13000011444092
410.5698503,-9.53999996185303
410.5854753,-13.4799995422363
410.6011003,-15.5799999237061
410.6167253,-15.789999961853
410.6323503,-14.2700004577637
410.6479753,-11.6199998855591
410.6636003,-8.96000003814697
410.6792253,-7.57000017166138
410.6948503,-8.21000003814697
