Time(s),Value(%)
258.0034025,-62.6100006103516
258.0190275,-70.3300018310547
258.0346525,-78.2900009155273
258.0502775,-85.0699996948242
258.0659025,-89.8000030517578
258.0815275,-92.2799987792969
258.0971525,-92.7399978637695
258.1127775,-91.6399993896484
258.1284025,-89.4800033569336
258.1440275,-86.7099990844727
258.1596525,-83.9499969482422
258.1752775,-82.0599975585938
258.1909025,-81.7399978637695
258.2065275,-82.9899978637695
258.2221525,-84.7300033569336
258.2377775,-84.9700012207031
258.2534025,-82.0100021362305
258.2690275,-75.6900024414063
258.2846525,-67.5299987792969
258.3002775,-59.560001373291
258.3159025,-53.1100006103516
258.3315275,-48.4900016784668
258.3471525,-45.439998626709
258.3627775,-43.5400009155273
258.3784025,-42.2000007629395
258.3940275,-40.7700004577637
258.4096525,-38.7400016784668
258.4252775,-35.3400001525879
258.4409025,-28.2700004577637
258.4565275,-12.3100004196167
258.4721525,19.4400005340576
258.4877775,70.4199981689453
258.5034025,135.0
258.5190275,198.639999389648
258.5346525,244.710006713867
258.5502775,262.899993896484
258.5659025,253.460006713867
258.5815275,225.399993896484
258.5971525,190.75
258.6127775,159.270004272461
258.6284025,135.529998779297
258.6440275,119.199996948242
258.6596525,106.980003356934
258.6752775,94.6999969482422
258.6909025,78.9599990844727
258.7065275,58.3300018310547
258.7221525,33.939998626709
258.7377775,8.97000026702881
258.7534025,-13.1199998855591
258.7690275,-30.5100002288818
258.7846525,-43.3800010681152
258.8002775,-53.0900001525879
258.8159025,-61.0699996948242
258.8315275,-68.3899993896484
258.8471525,-75.75
258.8627775,-83.2900009155273
258.8784025,-90.5999984741211
258.8940275,-96.879997253418
258.9096525,-101.26000213623
258.9252775,-103.23999786377
258.9409025,-103.029998779297
258.9565275,-101.330001831055
258.9721525,-98.9100036621094
258.9877775,-96.5199966430664
259.0034025,-94.6399993896484
259.0190275,-93.1100006103516
259.0346525,-91.1900024414063
259.0502775,-88.2900009155273
259.0659025,-84.5999984741211
259.0815275,-80.7799987792969
259.0971525,-77.2699966430664
259.1127775,-74.0500030517578
259.1284025,-71.0100021362305
259.1440275,-68.2699966430664
259.1596525,-66.0
259.1752775,-64.0100021362305
259.1909025,-61.6599998474121
259.2065275,-58.3800010681152
259.2221525,-54.189998626709
259.2377775,-49.4700012207031
259.2534025,-44.4700012207031
259.2690275,-38.7200012207031
259.2846525,-29.6700000762939
259.3002775,-11.8599996566772
259.3159025,21.1100006103516
259.3315275,71.1600036621094
259.3471525,131.119995117188
259.3627775,186.330001831055
259.3784025,221.990005493164
259.3940275,230.660003662109
259.4096525,214.869995117188
259.4252775,184.399993896484
259.4409025,150.889999389648
259.4565275,123.050003051758
259.4721525,104.040000915527
259.4877775,91.8600006103516
259.5034025,81.7699966430664
259.5190275,69.120002746582
259.5346525,51.4700012207031
259.5502775,29.5
259.5659025,6.21000003814697
259.5815275,-14.6400003433228
259.5971525,-30.1900005340576
259.6127775,-39.2999992370605
259.6284025,-42.8199996948242
259.6440275,-43.0400009155273
259.6596525,-42.7900009155273
259.6752775,-44.4500007629395
259.6909025,-49.3300018310547
259.7065275,-57.3199996948242
259.7221525,-66.7900009155273
259.7377775,-75.379997253418
259.7534025,-81.2799987792969
259.7690275,-84.1999969482422
259.7846525,-85.0299987792969
259.8002775,-84.5199966430664
259.8159025,-82.6500015258789
259.8315275,-79.1399993896484
259.8471525,-74.25
259.8627775,-68.870002746582
259.8784025,-63.8199996948242
259.8940275,-59.2999992370605
259.9096525,-55.0999984741211
259.9252775,-51.0800018310547
259.9409025,-47.3699989318848
259.9565275,-44.2599983215332
259.9721525,-42.0400009155273
259.9877775,-40.75
260.0034025,-40.1100006103516
260.0190275,-39.4700012207031
260.0346525,-38.1199989318848
260.0502775,-35.7200012207031
260.0659025,-32.25
260.0815275,-27.4500007629395
260.0971525,-19.5499992370605
260.1127775,-4.09999990463257
260.1284025,24.8500003814697
260.1440275,70.0599975585938
260.1596525,126.199996948242
260.1752775,180.210006713867
260.1909025,217.320007324219
260.2065275,228.410003662109
260.2221525,213.820007324219
260.2377775,182.100006103516
260.2534025,145.119995117188
260.2690275,112.940002441406
260.2846525,90.7099990844727
260.3002775,78.129997253418
260.3159025,70.7600021362305
260.3315275,62.6300010681152
260.3471525,49.439998626709
260.3627775,30.8400001525879
260.3784025,10.1700000762939
260.3940275,-8.0
260.4096525,-20.6299991607666
260.4252775,-27.5599994659424
260.4409025,-31.1299991607666
260.4565275,-34.4199981689453
260.4721525,-39.4099998474121
260.4877775,-46.3400001525879
260.5034025,-54.1699981689453
260.5190275,-61.5499992370605
260.5346525,-67.5699996948242
260.5502775,-71.9499969482422
260.5659025,-74.7300033569336
260.5815275,-75.9700012207031
260.5971525,-75.7799987792969
260.6127775,-74.5599975585938
260.6284025,-72.9100036621094
260.6440275,-70.9599990844727
260.6596525,-68.3199996948242
260.6752775,-64.5699996948242
260.6909025,-59.8499984741211
260.7065275,-55.0200004577637
260.7221525,-51.2200012207031
260.7377775,-49.0
260.7534025,-47.9000015258789
260.7690275,-46.9700012207031
260.7846525,-45.6599998474121
260.8002775,-44.0299987792969
260.8159025,-42.3400001525879
260.8315275,-40.5900001525879
260.8471525,-38.4900016784668
260.8627775,-35.5
260.8784025,-30.7299995422363
260.8940275,-22.1499996185303
260.9096525,-5.59999990463257
260.9252775,23.9799995422363
260.9409025,68.3399963378906
260.9565275,121.73999786377
260.9721525,171.839996337891
260.9877775,205.699996948242
261.0034025,216.440002441406
261.0190275,205.679992675781
261.0346525,181.460006713867
261.0502775,153.669998168945
261.0659025,129.869995117188
261.0815275,113.099998474121
261.0971525,102.160003662109
261.1127775,93.4100036621094
261.1284025,82.7699966430664
261.1440275,67.2600021362305
261.1596525,45.9900016784668
261.1752775,20.9899997711182
261.1909025,-3.25999999046326
261.2065275,-21.9599990844727
261.2221525,-32.7200012207031
261.2377775,-36.8199996948242
261.2534025,-37.9700012207031
261.2690275,-39.8699989318848
261.2846525,-44.5900001525879
261.3002775,-52.310001373291
261.3159025,-61.9900016784668
261.3315275,-71.9000015258789
261.3471525,-80.5299987792969
261.3627775,-87.1600036621094
261.3784025,-91.9800033569336
261.3940275,-95.5199966430664
261.4096525,-98.0299987792969
261.4252775,-99.25
261.4409025,-98.6699981689453
261.4565275,-96.0699996948242
261.4721525,-91.7600021362305
261.4877775,-86.5500030517578
261.5034025,-81.5100021362305
261.5190275,-77.4100036621094
261.5346525,-74.4000015258789
261.5502775,-72.1500015258789
261.5659025,-70.3499984741211
261.5815275,-69.0299987792969
261.5971525,-68.25
261.6127775,-67.6900024414063
261.6284025,-66.6500015258789
261.6440275,-64.3199996948242
261.6596525,-59.7200012207031
261.6752775,-51.2000007629395
261.6909025,-35.4099998474121
261.7065275,-7.76999998092651
261.7221525,34.5900001525879
261.7377775,88.6699981689453
261.7534025,144.309997558594
261.7690275,188.149993896484
261.7846525,210.199996948242
261.8002775,208.5
261.8159025,188.990005493164
261.8315275,161.720001220703
261.8471525,136.119995117188
261.8627775,117.819999694824
261.8784025,107.860000610352
261.8940275,103.959999084473
261.9096525,102.029998779297
261.9252775,97.2900009155273
261.9409025,85.9199981689453
261.9565275,67.0100021362305
261.9721525,43.2000007629395
261.9877775,19.1499996185303
262.0034025,-1.19000005722046
262.0190275,-16.2299995422363
262.0346525,-26.5499992370605
262.0502775,-34.0
262.0659025,-40.7400016784668
262.0815275,-48.25
262.0971525,-56.6300010681152
262.1127775,-64.9400024414063
262.1284025,-72.1699981689453
262.1440275,-78.0299987792969
262.1596525,-82.6800003051758
262.1752775,-86.3000030517578
262.1909025,-88.9300003051758
262.2065275,-90.629997253418
262.2221525,-91.5599975585938
262.2377775,-91.9899978637695
262.2534025,-92.0500030517578
262.2690275,-91.7900009155273
262.2846525,-91.2399978637695
262.3002775,-90.5400009155273
262.3159025,-90.1100006103516
262.3315275,-90.75
262.3471525,-93.3399963378906
262.3627775,-98.0299987792969
262.3784025,-103.839996337891
262.3940275,-108.900001525879
262.4096525,-111.379997253418
262.4252775,-110.330001831055
262.4409025,-105.849998474121
262.4565275,-98.1999969482422
262.4721525,-85.9199981689453
262.4877775,-64.7300033569336
262.5034025,-29.7800006866455
262.5190275,19.2399997711182
262.5346525,74.7399978637695
262.5502775,123.629997253418
262.5659025,153.880004882813
262.5815275,160.610000610352
262.5971525,147.779998779297
262.6127775,125.290000915527
262.6284025,103.580001831055
262.6440275,89.0599975585938
262.6596525,82.6399993896484
262.6752775,81.2300033569336
262.6909025,79.9700012207031
262.7065275,74.0899963378906
262.7221525,60.8600006103516
262.7377775,41.3199996948242
262.7534025,20.1800003051758
262.7690275,3.09999990463257
262.7846525,-6.67999982833862
262.8002775,-9.93000030517578
262.8159025,-10.2399997711182
262.8315275,-11.6300001144409
262.8471525,-16.3999996185303
262.8627775,-24.2999992370605
262.8784025,-33.0400009155273
262.8940275,-40.1199989318848
262.9096525,-44.4799995422363
262.9252775,-46.9199981689453
262.9409025,-49.0499992370605
262.9565275,-51.8800010681152
262.9721525,-55.0099983215332
262.9877775,-57.0299987792969
263.0034025,-56.560001373291
263.0190275,-53.2200012207031
263.0346525,-47.9199981689453
263.0502775,-42.2999992370605
263.0659025,-38.0499992370605
263.0815275,-35.9599990844727
263.0971525,-35.6399993896484
263.1127775,-35.7900009155273
263.1284025,-34.9900016784668
263.1440275,-32.2999992370605
263.1596525,-27.8199996948242
263.1752775,-22.8299999237061
263.1909025,-18.8500003814697
263.2065275,-16.1499996185303
263.2221525,-13.2700004577637
263.2377775,-7.23000001907349
263.2534025,6.51000022888184
263.2690275,32.9300003051758
263.2846525,73.5500030517578
263.3002775,122.879997253418
263.3159025,169.330001831055
263.3315275,200.889999389648
263.3471525,211.160003662109
263.3627775,201.899993896484
263.3784025,180.869995117188
263.3940275,157.050003051758
263.4096525,136.690002441406
263.4252775,122.029998779297
263.4409025,112.139999389648
263.4565275,104.48999786377
263.4721525,96.25
263.4877775,84.7799987792969
263.5034025,68.2099990844727
263.5190275,46.439998626709
263.5346525,21.9099998474121
263.5502775,-1.13999998569489
263.5659025,-18.8400001525879
263.5815275,-29.6599998474121
263.5971525,-34.8300018310547
263.6127775,-37.2999992370605
263.6284025,-40.1199989318848
263.6440275,-45.310001373291
263.6596525,-53.3899993896484
263.6752775,-63.3400001525879
263.6909025,-73.1399993896484
263.7065275,-80.8199996948242
263.7221525,-85.4199981689453
263.7377775,-87.2099990844727
263.7534025,-87.4199981689453
263.7690275,-87.2399978637695
263.7846525,-86.9800033569336
263.8002775,-86.2200012207031
263.8159025,-84.4499969482422
263.8315275,-81.620002746582
263.8471525,-78.2600021362305
263.8627775,-75.3199996948242
263.8784025,-73.4700012207031
263.8940275,-72.4000015258789
263.9096525,-70.9000015258789
263.9252775,-67.9400024414063
263.9409025,-63.4500007629395
263.9565275,-58.0999984741211
263.9721525,-52.5900001525879
263.9877775,-47.439998626709
264.0034025,-42.7099990844727
264.0190275,-36.9900016784668
264.0346525,-26.2900009155273
264.0502775,-4.94999980926514
264.0659025,30.2800006866455
264.0815275,76.129997253418
264.0971525,122.690002441406
264.1127775,158.350006103516
264.1284025,175.940002441406
264.1440275,175.550003051758
264.1596525,163.020004272461
264.1752775,146.050003051758
264.1909025,130.639999389648
264.2065275,119.48999786377
264.2221525,112.370002746582
264.2377775,107.040000915527
264.2534025,100.230003356934
264.2690275,88.6600036621094
264.2846525,70.2399978637695
264.3002775,45.1800003051758
264.3159025,16.6100006103516
264.3315275,-10.1499996185303
264.3471525,-30.2000007629395
264.3627775,-41.5499992370605
264.3784025,-45.7099990844727
264.3940275,-46.2299995422363
264.4096525,-46.8800010681152
264.4252775,-50.1500015258789
264.4409025,-56.6599998474121
264.4565275,-65.370002746582
264.4721525,-74.2799987792969
264.4877775,-81.2600021362305
264.5034025,-84.879997253418
264.5190275,-85.0699996948242
264.5346525,-83.0800018310547
264.5502775,-80.8899993896484
264.5659025,-80.1500015258789
264.5815275,-81.2900009155273
264.5971525,-83.0800018310547
264.6127775,-83.4800033569336
264.6284025,-81.25
264.6440275,-76.7900009155273
264.6596525,-71.5599975585938
264.6752775,-66.8399963378906
264.6909025,-63.0999984741211
264.7065275,-60.2000007629395
264.7221525,-57.9000015258789
264.7377775,-55.9500007629395
264.7534025,-53.7400016784668
264.7690275,-50.310001373291
264.7846525,-44.8899993896484
264.8002775,-36.5
264.8159025,-22.3099994659424
264.8315275,2.09999990463257
264.8471525,38.7900009155273
264.8627775,83.4899978637695
264.8784025,126.330001831055
264.8940275,156.759994506836
264.9096525,168.880004882813
264.9252775,163.559997558594
264.9409025,147.0
264.9565275,127.23999786377
264.9721525,110.660003662109
264.9877775,99.9199981689453
265.0034025,93.75
265.0190275,88.5199966430664
265.0346525,80.1500015258789
265.0502775,65.6399993896484
265.0659025,44.1100006103516
265.0815275,17.4300003051758
265.0971525,-10.0
265.1127775,-32.8199996948242
265.1284025,-47.0400009155273
265.1440275,-52.0499992370605
265.1596525,-50.75
265.1752775,-47.9500007629395
265.1909025,-47.7799987792969
265.2065275,-51.8300018310547
265.2221525,-59.0699996948242
265.2377775,-67.1100006103516
265.2534025,-73.75
265.2690275,-77.9499969482422
265.2846525,-79.9599990844727
265.3002775,-80.6900024414063
265.3159025,-80.6800003051758
265.3315275,-79.8300018310547
265.3471525,-77.8899993896484
265.3627775,-75.0800018310547
265.3784025,-71.870002746582
265.3940275,-68.620002746582
265.4096525,-65.4000015258789
265.4252775,-62.0299987792969
265.4409025,-58.1699981689453
265.4565275,-53.560001373291
265.4721525,-48.3899993896484
265.4877775,-43.6300010681152
265.5034025,-40.5900001525879
265.5190275,-39.9900016784668
265.5346525,-41.2200012207031
265.5502775,-42.6100006103516
265.5659025,-42.2700004577637
265.5815275,-38.5800018310547
265.5971525,-29.7299995422363
265.6127775,-12.7200002670288
265.6284025,15.710000038147
265.6440275,55.9300003051758
265.6596525,102.580001831055
265.6752775,145.710006713867
265.6909025,175.300003051758
265.7065275,186.220001220703
265.7221525,180.25
265.7377775,164.169998168945
265.7534025,145.820007324219
265.7690275,130.720001220703
265.7846525,120.660003662109
265.8002775,114.269996643066
265.8159025,108.76000213623
265.8315275,101.410003662109
265.8471525,90.1100006103516
265.8627775,73.6100006103516
265.8784025,52.2400016784668
265.8940275,28.4099998474121
265.9096525,5.94999980926514
265.9252775,-11.8400001525879
265.9409025,-23.7399997711182
265.9565275,-30.6000003814697
265.9721525,-34.5900001525879
265.9877775,-38.3699989318848
266.0034025,-44.0299987792969
266.0190275,-52.189998626709
266.0346525,-61.9900016784668
266.0502775,-71.6600036621094
266.0659025,-79.4700012207031
266.0815275,-84.5500030517578
266.0971525,-87.2099990844727
266.1127775,-88.5400009155273
266.1284025,-89.5400009155273
266.1440275,-90.4100036621094
266.1596525,-90.620002746582
266.1752775,-89.3899993896484
266.1909025,-86.1399993896484
266.2065275,-81.0500030517578
266.2221525,-74.9899978637695
266.2377775,-68.9800033569336
266.2534025,-63.5999984741211
266.2690275,-59.0499992370605
266.2846525,-55.4099998474121
266.3002775,-52.8600006103516
266.3159025,-51.5900001525879
266.3315275,-51.3499984741211
266.3471525,-51.1599998474121
266.3627775,-49.8300018310547
266.3784025,-46.7099990844727
266.3940275,-42.0200004577637
266.4096525,-36.2700004577637
266.4252775,-28.9400005340576
266.4409025,-17.0799999237061
266.4565275,4.42000007629395
266.4721525,39.5499992370605
266.4877775,86.2200012207031
266.5034025,134.880004882813
266.5190275,172.899993896484
266.5346525,191.600006103516
266.5502775,190.300003051758
266.5659025,175.100006103516
266.5815275,154.580001831055
266.5971525,135.699996948242
266.6127775,121.970001220703
266.6284025,113.5
266.6440275,107.959999084473
266.6596525,101.849998474121
266.6752775,91.9800033569336
266.6909025,76.4800033569336
266.7065275,55.3699989318848
266.7221525,30.8199996948242
266.7377775,6.76999998092651
266.7534025,-12.5500001907349
266.7690275,-24.7199993133545
266.7846525,-30.3400001525879
266.8002775,-32.4900016784668
266.8159025,-34.6100006103516
266.8315275,-38.7200012207031
266.8471525,-45.2299995422363
266.8627775,-53.7000007629395
266.8784025,-63.310001373291
266.8940275,-72.7300033569336
266.9096525,-80.1600036621094
266.9252775,-84.2600021362305
266.9409025,-85.0699996948242
266.9565275,-83.8600006103516
266.9721525,-81.879997253418
266.9877775,-79.7900009155273
267.0034025,-77.8099975585938
267.0190275,-76.0400009155273
267.0346525,-74.379997253418
267.0502775,-72.4400024414063
267.0659025,-69.620002746582
267.0815275,-65.5800018310547
267.0971525,-60.6699981689453
267.1127775,-55.5900001525879
267.1284025,-50.8899993896484
267.1440275,-46.6699981689453
267.1596525,-42.7700004577637
267.1752775,-39.1699981689453
267.1909025,-36.0800018310547
267.2065275,-33.7400016784668
267.2221525,-32.0800018310547
267.2377775,-30.4899997711182
267.2534025,-27.8600006103516
267.2690275,-22.9300003051758
267.2846525,-14.1700000762939
267.3002775,1.13999998569489
267.3159025,26.9799995422363
267.3315275,65.629997253418
267.3471525,113.470001220703
267.3627775,160.089996337891
267.3784025,192.949996948242
267.3940275,203.869995117188
267.4096525,192.919998168945
267.4252775,167.570007324219
267.4409025,138.320007324219
267.4565275,113.849998474121
267.4721525,98.3099975585938
267.4877775,91.1699981689453
267.5034025,88.6699981689453
267.5190275,85.7300033569336
267.5346525,77.9000015258789
267.5502775,63.0800018310547
267.5659025,42.4500007629395
267.5815275,19.6100006103516
267.5971525,-1.32000005245209
267.6127775,-17.5499992370605
267.6284025,-28.1800003051758
267.6440275,-34.1800003051758
267.6596525,-37.6399993896484
267.6752775,-40.7599983215332
267.6909025,-45.0900001525879
267.7065275,-51.2099990844727
267.7221525,-58.8699989318848
267.7377775,-67.0400009155273
267.7534025,-74.0899963378906
267.7690275,-78.5100021362305
267.7846525,-79.879997253418
267.8002775,-79.0999984741211
267.8159025,-77.6999969482422
267.8315275,-76.7699966430664
267.8471525,-76.5800018310547
267.8627775,-76.7399978637695
267.8784025,-76.6800003051758
267.8940275,-75.9199981689453
267.9096525,-74.1500015258789
267.9252775,-71.1399993896484
267.9409025,-66.8199996948242
267.9565275,-61.2799987792969
267.9721525,-55.060001373291
267.9877775,-49.0400009155273
268.0034025,-44.0699996948242
268.0190275,-40.4199981689453
268.0346525,-37.5999984741211
268.0502775,-34.7799987792969
268.0659025,-31.4300003051758
268.0815275,-27.4699993133545
268.0971525,-22.5900001525879
268.1127775,-14.9399995803833
268.1284025,-0.100000001490116
268.1440275,27.2099990844727
268.1596525,68.5
268.1752775,117.440002441406
268.1909025,161.520004272461
268.2065275,188.490005493164
268.2221525,192.929992675781
268.2377775,178.360000610352
268.2534025,154.25
268.2690275,130.539993286133
268.2846525,113.139999389648
268.3002775,102.839996337891
268.3159025,97.0500030517578
268.3315275,92.129997253418
268.3471525,84.879997253418
268.3627775,72.8099975585938
268.3784025,54.6100006103516
268.3940275,31.0900001525879
268.4096525,5.57000017166138
268.4252775,-17.5200004577637
268.4409025,-34.9199981689453
268.4565275,-45.7000007629395
268.4721525,-51.1300010681152
268.4877775,-53.6199989318848
268.5034025,-55.6599998474121
268.5190275,-58.9099998474121
268.5346525,-63.810001373291
268.5502775,-69.6999969482422
268.5659025,-75.5100021362305
268.5815275,-80.3099975585938
268.5971525,-83.6600036621094
268.6127775,-85.5999984741211
268.6284025,-86.4899978637695
268.6440275,-86.6500015258789
268.6596525,-86.25
268.6752775,-85.2900009155273
268.6909025,-83.7699966430664
268.7065275,-81.9100036621094
