Time(s),Value(℃)
271.0066116,60.5099983215332
271.0222366,60.5
271.0378616,60.5
271.0534866,60.4900016784668
271.0691116,60.4799995422363
271.0847366,60.4700012207031
271.1003616,60.4700012207031
271.1159866,60.4599990844727
271.1316116,60.4500007629395
271.1472366,60.439998626709
271.1628616,60.4300003051758
271.1784866,60.4199981689453
271.1941116,60.4099998474121
271.2097366,60.4000015258789
271.2253616,60.3899993896484
271.2409866,60.3800010681152
271.2566116,60.3699989318848
271.2722366,60.3600006103516
271.2878616,60.3499984741211
271.3034866,60.3400001525879
271.3191116,60.3300018310547
271.3347366,60.310001373291
271.3503616,60.2900009155273
271.3659866,60.2799987792969
271.3816116,60.2599983215332
271.3972366,60.2400016784668
271.4128616,60.2200012207031
271.4284866,60.2000007629395
271.4441116,60.1800003051758
271.4597366,60.1699981689453
271.4753616,60.1500015258789
271.4909866,60.1300010681152
271.5066116,60.1199989318848
271.5222366,60.1100006103516
271.5378616,60.0999984741211
271.5534866,60.0900001525879
271.5691116,60.0900001525879
271.5847366,60.0900001525879
271.6003616,60.0900001525879
271.6159866,60.0999984741211
271.6316116,60.0999984741211
271.6472366,60.1199989318848
271.6628616,60.1300010681152
271.6784866,60.1399993896484
271.6941116,60.1599998474121
271.7097366,60.1699981689453
271.7253616,60.189998626709
271.7409866,60.2099990844727
271.7566116,60.2299995422363
271.7722366,60.2400016784668
271.7878616,60.2599983215332
271.8034866,60.2799987792969
271.8191116,60.2999992370605
271.8347366,60.3199996948242
271.8503616,60.3400001525879
271.8659866,60.3699989318848
271.8816116,60.3899993896484
271.8972366,60.4099998474121
271.9128616,60.4300003051758
271.9284866,60.4599990844727
271.9441116,60.4799995422363
271.9597366,60.5
271.9753616,60.5200004577637
271.9909866,60.5400009155273
272.0066116,60.5699996948242
272.0222366,60.5900001525879
272.0378616,60.6100006103516
272.0534866,60.6399993896484
272.0691116,60.6599998474121
272.0847366,60.6800003051758
272.1003616,60.7099990844727
272.1159866,60.7299995422363
272.1316116,60.7599983215332
272.1472366,60.7799987792969
272.1628616,60.810001373291
272.1784866,60.8300018310547
272.1941116,60.8600006103516
272.2097366,60.8899993896484
272.2253616,60.9099998474121
272.2409866,60.939998626709
272.2566116,60.9700012207031
272.2722366,61.0
272.2878616,61.0299987792969
272.3034866,61.060001373291
272.3191116,61.0900001525879
272.3347366,61.1199989318848
272.3503616,61.1500015258789
272.3659866,61.1800003051758
272.3816116,61.2000007629395
272.3972366,61.2299995422363
272.4128616,61.2599983215332
272.4284866,61.2799987792969
272.4441116,61.310001373291
272.4597366,61.3300018310547
272.4753616,61.3499984741211
272.4909866,61.3699989318848
272.5066116,61.3899993896484
272.5222366,61.4000015258789
272.5378616,61.4099998474121
272.5534866,61.4199981689453
272.5691116,61.4199981689453
272.5847366,61.4300003051758
272.6003616,61.4300003051758
272.6159866,61.4300003051758
272.6316116,61.4300003051758
272.6472366,61.4300003051758
272.6628616,61.4300003051758
272.6784866,61.4300003051758
272.6941116,61.4300003051758
272.7097366,61.4300003051758
272.7253616,61.4199981689453
272.7409866,61.4199981689453
272.7566116,61.4199981689453
272.7722366,61.4099998474121
272.7878616,61.4099998474121
272.8034866,61.4000015258789
272.8191116,61.4000015258789
272.8347366,61.3899993896484
272.8503616,61.3800010681152
272.8659866,61.3800010681152
272.8816116,61.3699989318848
272.8972366,61.3600006103516
272.9128616,61.3499984741211
272.9284866,61.3499984741211
272.9441116,61.3400001525879
272.9597366,61.3300018310547
272.9753616,61.3199996948242
272.9909866,61.310001373291
273.0066116,61.2999992370605
273.0222366,61.2900009155273
273.0378616,61.2700004577637
273.0534866,61.2599983215332
273.0691116,61.2400016784668
273.0847366,61.2200012207031
273.1003616,61.2000007629395
273.1159866,61.1699981689453
273.1316116,61.1399993896484
273.1472366,61.1100006103516
273.1628616,61.0800018310547
273.1784866,61.0499992370605
273.1941116,61.0099983215332
273.2097366,60.9799995422363
273.2253616,60.939998626709
273.2409866,60.9099998474121
273.2566116,60.8800010681152
273.2722366,60.8400001525879
273.2878616,60.810001373291
273.3034866,60.7799987792969
273.3191116,60.7400016784668
273.3347366,60.7099990844727
273.3503616,60.6800003051758
273.3659866,60.6500015258789
273.3816116,60.6199989318848
273.3972366,60.5900001525879
273.4128616,60.560001373291
273.4284866,60.5299987792969
273.4441116,60.5099983215332
273.4597366,60.4799995422363
273.4753616,60.4599990844727
273.4909866,60.4300003051758
273.5066116,60.4099998474121
273.5222366,60.3899993896484
273.5378616,60.3699989318848
273.5534866,60.3499984741211
273.5691116,60.3300018310547
273.5847366,60.310001373291
273.6003616,60.2999992370605
273.6159866,60.2900009155273
273.6316116,60.2700004577637
273.6472366,60.2599983215332
273.6628616,60.25
273.6784866,60.2400016784668
273.6941116,60.2299995422363
273.7097366,60.2200012207031
273.7253616,60.2099990844727
273.7409866,60.2000007629395
273.7566116,60.189998626709
273.7722366,60.1800003051758
273.7878616,60.1699981689453
273.8034866,60.1599998474121
273.8191116,60.1500015258789
273.8347366,60.1399993896484
273.8503616,60.1300010681152
273.8659866,60.1100006103516
273.8816116,60.0999984741211
273.8972366,60.0900001525879
273.9128616,60.0800018310547
273.9284866,60.0699996948242
273.9441116,60.0699996948242
273.9597366,60.060001373291
273.9753616,60.0499992370605
273.9909866,60.0499992370605
274.0066116,60.0499992370605
274.0222366,60.0499992370605
274.0378616,60.0499992370605
274.0534866,60.0499992370605
274.0691116,60.060001373291
274.0847366,60.0699996948242
274.1003616,60.0800018310547
274.1159866,60.0900001525879
274.1316116,60.1100006103516
274.1472366,60.1199989318848
274.1628616,60.1300010681152
274.1784866,60.1399993896484
274.1941116,60.1599998474121
274.2097366,60.1699981689453
274.2253616,60.1800003051758
274.2409866,60.2000007629395
274.2566116,60.2099990844727
274.2722366,60.2299995422363
274.2878616,60.2400016784668
274.3034866,60.2599983215332
274.3191116,60.2700004577637
274.3347366,60.2900009155273
274.3503616,60.2999992370605
274.3659866,60.310001373291
274.3816116,60.3199996948242
274.3972366,60.3300018310547
274.4128616,60.3300018310547
274.4284866,60.3400001525879
274.4441116,60.3499984741211
274.4597366,60.3499984741211
274.4753616,60.3600006103516
274.4909866,60.3600006103516
274.5066116,60.3600006103516
274.5222366,60.3600006103516
274.5378616,60.3499984741211
274.5534866,60.3499984741211
274.5691116,60.3400001525879
274.5847366,60.3400001525879
274.6003616,60.3300018310547
274.6159866,60.3300018310547
274.6316116,60.3199996948242
274.6472366,60.310001373291
274.6628616,60.310001373291
274.6784866,60.2999992370605
274.6941116,60.2999992370605
274.7097366,60.2900009155273
274.7253616,60.2799987792969
274.7409866,60.2700004577637
274.7566116,60.2700004577637
274.7722366,60.2599983215332
274.7878616,60.25
274.8034866,60.25
274.8191116,60.2400016784668
274.8347366,60.2400016784668
274.8503616,60.2299995422363
274.8659866,60.2299995422363
274.8816116,60.2299995422363
274.8972366,60.2200012207031
274.9128616,60.2200012207031
274.9284866,60.2200012207031
274.9441116,60.2200012207031
274.9597366,60.2200012207031
274.9753616,60.2099990844727
274.9909866,60.2099990844727
275.0066116,60.2099990844727
275.0222366,60.2099990844727
275.0378616,60.2200012207031
275.0534866,60.2200012207031
275.0691116,60.2200012207031
275.0847366,60.2200012207031
275.1003616,60.2299995422363
275.1159866,60.2299995422363
275.1316116,60.2400016784668
275.1472366,60.2400016784668
275.1628616,60.25
275.1784866,60.25
275.1941116,60.2599983215332
275.2097366,60.2700004577637
275.2253616,60.2700004577637
275.2409866,60.2799987792969
275.2566116,60.2799987792969
275.2722366,60.2900009155273
275.2878616,60.2900009155273
275.3034866,60.2999992370605
275.3191116,60.310001373291
275.3347366,60.3199996948242
275.3503616,60.3199996948242
275.3659866,60.3300018310547
275.3816116,60.3400001525879
275.3972366,60.3499984741211
275.4128616,60.3600006103516
275.4284866,60.3800010681152
275.4441116,60.3899993896484
275.4597366,60.4000015258789
275.4753616,60.4199981689453
275.4909866,60.4300003051758
275.5066116,60.439998626709
275.5222366,60.4500007629395
275.5378616,60.4700012207031
275.5534866,60.4799995422363
275.5691116,60.4900016784668
275.5847366,60.5
275.6003616,60.5099983215332
275.6159866,60.5200004577637
275.6316116,60.5299987792969
275.6472366,60.5400009155273
275.6628616,60.5499992370605
275.6784866,60.560001373291
275.6941116,60.560001373291
275.7097366,60.5699996948242
275.7253616,60.5800018310547
275.7409866,60.5900001525879
275.7566116,60.5900001525879
275.7722366,60.5999984741211
275.7878616,60.6100006103516
275.8034866,60.6100006103516
275.8191116,60.6199989318848
275.8347366,60.6199989318848
275.8503616,60.6300010681152
275.8659866,60.6399993896484
275.8816116,60.6399993896484
275.8972366,60.6399993896484
275.9128616,60.6500015258789
275.9284866,60.6500015258789
275.9441116,60.6500015258789
275.9597366,60.6500015258789
275.9753616,60.6399993896484
275.9909866,60.6399993896484
276.0066116,60.6300010681152
276.0222366,60.6199989318848
276.0378616,60.6199989318848
276.0534866,60.6100006103516
276.0691116,60.6100006103516
276.0847366,60.6100006103516
276.1003616,60.6100006103516
276.1159866,60.6199989318848
276.1316116,60.6199989318848
276.1472366,60.6199989318848
276.1628616,60.6199989318848
276.1784866,60.6100006103516
276.1941116,60.5999984741211
276.2097366,60.5900001525879
276.2253616,60.5699996948242
276.2409866,60.560001373291
276.2566116,60.5400009155273
276.2722366,60.5200004577637
276.2878616,60.5
276.3034866,60.4799995422363
276.3191116,60.4599990844727
276.3347366,60.4500007629395
276.3503616,60.4300003051758
276.3659866,60.4199981689453
276.3816116,60.4099998474121
276.3972366,60.3899993896484
276.4128616,60.3800010681152
276.4284866,60.3699989318848
276.4441116,60.3600006103516
276.4597366,60.3499984741211
276.4753616,60.3499984741211
276.4909866,60.3400001525879
276.5066116,60.3300018310547
276.5222366,60.3199996948242
276.5378616,60.310001373291
276.5534866,60.310001373291
276.5691116,60.2999992370605
276.5847366,60.2900009155273
276.6003616,60.2900009155273
276.6159866,60.2900009155273
276.6316116,60.2900009155273
276.6472366,60.2900009155273
276.6628616,60.2900009155273
276.6784866,60.2999992370605
276.6941116,60.310001373291
276.7097366,60.3300018310547
276.7253616,60.3499984741211
276.7409866,60.3699989318848
276.7566116,60.3899993896484
276.7722366,60.4199981689453
276.7878616,60.439998626709
276.8034866,60.4700012207031
276.8191116,60.5
276.8347366,60.5299987792969
276.8503616,60.560001373291
276.8659866,60.5900001525879
276.8816116,60.6300010681152
276.8972366,60.6599998474121
276.9128616,60.7000007629395
276.9284866,60.7400016784668
276.9441116,60.7799987792969
276.9597366,60.8199996948242
276.9753616,60.8600006103516
276.9909866,60.9000015258789
277.0066116,60.9300003051758
277.0222366,60.9700012207031
277.0378616,61.0
277.0534866,61.0299987792969
277.0691116,61.060001373291
277.0847366,61.0900001525879
277.1003616,61.1199989318848
277.1159866,61.1599998474121
277.1316116,61.189998626709
277.1472366,61.2400016784668
277.1628616,61.2799987792969
277.1784866,61.3300018310547
277.1941116,61.3800010681152
277.2097366,61.4300003051758
277.2253616,61.4799995422363
277.2409866,61.5200004577637
277.2566116,61.5699996948242
277.2722366,61.6100006103516
277.2878616,61.6500015258789
277.3034866,61.689998626709
277.3191116,61.7299995422363
277.3347366,61.7700004577637
277.3503616,61.810001373291
277.3659866,61.8499984741211
277.3816116,61.8899993896484
277.3972366,61.9199981689453
277.4128616,61.9599990844727
277.4284866,62.0
277.4441116,62.0299987792969
277.4597366,62.0699996948242
277.4753616,62.0999984741211
277.4909866,62.1300010681152
277.5066116,62.1599998474121
277.5222366,62.1800003051758
277.5378616,62.189998626709
277.5534866,62.2000007629395
277.5691116,62.189998626709
277.5847366,62.1800003051758
277.6003616,62.1699981689453
277.6159866,62.1399993896484
277.6316116,62.1100006103516
277.6472366,62.0800018310547
277.6628616,62.0400009155273
277.6784866,62.0
277.6941116,61.9599990844727
277.7097366,61.9199981689453
277.7253616,61.8800010681152
277.7409866,61.8499984741211
277.7566116,61.810001373291
277.7722366,61.7700004577637
277.7878616,61.7400016784668
277.8034866,61.7099990844727
277.8191116,61.6699981689453
277.8347366,61.6399993896484
277.8503616,61.6100006103516
277.8659866,61.5900001525879
277.8816116,61.560001373291
277.8972366,61.5299987792969
277.9128616,61.5
277.9284866,61.4799995422363
277.9441116,61.4500007629395
277.9597366,61.4199981689453
277.9753616,61.4000015258789
277.9909866,61.3699989318848
278.0066116,61.3499984741211
278.0222366,61.3199996948242
278.0378616,61.2999992370605
278.0534866,61.2700004577637
278.0691116,61.25
278.0847366,61.2200012207031
278.1003616,61.2000007629395
278.1159866,61.1800003051758
278.1316116,61.1599998474121
278.1472366,61.1399993896484
278.1628616,61.1100006103516
278.1784866,61.0900001525879
278.1941116,61.0699996948242
278.2097366,61.0499992370605
278.2253616,61.0299987792969
278.2409866,61.0
278.2566116,60.9799995422363
278.2722366,60.9500007629395
278.2878616,60.9199981689453
278.3034866,60.8899993896484
278.3191116,60.8600006103516
278.3347366,60.8300018310547
278.3503616,60.7999992370605
278.3659866,60.7700004577637
278.3816116,60.7400016784668
278.3972366,60.7099990844727
278.4128616,60.689998626709
278.4284866,60.6599998474121
278.4441116,60.6500015258789
278.4597366,60.6300010681152
278.4753616,60.6300010681152
278.4909866,60.6300010681152
278.5066116,60.6300010681152
278.5222366,60.6399993896484
278.5378616,60.6500015258789
278.5534866,60.6699981689453
278.5691116,60.689998626709
278.5847366,60.7000007629395
278.6003616,60.7099990844727
278.6159866,60.7200012207031
278.6316116,60.7299995422363
278.6472366,60.7400016784668
278.6628616,60.75
278.6784866,60.75
278.6941116,60.75
278.7097366,60.75
278.7253616,60.75
278.7409866,60.75
278.7566116,60.7400016784668
278.7722366,60.7400016784668
278.7878616,60.7299995422363
278.8034866,60.7200012207031
278.8191116,60.7200012207031
278.8347366,60.7099990844727
278.8503616,60.7000007629395
278.8659866,60.689998626709
278.8816116,60.6699981689453
278.8972366,60.6599998474121
278.9128616,60.6399993896484
278.9284866,60.6199989318848
278.9441116,60.5999984741211
278.9597366,60.5699996948242
278.9753616,60.5499992370605
278.9909866,60.5200004577637
279.0066116,60.4799995422363
279.0222366,60.4500007629395
279.0378616,60.4199981689453
279.0534866,60.3800010681152
279.0691116,60.3400001525879
279.0847366,60.310001373291
279.1003616,60.2799987792969
279.1159866,60.2400016784668
279.1316116,60.2099990844727
279.1472366,60.189998626709
279.1628616,60.1599998474121
279.1784866,60.1399993896484
279.1941116,60.1100006103516
279.2097366,60.0900001525879
279.2253616,60.0699996948242
279.2409866,60.060001373291
279.2566116,60.0400009155273
279.2722366,60.0299987792969
279.2878616,60.0099983215332
279.3034866,60.0
279.3191116,59.9900016784668
279.3347366,59.9799995422363
279.3503616,59.9700012207031
279.3659866,59.9599990844727
279.3816116,59.9500007629395
279.3972366,59.9500007629395
279.4128616,59.939998626709
279.4284866,59.9300003051758
279.4441116,59.9300003051758
279.4597366,59.9300003051758
279.4753616,59.9300003051758
279.4909866,59.9300003051758
279.5066116,59.939998626709
279.5222366,59.9500007629395
279.5378616,59.9500007629395
279.5534866,59.9599990844727
279.5691116,59.9700012207031
279.5847366,59.9799995422363
279.6003616,60.0
279.6159866,60.0099983215332
279.6316116,60.0200004577637
279.6472366,60.0299987792969
279.6628616,60.0499992370605
279.6784866,60.060001373291
279.6941116,60.0699996948242
279.7097366,60.0800018310547
279.7253616,60.0900001525879
279.7409866,60.0999984741211
279.7566116,60.1100006103516
279.7722366,60.1199989318848
279.7878616,60.1300010681152
279.8034866,60.1399993896484
279.8191116,60.1500015258789
279.8347366,60.1599998474121
279.8503616,60.1699981689453
279.8659866,60.1800003051758
279.8816116,60.2000007629395
279.8972366,60.2099990844727
279.9128616,60.2299995422363
279.9284866,60.25
279.9441116,60.2700004577637
279.9597366,60.2900009155273
279.9753616,60.310001373291
279.9909866,60.3300018310547
280.0066116,60.3499984741211
280.0222366,60.3699989318848
280.0378616,60.3800010681152
280.0534866,60.4000015258789
280.0691116,60.4000015258789
280.0847366,60.4099998474121
280.1003616,60.4099998474121
280.1159866,60.4199981689453
280.1316116,60.4199981689453
280.1472366,60.4099998474121
280.1628616,60.4099998474121
280.1784866,60.4000015258789
280.1941116,60.4000015258789
280.2097366,60.3800010681152
280.2253616,60.3699989318848
280.2409866,60.3499984741211
280.2566116,60.3300018310547
280.2722366,60.310001373291
280.2878616,60.2799987792969
280.3034866,60.25
280.3191116,60.2200012207031
280.3347366,60.189998626709
280.3503616,60.1599998474121
280.3659866,60.1300010681152
280.3816116,60.0999984741211
280.3972366,60.0699996948242
280.4128616,60.0400009155273
280.4284866,60.0099983215332
280.4441116,59.9799995422363
280.4597366,59.9500007629395
280.4753616,59.9199981689453
280.4909866,59.8899993896484
280.5066116,59.8600006103516
280.5222366,59.8199996948242
280.5378616,59.7900009155273
280.5534866,59.75
280.5691116,59.7200012207031
280.5847366,59.6800003051758
280.6003616,59.6500015258789
280.6159866,59.6100006103516
280.6316116,59.5699996948242
280.6472366,59.5400009155273
280.6628616,59.5
280.6784866,59.4599990844727
280.6941116,59.4199981689453
280.7097366,59.3899993896484
280.7253616,59.3499984741211
280.7409866,59.310001373291
280.7566116,59.2799987792969
280.7722366,59.2400016784668
280.7878616,59.2099990844727
280.8034866,59.1800003051758
280.8191116,59.1399993896484
280.8347366,59.1100006103516
280.8503616,59.0699996948242
280.8659866,59.0400009155273
280.8816116,59.0099983215332
280.8972366,58.9700012207031
280.9128616,58.939998626709
280.9284866,58.9099998474121
280.9441116,58.8800010681152
280.9597366,58.8499984741211
280.9753616,58.8199996948242
280.9909866,58.7900009155273
281.0066116,58.7700004577637
281.0222366,58.7400016784668
281.0378616,58.7200012207031
281.0534866,58.689998626709
281.0691116,58.6699981689453
281.0847366,58.6500015258789
281.1003616,58.6300010681152
281.1159866,58.6100006103516
281.1316116,58.5900001525879
281.1472366,58.5800018310547
281.1628616,58.5699996948242
281.1784866,58.560001373291
281.1941116,58.560001373291
281.2097366,58.5499992370605
281.2253616,58.5499992370605
281.2409866,58.5499992370605
281.2566116,58.5499992370605
281.2722366,58.5499992370605
281.2878616,58.5499992370605
281.3034866,58.5499992370605
281.3191116,58.5400009155273
281.3347366,58.5400009155273
281.3503616,58.5299987792969
281.3659866,58.5299987792969
281.3816116,58.5299987792969
281.3972366,58.5200004577637
281.4128616,58.5200004577637
281.4284866,58.5200004577637
281.4441116,58.5200004577637
281.4597366,58.5200004577637
281.4753616,58.5299987792969
281.4909866,58.5299987792969
281.5066116,58.5400009155273
281.5222366,58.5499992370605
281.5378616,58.5699996948242
281.5534866,58.5900001525879
281.5691116,58.6100006103516
281.5847366,58.6300010681152
281.6003616,58.6500015258789
281.6159866,58.6699981689453
281.6316116,58.7000007629395
281.6472366,58.7299995422363
281.6628616,58.75
281.6784866,58.7799987792969
281.6941116,58.810001373291
281.7097366,58.8300018310547
281.7253616,58.8600006103516
281.7409866,58.8899993896484
281.7566116,58.9199981689453
281.7722366,58.9500007629395
281.7878616,58.9700012207031
281.8034866,59.0
281.8191116,59.0200004577637
281.8347366,59.0400009155273
281.8503616,59.060001373291
281.8659866,59.0800018310547
281.8816116,59.0999984741211
281.8972366,59.1199989318848
281.9128616,59.1399993896484
281.9284866,59.1699981689453
281.9441116,59.189998626709
281.9597366,59.2200012207031
281.9753616,59.25
281.9909866,59.2700004577637
