Time(s),Value(%)
271.0066116,-22.7900009155273
271.0222366,-25.3099994659424
271.0378616,-27.9400005340576
271.0534866,-30.5699996948242
271.0691116,-33.1100006103516
271.0847366,-35.4599990844727
271.1003616,-37.5699996948242
271.1159866,-39.3400001525879
271.1316116,-40.5800018310547
271.1472366,-41.1300010681152
271.1628616,-40.939998626709
271.1784866,-40.0
271.1941116,-38.2099990844727
271.2097366,-35.4500007629395
271.2253616,-31.8199996948242
271.2409866,-27.7399997711182
271.2566116,-23.7700004577637
271.2722366,-20.2700004577637
271.2878616,-17.1800003051758
271.3034866,-14.289999961853
271.3191116,-11.6599998474121
271.3347366,-9.60999965667725
271.3503616,-8.39000034332275
271.3659866,-7.96000003814697
271.3816116,-8.0600004196167
271.3972366,-8.39000034332275
271.4128616,-8.78999996185303
271.4284866,-9.26000022888184
271.4441116,-9.85000038146973
271.4597366,-10.539999961853
271.4753616,-11.3000001907349
271.4909866,-12.0500001907349
271.5066116,-12.75
271.5222366,-13.4700002670288
271.5378616,-14.4200000762939
271.5534866,-15.8100004196167
271.5691116,-17.6700000762939
271.5847366,-19.8600006103516
271.6003616,-22.1399993896484
271.6159866,-24.2999992370605
271.6316116,-26.2099990844727
271.6472366,-27.8700008392334
271.6628616,-29.2999992370605
271.6784866,-30.5300006866455
271.6941116,-31.5100002288818
271.7097366,-32.1500015258789
271.7253616,-32.439998626709
271.7409866,-32.3699989318848
271.7566116,-31.9200000762939
271.7722366,-31.0499992370605
271.7878616,-29.8299999237061
271.8034866,-28.4200000762939
271.8191116,-27.0799999237061
271.8347366,-25.9799995422363
271.8503616,-25.1599998474121
271.8659866,-24.5699996948242
271.8816116,-24.2000007629395
271.8972366,-24.0599994659424
271.9128616,-24.1800003051758
271.9284866,-24.4699993133545
271.9441116,-24.75
271.9597366,-24.6299991607666
271.9753616,-23.4300003051758
271.9909866,-20.6000003814697
272.0066116,-16.0599994659424
272.0222366,-9.98999977111816
272.0378616,-2.52999997138977
272.0534866,6.25
272.0691116,16.0499992370605
272.0847366,25.9599990844727
272.1003616,34.7000007629395
272.1159866,41.4300003051758
272.1316116,46.2599983215332
272.1472366,49.8899993896484
272.1628616,52.689998626709
272.1784866,54.5200004577637
272.1941116,55.1300010681152
272.2097366,54.5900001525879
272.2253616,53.25
272.2409866,51.5400009155273
272.2566116,49.689998626709
272.2722366,47.75
272.2878616,45.6800003051758
272.3034866,43.560001373291
272.3191116,41.5999984741211
272.3347366,40.0200004577637
272.3503616,38.8800010681152
272.3659866,37.8800010681152
272.3816116,36.4500007629395
272.3972366,34.0499992370605
272.4128616,30.5599994659424
272.4284866,26.1900005340576
272.4441116,21.3299999237061
272.4597366,16.2900009155273
272.4753616,11.2799997329712
272.4909866,6.42999982833862
272.5066116,1.83000004291534
272.5222366,-2.51999998092651
272.5378616,-6.67000007629395
272.5534866,-10.6599998474121
272.5691116,-14.5200004577637
272.5847366,-18.1599998474121
272.6003616,-21.4799995422363
272.6159866,-24.3500003814697
272.6316116,-26.7600002288818
272.6472366,-28.75
272.6628616,-30.3899993896484
272.6784866,-31.5400009155273
272.6941116,-31.7999992370605
272.7097366,-30.8099994659424
272.7253616,-28.5599994659424
272.7409866,-25.2700004577637
272.7566116,-20.9799995422363
272.7722366,-15.6499996185303
272.7878616,-9.43000030517578
272.8034866,-2.94000005722046
272.8191116,2.84999990463257
272.8347366,7.19999980926514
272.8503616,10.0100002288818
272.8659866,11.6099996566772
272.8816116,12.1899995803833
272.8972366,11.710000038147
272.9128616,10.1800003051758
272.9284866,7.8600001335144
272.9441116,5.15999984741211
272.9597366,2.54999995231628
272.9753616,0.379999995231628
272.9909866,-1.21000003814697
273.0066116,-2.27999997138977
273.0222366,-2.98000001907349
273.0378616,-3.40000009536743
273.0534866,-3.58999991416931
273.0691116,-3.60999989509583
273.0847366,-3.69000005722046
273.1003616,-4.21999979019165
273.1159866,-5.57999992370605
273.1316116,-7.84000015258789
273.1472366,-10.7799997329712
273.1628616,-14.0900001525879
273.1784866,-17.4599990844727
273.1941116,-20.7099990844727
273.2097366,-23.7600002288818
273.2253616,-26.5799999237061
273.2409866,-29.2399997711182
273.2566116,-31.8799991607666
273.2722366,-34.6599998474121
273.2878616,-37.5800018310547
273.3034866,-40.5900001525879
273.3191116,-43.5999984741211
273.3347366,-46.5200004577637
273.3503616,-49.2900009155273
273.3659866,-51.7900009155273
273.3816116,-53.8300018310547
273.3972366,-55.2700004577637
273.4128616,-56.0400009155273
273.4284866,-56.189998626709
273.4441116,-55.8400001525879
273.4597366,-55.1100006103516
273.4753616,-54.1199989318848
273.4909866,-52.9900016784668
273.5066116,-51.7599983215332
273.5222366,-50.310001373291
273.5378616,-48.3400001525879
273.5534866,-45.5200004577637
273.5691116,-41.810001373291
273.5847366,-37.310001373291
273.6003616,-32.1599998474121
273.6159866,-26.4500007629395
273.6316116,-20.3799991607666
273.6472366,-14.3800001144409
273.6628616,-9.0600004196167
273.6784866,-4.86999988555908
273.6941116,-1.78999996185303
273.7097366,0.490000009536743
273.7253616,2.25
273.7409866,3.52999997138977
273.7566116,4.34000015258789
273.7722366,4.73999977111816
273.7878616,4.8899998664856
273.8034866,4.80999994277954
273.8191116,4.38000011444092
273.8347366,3.38000011444092
273.8503616,1.76999998092651
273.8659866,-0.379999995231628
273.8816116,-2.98000001907349
273.8972366,-5.94000005722046
273.9128616,-9.11999988555908
273.9284866,-12.2799997329712
273.9441116,-15.1499996185303
273.9597366,-17.6200008392334
273.9753616,-19.8500003814697
273.9909866,-22.0599994659424
274.0066116,-24.25
274.0222366,-26.1900005340576
274.0378616,-27.6399993896484
274.0534866,-28.5300006866455
274.0691116,-28.9400005340576
274.0847366,-29.1100006103516
274.1003616,-29.2600002288818
274.1159866,-29.5200004577637
274.1316116,-29.9400005340576
274.1472366,-30.4699993133545
274.1628616,-31.0900001525879
274.1784866,-31.8299999237061
274.1941116,-32.6300010681152
274.2097366,-33.2400016784668
274.2253616,-33.2599983215332
274.2409866,-32.2999992370605
274.2566116,-30.2399997711182
274.2722366,-27.2600002288818
274.2878616,-23.6599998474121
274.3034866,-19.75
274.3191116,-15.7600002288818
274.3347366,-11.8400001525879
274.3503616,-8.05000019073486
274.3659866,-4.32000017166138
274.3816116,-0.479999989271164
274.3972366,3.65000009536743
274.4128616,8.11999988555908
274.4284866,12.8000001907349
274.4441116,17.5200004577637
274.4597366,22.1100006103516
274.4753616,26.4699993133545
274.4909866,30.4500007629395
274.5066116,33.8499984741211
274.5222366,36.4300003051758
274.5378616,38.0499992370605
274.5534866,38.7700004577637
274.5691116,38.810001373291
274.5847366,38.4799995422363
274.6003616,38.0400009155273
274.6159866,37.6699981689453
274.6316116,37.4199981689453
274.6472366,37.1300010681152
274.6628616,36.5200004577637
274.6784866,35.2999992370605
274.6941116,33.4300003051758
274.7097366,31.1299991607666
274.7253616,28.7099990844727
274.7409866,26.4699993133545
274.7566116,24.5799999237061
274.7722366,23.2700004577637
274.7878616,22.8799991607666
274.8034866,23.7199993133545
274.8191116,25.7700004577637
274.8347366,28.7700004577637
274.8503616,32.3600006103516
274.8659866,36.2700004577637
274.8816116,40.2999992370605
274.8972366,44.2299995422363
274.9128616,47.8899993896484
274.9284866,51.189998626709
274.9441116,54.1699981689453
274.9597366,56.8800010681152
274.9753616,59.25
274.9909866,61.0999984741211
275.0066116,62.2999992370605
275.0222366,62.9099998474121
275.0378616,63.0999984741211
275.0534866,63.0299987792969
275.0691116,62.7700004577637
275.0847366,62.2299995422363
275.1003616,61.2700004577637
275.1159866,59.8400001525879
275.1316116,58.0099983215332
275.1472366,55.9099998474121
275.1628616,53.5800018310547
275.1784866,51.0099983215332
275.1941116,48.2000007629395
275.2097366,45.2999992370605
275.2253616,42.560001373291
275.2409866,40.1500015258789
275.2566116,38.0699996948242
275.2722366,36.2099990844727
275.2878616,34.5400009155273
275.3034866,33.1300010681152
275.3191116,32.0400009155273
275.3347366,31.25
275.3503616,30.6800003051758
275.3659866,30.3199996948242
275.3816116,30.3299999237061
275.3972366,30.9099998474121
275.4128616,32.1500015258789
275.4284866,34.2000007629395
275.4441116,37.3400001525879
275.4597366,41.8800010681152
275.4753616,47.7200012207031
275.4909866,54.2400016784668
275.5066116,60.6800003051758
275.5222366,66.7200012207031
275.5378616,72.8099975585938
275.5534866,79.5400009155273
275.5691116,86.7099990844727
275.5847366,93.4300003051758
275.6003616,98.8000030517578
275.6159866,102.470001220703
275.6316116,104.709999084473
275.6472366,106.099998474121
275.6628616,107.190002441406
275.6784866,108.26000213623
275.6941116,109.349998474121
275.7097366,110.319999694824
275.7253616,111.01000213623
275.7409866,111.309997558594
275.7566116,111.209999084473
275.7722366,110.680000305176
275.7878616,109.680000305176
275.8034866,108.139999389648
275.8191116,106.129997253418
275.8347366,103.98999786377
275.8503616,102.349998474121
275.8659866,101.790000915527
275.8816116,102.330001831055
275.8972366,103.230003356934
275.9128616,103.199996948242
275.9284866,101.199996948242
275.9441116,97.1399993896484
275.9597366,91.6699981689453
275.9753616,85.4199981689453
275.9909866,78.7600021362305
276.0066116,71.9400024414063
276.0222366,65.2300033569336
276.0378616,58.8400001525879
276.0534866,52.6699981689453
276.0691116,46.3699989318848
276.0847366,39.6300010681152
276.1003616,32.4599990844727
276.1159866,25.1499996185303
276.1316116,17.9200000762939
276.1472366,10.8100004196167
276.1628616,3.76999998092651
276.1784866,-3.20000004768372
276.1941116,-10.0299997329712
276.2097366,-16.3700008392334
276.2253616,-21.6399993896484
276.2409866,-25.3600006103516
276.2566116,-27.4400005340576
276.2722366,-28.1599998474121
276.2878616,-27.8400001525879
276.3034866,-26.7199993133545
276.3191116,-25.1200008392334
276.3347366,-23.6800003051758
276.3503616,-23.3700008392334
276.3659866,-24.9300003051758
276.3816116,-28.4099998474121
276.3972366,-33.2299995422363
276.4128616,-38.7900009155273
276.4284866,-44.7099990844727
276.4441116,-50.7999992370605
276.4597366,-56.9199981689453
276.4753616,-62.9199981689453
276.4909866,-68.6800003051758
276.5066116,-74.1699981689453
276.5222366,-79.4199981689453
276.5378616,-84.4599990844727
276.5534866,-89.3000030517578
276.5691116,-93.9400024414063
276.5847366,-98.379997253418
276.6003616,-102.610000610352
276.6159866,-106.639999389648
276.6316116,-110.559997558594
276.6472366,-114.550003051758
276.6628616,-118.830001831055
276.6784866,-123.5
276.6941116,-128.429992675781
276.7097366,-133.320007324219
276.7253616,-137.850006103516
276.7409866,-141.830001831055
276.7566116,-145.199996948242
276.7722366,-148.020004272461
276.7878616,-150.330001831055
276.8034866,-152.160003662109
276.8191116,-153.520004272461
276.8347366,-154.429992675781
276.8503616,-154.869995117188
276.8659866,-154.800003051758
276.8816116,-154.229995727539
276.8972366,-153.199996948242
276.9128616,-151.649993896484
276.9284866,-149.360000610352
276.9441116,-146.080001831055
276.9597366,-141.660003662109
276.9753616,-136.350006103516
276.9909866,-130.660003662109
277.0066116,-125.080001831055
277.0222366,-119.910003662109
277.0378616,-115.180000305176
277.0534866,-110.779998779297
277.0691116,-106.550003051758
277.0847366,-102.430000305176
277.1003616,-98.379997253418
277.1159866,-94.4000015258789
277.1316116,-90.5199966430664
277.1472366,-86.7399978637695
277.1628616,-83.0800018310547
277.1784866,-79.6699981689453
277.1941116,-76.8199996948242
277.2097366,-74.9000015258789
277.2253616,-74.1699981689453
277.2409866,-74.5699996948242
277.2566116,-75.7600021362305
277.2722366,-77.1999969482422
277.2878616,-78.4300003051758
277.3034866,-79.1900024414063
277.3191116,-79.5
277.3347366,-79.6500015258789
277.3503616,-80.0999984741211
277.3659866,-81.2799987792969
277.3816116,-83.2699966430664
277.3972366,-85.8899993896484
277.4128616,-88.9100036621094
277.4284866,-92.1600036621094
277.4441116,-95.4100036621094
277.4597366,-98.1600036621094
277.4753616,-99.6600036621094
277.4909866,-99.3600006103516
277.5066116,-97.3000030517578
277.5222366,-94.0500030517578
277.5378616,-90.1800003051758
277.5534866,-85.9300003051758
277.5691116,-81.3000030517578
277.5847366,-76.1999969482422
277.6003616,-70.6600036621094
277.6159866,-64.7600021362305
277.6316116,-58.4900016784668
277.6472366,-51.75
277.6628616,-44.4000015258789
277.6784866,-36.439998626709
277.6941116,-28.1800003051758
277.7097366,-20.0699996948242
277.7253616,-12.460000038147
277.7409866,-5.48000001907349
277.7566116,0.920000016689301
277.7722366,6.90999984741211
277.7878616,12.6099996566772
277.8034866,18.0599994659424
277.8191116,23.2700004577637
277.8347366,28.2000007629395
277.8503616,32.8499984741211
277.8659866,37.189998626709
277.8816116,41.2299995422363
277.8972366,44.9099998474121
277.9128616,48.1100006103516
277.9284866,50.5900001525879
277.9441116,52.1800003051758
277.9597366,52.8600006103516
277.9753616,52.8600006103516
277.9909866,52.5499992370605
278.0066116,52.2799987792969
278.0222366,52.2299995422363
278.0378616,52.4300003051758
278.0534866,52.7200012207031
278.0691116,52.939998626709
278.0847366,52.9199981689453
278.1003616,52.5999984741211
278.1159866,51.9000015258789
278.1316116,50.6100006103516
278.1472366,48.5299987792969
278.1628616,45.7099990844727
278.1784866,42.5800018310547
278.1941116,39.7900009155273
278.2097366,37.810001373291
278.2253616,36.6399993896484
278.2409866,36.0
278.2566116,35.75
278.2722366,35.9900016784668
278.2878616,36.8499984741211
278.3034866,38.2599983215332
278.3191116,40.0200004577637
278.3347366,41.8800010681152
278.3503616,43.7000007629395
278.3659866,45.4599990844727
278.3816116,47.1599998474121
278.3972366,48.7900009155273
278.4128616,50.2700004577637
278.4284866,51.4900016784668
278.4441116,52.4300003051758
278.4597366,53.25
278.4753616,54.2299995422363
278.4909866,55.5800018310547
278.5066116,57.2400016784668
278.5222366,58.9599990844727
278.5378616,60.5400009155273
278.5534866,61.9599990844727
278.5691116,63.2700004577637
278.5847366,64.5599975585938
278.6003616,65.870002746582
278.6159866,67.2399978637695
278.6316116,68.7399978637695
278.6472366,70.4499969482422
278.6628616,72.3300018310547
278.6784866,74.0500030517578
278.6941116,75.4000015258789
278.7097366,76.0800018310547
278.7253616,76.0100021362305
278.7409866,75.379997253418
278.7566116,74.5100021362305
278.7722366,73.6600036621094
278.7878616,72.9199981689453
278.8034866,72.3199996948242
278.8191116,71.9499969482422
278.8347366,71.9599990844727
278.8503616,72.370002746582
278.8659866,73.0899963378906
278.8816116,73.9100036621094
278.8972366,74.7300033569336
278.9128616,75.5400009155273
278.9284866,76.4499969482422
278.9441116,77.5299987792969
278.9597366,78.7900009155273
278.9753616,80.2699966430664
278.9909866,81.9599990844727
279.0066116,83.8099975585938
279.0222366,85.6500015258789
279.0378616,87.2900009155273
279.0534866,88.6699981689453
279.0691116,89.9599990844727
279.0847366,91.3600006103516
279.1003616,92.870002746582
279.1159866,94.2600021362305
279.1316116,95.2900009155273
279.1472366,95.8300018310547
279.1628616,95.9100036621094
279.1784866,95.6399993896484
279.1941116,95.1399993896484
279.2097366,94.4300003051758
279.2253616,93.5599975585938
279.2409866,92.5699996948242
279.2566116,91.5400009155273
279.2722366,90.5500030517578
279.2878616,89.620002746582
279.3034866,88.5899963378906
279.3191116,87.2099990844727
279.3347366,85.3499984741211
279.3503616,83.1600036621094
279.3659866,80.9800033569336
279.3816116,79.0400009155273
279.3972366,77.3099975585938
279.4128616,75.6500015258789
279.4284866,73.870002746582
279.4441116,71.870002746582
279.4597366,69.6100006103516
279.4753616,67.0599975585938
279.4909866,64.1699981689453
279.5066116,60.9799995422363
279.5222366,57.4000015258789
279.5378616,53.2700004577637
279.5534866,48.3800010681152
279.5691116,42.75
279.5847366,36.5800018310547
279.6003616,30.1100006103516
279.6159866,23.4599990844727
279.6316116,16.6100006103516
279.6472366,9.64999961853027
279.6628616,2.9300000667572
279.6784866,-3.05999994277954
279.6941116,-8.05000019073486
279.7097366,-12.1000003814697
279.7253616,-15.5
279.7409866,-18.5499992370605
279.7566116,-21.3199996948242
279.7722366,-23.7600002288818
279.7878616,-25.8299999237061
279.8034866,-27.6000003814697
279.8191116,-29.3299999237061
279.8347366,-31.25
279.8503616,-33.4599990844727
279.8659866,-35.8800010681152
279.8816116,-38.310001373291
279.8972366,-40.6500015258789
279.9128616,-42.9799995422363
279.9284866,-45.4700012207031
279.9441116,-48.1599998474121
279.9597366,-51.0499992370605
279.9753616,-54.3400001525879
279.9909866,-58.2799987792969
280.0066116,-62.8800010681152
280.0222366,-67.8199996948242
280.0378616,-72.5199966430664
280.0534866,-76.6500015258789
280.0691116,-80.4300003051758
280.0847366,-84.25
280.1003616,-88.120002746582
280.1159866,-91.620002746582
280.1316116,-94.2900009155273
280.1472366,-95.9800033569336
280.1628616,-96.9000015258789
280.1784866,-97.5100021362305
280.1941116,-98.3899993896484
280.2097366,-99.9100036621094
280.2253616,-102.160003662109
280.2409866,-105.050003051758
280.2566116,-108.620002746582
280.2722366,-112.930000305176
280.2878616,-117.790000915527
280.3034866,-122.480003356934
280.3191116,-125.870002746582
280.3347366,-127.069999694824
280.3503616,-126.110000610352
280.3659866,-123.690002441406
280.3816116,-120.480003356934
280.3972366,-116.730003356934
280.4128616,-112.51000213623
280.4284866,-107.870002746582
280.4441116,-102.959999084473
280.4597366,-97.879997253418
280.4753616,-92.6500015258789
280.4909866,-87.1900024414063
280.5066116,-81.4899978637695
280.5222366,-75.6600036621094
280.5378616,-69.9000015258789
280.5534866,-64.379997253418
280.5691116,-59.189998626709
280.5847366,-54.2400016784668
280.6003616,-49.2900009155273
280.6159866,-44.060001373291
280.6316116,-38.3800010681152
280.6472366,-32.2200012207031
280.6628616,-25.75
280.6784866,-19.2399997711182
280.6941116,-12.9099998474121
280.7097366,-6.92000007629395
280.7253616,-1.38999998569489
280.7409866,3.38000011444092
280.7566116,6.86999988555908
280.7722366,8.55000019073486
280.7878616,8.39999961853027
280.8034866,6.92999982833862
280.8191116,4.90000009536743
280.8347366,2.96000003814697
280.8503616,1.49000000953674
280.8659866,0.759999990463257
280.8816116,1.14999997615814
280.8972366,3.02999997138977
280.9128616,6.51999998092651
280.9284866,11.3599996566772
280.9441116,16.9899997711182
280.9597366,22.7900009155273
280.9753616,28.25
280.9909866,33.1699981689453
281.0066116,37.5400009155273
281.0222366,41.5900001525879
281.0378616,45.5999984741211
281.0534866,49.8199996948242
281.0691116,54.310001373291
281.0847366,59.0299987792969
281.1003616,64.0100021362305
281.1159866,69.2799987792969
281.1316116,74.7300033569336
281.1472366,79.9800033569336
281.1628616,84.4100036621094
281.1784866,87.5
281.1941116,89.1600036621094
281.2097366,89.6100006103516
281.2253616,89.1399993896484
281.2409866,87.9400024414063
281.2566116,86.1699981689453
281.2722366,84.0100021362305
281.2878616,81.6500015258789
281.3034866,79.129997253418
281.3191116,76.3099975585938
281.3347366,73.0100021362305
281.3503616,69.1699981689453
281.3659866,64.870002746582
281.3816116,60.2299995422363
281.3972366,55.3699989318848
281.4128616,50.4300003051758
281.4284866,45.6100006103516
281.4441116,41.1399993896484
281.4597366,36.9799995422363
281.4753616,32.6699981689453
281.4909866,27.6599998474121
281.5066116,21.7900009155273
281.5222366,15.4200000762939
281.5378616,9.10999965667725
281.5534866,3.30999994277954
281.5691116,-1.78999996185303
281.5847366,-6.21000003814697
281.6003616,-9.96000003814697
281.6159866,-13.0799999237061
281.6316116,-15.6400003433228
281.6472366,-17.7600002288818
281.6628616,-19.5599994659424
281.6784866,-21.1800003051758
281.6941116,-22.6000003814697
281.7097366,-23.6900005340576
281.7253616,-24.0699996948242
281.7409866,-23.2299995422363
