Time(s),Value(%)
1254.006733,-39.6300010681152
1254.022358,-40.3400001525879
1254.037983,-40.4000015258789
1254.053608,-39.6500015258789
1254.069233,-38.1399993896484
1254.084858,-35.9700012207031
1254.100483,-33.0099983215332
1254.116108,-29.0599994659424
1254.131733,-24.1599998474121
1254.147358,-18.7700004577637
1254.162983,-13.710000038147
1254.178608,-9.69999980926514
1254.194233,-7.0
1254.209858,-5.21000003814697
1254.225483,-3.65000009536743
1254.241108,-1.82000005245209
1254.256733,0.189999997615814
1254.272358,2.02999997138977
1254.287983,3.5699999332428
1254.303608,5.09000015258789
1254.319233,6.92000007629395
1254.334858,9.22000026702881
1254.350483,11.7399997711182
1254.366108,13.6400003433228
1254.381733,13.4300003051758
1254.397358,9.86999988555908
1254.412983,2.70000004768372
1254.428608,-7.55999994277954
1254.444233,-20.4799995422363
1254.459858,-35.7299995422363
1254.475483,-52.5699996948242
1254.491108,-69.120002746582
1254.506733,-82.6800003051758
1254.522358,-91.4599990844727
1254.537983,-96.0100021362305
1254.553608,-98.3000030517578
1254.569233,-99.6500015258789
1254.584858,-100.059997558594
1254.600483,-98.9400024414063
1254.616108,-96.0500030517578
1254.631733,-92.3099975585938
1254.647358,-87.120002746582
1254.662983,-80.120002746582
1254.678608,-70.6999969482422
1254.694233,-58.7200012207031
1254.709858,-44.5299987792969
1254.725483,-28.5599994659424
1254.741108,-11.1599998474121
1254.756733,7.17999982833862
1254.772358,25.8899993896484
1254.787983,44.5099983215332
1254.803608,62.8699989318848
1254.819233,81.0400009155273
1254.834858,98.8000030517578
1254.850483,115.319999694824
1254.866108,129.520004272461
1254.881733,140.889999389648
1254.897358,149.710006713867
1254.912983,156.759994506836
1254.928608,162.720001220703
1254.944233,167.710006713867
1254.959858,171.479995727539
1254.975483,173.770004272461
1254.991108,174.429992675781
1255.006733,173.229995727539
1255.022358,170.070007324219
1255.037983,165.199996948242
1255.053608,159.279998779297
1255.069233,153.080001831055
1255.084858,146.889999389648
1255.100483,140.25
1255.116108,132.660003662109
1255.131733,124.349998474121
1255.147358,116.26000213623
1255.162983,109.290000915527
1255.178608,103.769996643066
1255.194233,99.3399963378906
1255.209858,95.0999984741211
1255.225483,89.9100036621094
1255.241108,82.9300003051758
1255.256733,74.0500030517578
1255.272358,63.7799987792969
1255.287983,52.6699981689453
1255.303608,41.1800003051758
1255.319233,29.7700004577637
1255.334858,19.4400005340576
1255.350483,11.8699998855591
1255.366108,8.56999969482422
1255.381733,9.85000038146973
1255.397358,14.789999961853
1255.412983,21.8899993896484
1255.428608,29.7999992370605
1255.444233,37.6100006103516
1255.459858,44.8499984741211
1255.475483,51.3499984741211
1255.491108,57.0
1255.506733,61.5900001525879
1255.522358,64.879997253418
1255.537983,66.879997253418
1255.553608,67.7600021362305
1255.569233,67.7200012207031
1255.584858,66.9499969482422
1255.600483,65.629997253418
1255.616108,64.0999984741211
1255.631733,62.5400009155273
1255.647358,61.310001373291
1255.662983,60.1100006103516
1255.678608,58.4199981689453
1255.694233,56.0099983215332
1255.709858,52.8499984741211
1255.725483,48.8199996948242
1255.741108,43.6800003051758
1255.756733,37.5
1255.772358,30.8500003814697
1255.787983,24.6200008392334
1255.803608,19.3899993896484
1255.819233,14.8699998855591
1255.834858,10.460000038147
1255.850483,6.0
1255.866108,1.89999997615814
1255.881733,-1.30999994277954
1255.897358,-3.5
1255.912983,-4.84999990463257
1255.928608,-5.71000003814697
1255.944233,-6.23000001907349
1255.959858,-6.42999982833862
1255.975483,-6.28000020980835
1255.991108,-5.78000020980835
1256.006733,-4.94999980926514
1256.022358,-3.8199999332428
1256.037983,-2.45000004768372
1256.053608,-0.769999980926514
1256.069233,1.45000004768372
1256.084858,4.44000005722046
1256.100483,8.02999973297119
1256.116108,11.7299995422363
1256.131733,14.8999996185303
1256.147358,17.1399993896484
1256.162983,18.3899993896484
1256.178608,18.9300003051758
1256.194233,19.0699996948242
1256.209858,18.9200000762939
1256.225483,18.2399997711182
1256.241108,16.6900005340576
1256.256733,14.1199998855591
1256.272358,10.539999961853
1256.287983,5.98999977111816
1256.303608,0.509999990463257
1256.319233,-5.65000009536743
1256.334858,-11.8900003433228
1256.350483,-17.3299999237061
1256.366108,-21.4099998474121
1256.381733,-24.2900009155273
1256.397358,-26.5499992370605
1256.412983,-28.5699996948242
1256.428608,-30.2999992370605
1256.444233,-31.5300006866455
1256.459858,-32.2000007629395
1256.475483,-32.4500007629395
1256.491108,-32.6199989318848
1256.506733,-33.1199989318848
1256.522358,-34.2599983215332
1256.537983,-36.0299987792969
1256.553608,-38.1100006103516
1256.569233,-39.9900016784668
1256.584858,-41.25
1256.600483,-41.6800003051758
1256.616108,-41.1599998474121
1256.631733,-39.2200012207031
1256.647358,-35.7299995422363
1256.662983,-30.5799999237061
1256.678608,-24.1499996185303
1256.694233,-17.2600002288818
1256.709858,-10.8299999237061
1256.725483,-5.44999980926514
1256.741108,-1.20000004768372
1256.756733,2.15000009536743
1256.772358,4.84999990463257
1256.787983,6.92999982833862
1256.803608,8.26000022888184
1256.819233,8.77999973297119
1256.834858,8.61999988555908
1256.850483,7.94999980926514
1256.866108,6.98000001907349
1256.881733,5.8600001335144
1256.897358,4.69999980926514
1256.912983,3.55999994277954
1256.928608,2.41000008583069
1256.944233,1.12999999523163
1256.959858,-0.360000014305115
1256.975483,-2.05999994277954
1256.991108,-3.8199999332428
1257.006733,-5.48000001907349
1257.022358,-6.98999977111816
1257.037983,-8.35999965667725
1257.053608,-9.73999977111816
1257.069233,-11.3599996566772
1257.084858,-13.3900003433228
1257.100483,-15.8599996566772
1257.116108,-18.6200008392334
1257.131733,-21.4899997711182
1257.147358,-24.3099994659424
1257.162983,-26.9699993133545
1257.178608,-29.2999992370605
1257.194233,-31.0300006866455
1257.209858,-31.7999992370605
1257.225483,-31.3299999237061
1257.241108,-29.6100006103516
1257.256733,-26.9300003051758
1257.272358,-23.7600002288818
1257.287983,-20.5900001525879
1257.303608,-17.75
1257.319233,-15.3500003814697
1257.334858,-13.3800001144409
1257.350483,-11.789999961853
1257.366108,-10.5500001907349
1257.381733,-9.60999965667725
1257.397358,-8.9399995803833
1257.412983,-8.48999977111816
1257.428608,-8.23999977111816
1257.444233,-8.1899995803833
1257.459858,-8.38000011444092
1257.475483,-8.97999954223633
1257.491108,-10.1800003051758
1257.506733,-12.0600004196167
1257.522358,-14.5500001907349
1257.537983,-17.3700008392334
1257.553608,-20.2000007629395
1257.569233,-22.7900009155273
1257.584858,-25.0699996948242
1257.600483,-27.1000003814697
1257.616108,-29.0400009155273
1257.631733,-31.1200008392334
1257.647358,-33.5299987792969
1257.662983,-36.2900009155273
1257.678608,-39.2400016784668
1257.694233,-42.1699981689453
1257.709858,-44.8899993896484
1257.725483,-47.2999992370605
1257.741108,-49.2999992370605
1257.756733,-50.7200012207031
1257.772358,-51.4199981689453
1257.787983,-51.3899993896484
1257.803608,-50.6399993896484
1257.819233,-49.0699996948242
1257.834858,-46.5299987792969
1257.850483,-43.0299987792969
1257.866108,-38.7700004577637
1257.881733,-34.1300010681152
1257.897358,-29.5
1257.912983,-25.1900005340576
1257.928608,-21.4599990844727
1257.944233,-18.6299991607666
1257.959858,-16.9300003051758
1257.975483,-16.4099998474121
1257.991108,-16.8299999237061
1258.006733,-17.7900009155273
1258.022358,-18.8999996185303
1258.037983,-19.8999996185303
1258.053608,-20.7900009155273
1258.069233,-21.8299999237061
1258.084858,-23.2900009155273
1258.100483,-25.2999992370605
1258.116108,-27.8500003814697
1258.131733,-30.9200000762939
1258.147358,-34.5099983215332
1258.162983,-38.4700012207031
1258.178608,-42.5
1258.194233,-46.2299995422363
1258.209858,-49.5400009155273
1258.225483,-52.7599983215332
1258.241108,-56.2900009155273
1258.256733,-60.2000007629395
1258.272358,-64.0800018310547
1258.287983,-67.4599990844727
1258.303608,-70.0800018310547
1258.319233,-71.9599990844727
1258.334858,-73.2300033569336
1258.350483,-74.0100021362305
1258.366108,-74.3099975585938
1258.381733,-74.0899963378906
1258.397358,-73.1500015258789
1258.412983,-71.0100021362305
1258.428608,-67.2600021362305
1258.444233,-61.8899993896484
1258.459858,-55.2599983215332
1258.475483,-47.7999992370605
1258.491108,-39.6800003051758
1258.506733,-30.9200000762939
1258.522358,-21.75
1258.537983,-12.9499998092651
1258.553608,-5.5
1258.569233,0.0599999986588955
1258.584858,3.90000009536743
1258.600483,6.6100001335144
1258.616108,8.68000030517578
1258.631733,10.1999998092651
1258.647358,10.8599996566772
1258.662983,10.5
1258.678608,9.27999973297119
1258.694233,7.59999990463257
1258.709858,5.8899998664856
1258.725483,4.40000009536743
1258.741108,3.11999988555908
1258.756733,1.79999995231628
1258.772358,0.140000000596046
1258.787983,-2.0
1258.803608,-4.65999984741211
1258.819233,-7.8899998664856
1258.834858,-11.6999998092651
1258.850483,-15.960000038147
1258.866108,-20.2800006866455
1258.881733,-24.0599994659424
1258.897358,-26.8899993896484
1258.912983,-28.7600002288818
1258.928608,-29.9300003051758
1258.944233,-30.5300006866455
1258.959858,-30.3500003814697
1258.975483,-29.0300006866455
1258.991108,-26.3299999237061
1259.006733,-22.3899993896484
1259.022358,-17.6299991607666
1259.037983,-12.4300003051758
1259.053608,-6.80999994277954
1259.069233,-0.490000009536743
1259.084858,6.69999980926514
1259.100483,14.3999996185303
1259.116108,21.8299999237061
1259.131733,28.3099994659424
1259.147358,33.5900001525879
1259.162983,37.8699989318848
1259.178608,41.4700012207031
1259.194233,44.6199989318848
1259.209858,47.3699989318848
1259.225483,49.7299995422363
1259.241108,51.7700004577637
1259.256733,53.6599998474121
1259.272358,55.5699996948242
1259.287983,57.5400009155273
1259.303608,59.3600006103516
1259.319233,60.5400009155273
1259.334858,60.6599998474121
1259.350483,59.5800018310547
1259.366108,57.560001373291
1259.381733,54.9900016784668
1259.397358,52.2099990844727
1259.412983,49.4500007629395
1259.428608,46.7999992370605
1259.444233,44.2799987792969
1259.459858,41.7900009155273
1259.475483,39.189998626709
1259.491108,36.3499984741211
1259.506733,33.2900009155273
1259.522358,30.2800006866455
1259.537983,27.7999992370605
1259.553608,26.2800006866455
1259.569233,25.8199996948242
1259.584858,26.2199993133545
1259.600483,27.2099990844727
1259.616108,28.8500003814697
1259.631733,31.7299995422363
1259.647358,36.0499992370605
1259.662983,41.5
1259.678608,47.2200012207031
1259.694233,52.310001373291
1259.709858,56.2900009155273
1259.725483,59.2200012207031
1259.741108,61.3800010681152
1259.756733,63.0800018310547
1259.772358,64.4700012207031
1259.787983,65.6100006103516
1259.803608,66.6100006103516
1259.819233,67.6900024414063
1259.834858,69.0899963378906
1259.850483,70.8000030517578
1259.866108,72.370002746582
1259.881733,72.9499969482422
1259.897358,71.8000030517578
1259.912983,68.8300018310547
1259.928608,64.5100021362305
1259.944233,59.5
1259.959858,54.25
1259.975483,49.0099983215332
1259.991108,43.8800010681152
1260.006733,38.8699989318848
1260.022358,33.9500007629395
1260.037983,29.0300006866455
1260.053608,24.0
1260.069233,18.8799991607666
1260.084858,13.8500003814697
1260.100483,9.1899995803833
1260.116108,5.17000007629395
1260.131733,1.86000001430511
1260.147358,-0.879999995231628
1260.162983,-3.20000004768372
1260.178608,-4.8899998664856
1260.194233,-5.23999977111816
1260.209858,-3.58999991416931
1260.225483,0.0900000035762787
1260.241108,5.3600001335144
1260.256733,11.8699998855591
1260.272358,19.4799995422363
1260.287983,27.8899993896484
1260.303608,36.2200012207031
1260.319233,43.1100006103516
1260.334858,47.4599990844727
1260.350483,49.2099990844727
1260.366108,49.0200004577637
1260.381733,47.4199981689453
1260.397358,44.5800018310547
1260.412983,40.5699996948242
1260.428608,35.6699981689453
1260.444233,30.3299999237061
1260.459858,24.9699993133545
1260.475483,19.8099994659424
1260.491108,14.8599996566772
1260.506733,10.0500001907349
1260.522358,5.34000015258789
1260.537983,0.75
1260.553608,-3.64000010490417
1260.569233,-7.80999994277954
1260.584858,-11.8699998855591
1260.600483,-16.1200008392334
1260.616108,-20.8799991607666
1260.631733,-26.3500003814697
1260.647358,-32.4199981689453
1260.662983,-38.7700004577637
1260.678608,-45.060001373291
1260.694233,-51.0
1260.709858,-56.4500007629395
1260.725483,-61.310001373291
1260.741108,-65.1800003051758
1260.756733,-67.2099990844727
1260.772358,-66.5899963378906
1260.787983,-63.1699981689453
1260.803608,-57.2400016784668
1260.819233,-49.0699996948242
1260.834858,-38.7999992370605
1260.850483,-26.9599990844727
1260.866108,-14.8100004196167
1260.881733,-4.07000017166138
1260.897358,4.01000022888184
1260.912983,9.47999954223633
1260.928608,13.0799999237061
1260.944233,15.2299995422363
1260.959858,15.7700004577637
1260.975483,14.539999961853
1260.991108,11.8000001907349
1261.006733,8.18000030517578
1261.022358,4.30000019073486
1261.037983,0.439999997615814
1261.053608,-3.41000008583069
1261.069233,-7.3600001335144
1261.084858,-11.4099998474121
1261.100483,-15.4200000762939
1261.116108,-19.2199993133545
1261.131733,-22.7099990844727
1261.147358,-26.0599994659424
1261.162983,-29.6700000762939
1261.178608,-33.9900016784668
1261.194233,-39.2200012207031
1261.209858,-45.1699981689453
1261.225483,-51.4599990844727
1261.241108,-57.6399993896484
1261.256733,-63.4199981689453
1261.272358,-68.6500015258789
1261.287983,-73.2799987792969
1261.303608,-77.120002746582
1261.319233,-79.7099990844727
1261.334858,-80.5999984741211
1261.350483,-79.6500015258789
1261.366108,-76.8499984741211
1261.381733,-71.9300003051758
1261.397358,-64.6100006103516
1261.412983,-55.1699981689453
1261.428608,-44.689998626709
1261.444233,-34.6599998474121
1261.459858,-26.0599994659424
1261.475483,-18.7600002288818
1261.491108,-12.2299995422363
1261.506733,-6.5
1261.522358,-2.25
1261.537983,0.0
1261.553608,0.389999985694885
1261.569233,-0.439999997615814
1261.584858,-1.82000005245209
1261.600483,-3.46000003814697
1261.616108,-5.42000007629395
1261.631733,-7.82999992370605
1261.647358,-10.6700000762939
1261.662983,-13.8500003814697
1261.678608,-17.1900005340576
1261.694233,-20.5400009155273
1261.709858,-23.9699993133545
1261.725483,-27.7700004577637
1261.741108,-32.4000015258789
1261.756733,-38.1500015258789
1261.772358,-44.9099998474121
1261.787983,-52.189998626709
1261.803608,-59.2799987792969
1261.819233,-65.6500015258789
1261.834858,-71.0899963378906
1261.850483,-75.6699981689453
1261.866108,-79.5100021362305
1261.881733,-82.6399993896484
1261.897358,-84.9800033569336
1261.912983,-86.4599990844727
1261.928608,-86.8099975585938
1261.944233,-65.7300033569336
1261.959858,4.03999996185303
1261.975483,-31.0499992370605
1261.991108,-327.679992675781
1262.006733,-327.679992675781
1262.022358,-327.679992675781
1262.037983,-327.679992675781
1262.053608,-327.679992675781
1262.069233,-327.679992675781
1262.084858,-327.679992675781
1262.100483,-327.679992675781
1262.116108,-327.679992675781
1262.131733,-327.679992675781
1262.147358,-327.679992675781
1262.162983,327.670013427734
1262.178608,327.670013427734
1262.194233,327.670013427734
1262.209858,327.670013427734
1262.225483,327.670013427734
1262.241108,327.670013427734
1262.256733,327.670013427734
1262.272358,327.670013427734
1262.287983,327.670013427734
1262.303608,327.670013427734
1262.319233,327.670013427734
1262.334858,327.670013427734
1262.350483,327.670013427734
1262.366108,327.670013427734
1262.381733,327.670013427734
1262.397358,327.670013427734
1262.412983,327.670013427734
1262.428608,327.670013427734
1262.444233,327.670013427734
1262.459858,327.670013427734
1262.475483,327.670013427734
1262.491108,327.670013427734
1262.506733,327.670013427734
1262.522358,327.670013427734
1262.537983,327.670013427734
1262.553608,327.670013427734
1262.569233,327.670013427734
1262.584858,327.670013427734
1262.600483,327.670013427734
1262.616108,327.670013427734
1262.631733,327.670013427734
1262.647358,327.670013427734
1262.662983,327.670013427734
1262.678608,327.670013427734
1262.694233,327.670013427734
1262.709858,327.670013427734
1262.725483,327.670013427734
1262.741108,327.670013427734
1262.756733,327.670013427734
1262.772358,327.670013427734
1262.787983,327.670013427734
1262.803608,327.670013427734
1262.819233,327.670013427734
1262.834858,327.670013427734
1262.850483,327.670013427734
1262.866108,282.329986572266
1262.881733,217.610000610352
1262.897358,154.380004882813
1262.912983,92.6100006103516
1262.928608,32.4599990844727
1262.944233,-25.8199996948242
1262.959858,-82.1100006103516
1262.975483,-136.279998779297
1262.991108,-188.160003662109
1263.006733,-237.509994506836
1263.022358,-284.040008544922
1263.037983,-327.440002441406
1263.053608,-327.679992675781
1263.069233,-327.679992675781
1263.084858,-327.679992675781
1263.100483,-327.679992675781
1263.116108,-327.679992675781
1263.131733,-327.679992675781
1263.147358,-327.679992675781
1263.162983,-327.679992675781
1263.178608,-327.679992675781
1263.194233,-327.679992675781
1263.209858,-327.679992675781
1263.225483,-327.679992675781
1263.241108,-327.679992675781
1263.256733,-327.679992675781
1263.272358,-327.679992675781
1263.287983,-327.679992675781
1263.303608,-327.679992675781
1263.319233,-327.679992675781
1263.334858,-327.679992675781
1263.350483,-327.679992675781
1263.366108,-327.679992675781
1263.381733,-327.679992675781
1263.397358,-327.679992675781
1263.412983,-327.679992675781
1263.428608,-327.679992675781
1263.444233,-327.679992675781
1263.459858,-327.679992675781
1263.475483,-327.679992675781
1263.491108,-327.679992675781
1263.506733,-327.679992675781
1263.522358,-327.679992675781
1263.537983,-327.679992675781
1263.553608,-327.679992675781
1263.569233,-327.679992675781
1263.584858,-327.679992675781
1263.600483,-327.679992675781
1263.616108,-327.679992675781
1263.631733,-327.679992675781
1263.647358,-327.679992675781
1263.662983,-327.679992675781
1263.678608,-327.679992675781
1263.694233,-327.679992675781
1263.709858,-327.679992675781
1263.725483,-327.679992675781
1263.741108,-327.679992675781
1263.756733,-327.679992675781
1263.772358,-327.679992675781
1263.787983,-327.679992675781
1263.803608,-327.679992675781
1263.819233,-327.679992675781
1263.834858,-327.679992675781
1263.850483,-327.679992675781
1263.866108,-327.679992675781
1263.881733,-327.679992675781
1263.897358,-327.679992675781
1263.912983,-327.679992675781
1263.928608,-327.679992675781
1263.944233,-327.679992675781
1263.959858,-327.679992675781
1263.975483,-327.679992675781
1263.991108,-327.679992675781
1264.006733,-327.679992675781
1264.022358,-327.679992675781
1264.037983,-327.679992675781
1264.053608,-327.679992675781
1264.069233,-327.679992675781
1264.084858,-327.679992675781
1264.100483,-327.679992675781
1264.116108,-327.679992675781
1264.131733,-327.679992675781
1264.147358,-327.679992675781
1264.162983,-327.679992675781
1264.178608,-327.679992675781
1264.194233,-327.679992675781
1264.209858,-327.679992675781
1264.225483,-327.679992675781
1264.241108,-327.679992675781
1264.256733,-319.480010986328
1264.272358,-301.119995117188
1264.287983,-281.920013427734
1264.303608,-261.809997558594
1264.319233,-240.029998779297
1264.334858,-215.990005493164
1264.350483,-190.229995727539
1264.366108,-164.259994506836
1264.381733,-139.580001831055
1264.397358,-116.949996948242
1264.412983,-96.3199996948242
1264.428608,-77.2399978637695
1264.444233,-59.4199981689453
1264.459858,-42.7900009155273
1264.475483,-27.2999992370605
1264.491108,-12.6899995803833
1264.506733,1.42999994754791
1264.522358,15.5
1264.537983,29.6000003814697
1264.553608,43.2700004577637
1264.569233,55.5200004577637
1264.584858,65.3899993896484
1264.600483,72.5899963378906
1264.616108,77.5999984741211
1264.631733,81.3099975585938
1264.647358,84.5400009155273
1264.662983,87.8600006103516
1264.678608,91.5
1264.694233,95.4199981689453
1264.709858,99.3199996948242
