Time(s),Value(%)
462.0126097,108.629997253418
462.0282347,99.2600021362305
462.0438597,85.1600036621094
462.0594847,70.3899993896484
462.0751097,57.5400009155273
462.0907347,47.3199996948242
462.1063597,39.0
462.1219847,31.2700004577637
462.1376097,23.0599994659424
462.1532347,14.0299997329712
462.1688597,4.5
462.1844847,-4.8600001335144
462.2001097,-13.289999961853
462.2157347,-20.0200004577637
462.2313597,-24.5799999237061
462.2469847,-27.0200004577637
462.2626097,-27.7700004577637
462.2782347,-27.4099998474121
462.2938597,-26.7299995422363
462.3094847,-26.4400005340576
462.3251097,-26.9400005340576
462.3407347,-28.2900009155273
462.3563597,-30.2900009155273
462.3719847,-32.6500015258789
462.3876097,-35.0800018310547
462.4032347,-37.3400001525879
462.4188597,-39.2099990844727
462.4344847,-40.439998626709
462.4501097,-40.8499984741211
462.4657347,-40.4599990844727
462.4813597,-39.5800018310547
462.4969847,-38.560001373291
462.5126097,-37.5999984741211
462.5282347,-36.5900001525879
462.5438597,-35.3499984741211
462.5594847,-33.7999992370605
462.5751097,-31.9300003051758
462.5907347,-29.6499996185303
462.6063597,-26.8500003814697
462.6219847,-23.6800003051758
462.6376097,-20.5
462.6532347,-17.5699996948242
462.6688597,-14.8500003814697
462.6844847,-12.1000003814697
462.7001097,-9.26000022888184
462.7157347,-6.53000020980835
462.7313597,-4.1100001335144
462.7469847,-1.96000003814697
462.7626097,0.0799999982118607
462.7782347,2.14000010490417
462.7938597,4.17999982833862
462.8094847,6.07999992370605
462.8251097,7.80000019073486
462.8407347,9.47000026702881
462.8563597,11.1700000762939
462.8719847,12.8500003814697
462.8876097,14.6099996566772
462.9032347,17.1700000762939
462.9188597,21.6700000762939
462.9344847,28.8700008392334
462.9501097,38.9199981689453
462.9657347,51.9300003051758
462.9813597,67.1399993896484
462.9969847,81.7099990844727
463.0126097,91.5699996948242
463.0282347,93.8199996948242
463.0438597,88.1500015258789
463.0594847,76.5999984741211
463.0751097,62.3400001525879
463.0907347,48.3199996948242
463.1063597,36.3300018310547
463.1219847,26.7000007629395
463.1376097,18.6700000762939
463.1532347,11.1000003814697
463.1688597,3.25999999046326
463.1844847,-4.86999988555908
463.2001097,-12.7399997711182
463.2157347,-19.5699996948242
463.2313597,-24.6700000762939
463.2469847,-27.6499996185303
463.2626097,-28.5200004577637
463.2782347,-27.8299999237061
463.2938597,-26.4099998474121
463.3094847,-25.1100006103516
463.3251097,-24.5900001525879
463.3407347,-25.1399993896484
463.3563597,-26.6000003814697
463.3719847,-28.5
463.3876097,-30.3299999237061
463.4032347,-31.7199993133545
463.4188597,-32.5800018310547
463.4344847,-33.0200004577637
463.4501097,-33.1599998474121
463.4657347,-33.060001373291
463.4813597,-32.7000007629395
463.4969847,-31.9899997711182
463.5126097,-30.9200000762939
463.5282347,-29.4899997711182
463.5438597,-27.75
463.5594847,-25.7600002288818
463.5751097,-23.5900001525879
463.5907347,-21.3099994659424
463.6063597,-18.9599990844727
463.6219847,-16.6299991607666
463.6376097,-14.4399995803833
463.6532347,-12.4200000762939
463.6688597,-10.3999996185303
463.6844847,-8.27999973297119
463.7001097,-6.09000015258789
463.7157347,-3.9300000667572
463.7313597,-1.8400000333786
463.7469847,0.150000005960464
463.7626097,1.96000003814697
463.7782347,3.51999998092651
463.7938597,4.92000007629395
463.8094847,6.36999988555908
463.8251097,8.25
463.8407347,11.3699998855591
463.8563597,17.0799999237061
463.8719847,26.5699996948242
463.8876097,39.6399993896484
463.9032347,54.1399993896484
463.9188597,66.6699981689453
463.9344847,74.0199966430664
463.9501097,74.5199966430664
463.9657347,68.6399993896484
463.9813597,58.4599990844727
463.9969847,46.6100006103516
464.0126097,35.2000007629395
464.0282347,25.2900009155273
464.0438597,16.9500007629395
464.0594847,9.60999965667725
464.0751097,2.53999996185303
464.0907347,-4.61999988555908
464.1063597,-11.5600004196167
464.1219847,-17.5599994659424
464.1376097,-21.9899997711182
464.1532347,-24.5599994659424
464.1688597,-25.3899993896484
464.1844847,-24.9599990844727
464.2001097,-23.8899993896484
464.2157347,-22.7600002288818
464.2313597,-21.9599990844727
464.2469847,-21.6800003051758
464.2626097,-21.8500003814697
464.2782347,-22.1800003051758
464.2938597,-22.3999996185303
464.3094847,-22.4400005340576
464.3251097,-22.4500007629395
464.3407347,-22.5200004577637
464.3563597,-22.5900001525879
464.3719847,-22.4599990844727
464.3876097,-22.0200004577637
464.4032347,-21.2000007629395
464.4188597,-20.0200004577637
464.4344847,-18.5699996948242
464.4501097,-17.1299991607666
464.4657347,-15.8699998855591
464.4813597,-14.710000038147
464.4969847,-13.3999996185303
464.5126097,-11.8000001907349
464.5282347,-10.0
464.5438597,-8.22000026702881
464.5594847,-6.63000011444092
464.5751097,-5.19999980926514
464.5907347,-3.77999997138977
464.6063597,-2.29999995231628
464.6219847,-0.800000011920929
464.6376097,0.569999992847443
464.6532347,1.80999994277954
464.6688597,3.03999996185303
464.6844847,4.78000020980835
464.7001097,8.34000015258789
464.7157347,15.6199998855591
464.7313597,27.5200004577637
464.7469847,42.439998626709
464.7626097,56.75
464.7782347,66.5899963378906
464.7938597,69.6600036621094
464.8094847,65.9199981689453
464.8251097,57.2999992370605
464.8407347,46.5200004577637
464.8563597,35.9500007629395
464.8719847,26.9799995422363
464.8876097,19.8400001525879
464.9032347,13.8800001144409
464.9188597,8.14999961853027
464.9344847,2.02999997138977
464.9501097,-4.59999990463257
464.9657347,-11.4700002670288
464.9813597,-17.9200000762939
464.9969847,-23.1399993896484
465.0126097,-26.4799995422363
465.0282347,-27.8299999237061
465.0438597,-27.5900001525879
465.0594847,-26.5
465.0751097,-25.2700004577637
465.0907347,-24.3500003814697
465.1063597,-23.8299999237061
465.1219847,-23.5499992370605
465.1376097,-23.3199996948242
465.1532347,-23.0699996948242
465.1688597,-22.7999992370605
465.1844847,-22.5
465.2001097,-22.0900001525879
465.2157347,-21.5699996948242
465.2313597,-20.9699993133545
465.2469847,-20.1399993896484
465.2626097,-18.8099994659424
465.2782347,-16.9599990844727
465.2938597,-14.8800001144409
465.3094847,-13.0100002288818
465.3251097,-11.5799999237061
465.3407347,-10.5699996948242
465.3563597,-9.81999969482422
465.3719847,-9.11999988555908
465.3876097,-8.35999965667725
465.4032347,-7.53000020980835
465.4188597,-6.71000003814697
465.4344847,-5.86999988555908
465.4501097,-4.82000017166138
465.4657347,-3.33999991416931
465.4813597,-1.05999994277954
465.4969847,2.82999992370605
465.5126097,9.68000030517578
465.5282347,20.3999996185303
465.5438597,34.4700012207031
465.5594847,49.5299987792969
465.5751097,62.2200012207031
465.5907347,69.629997253418
465.6063597,70.4199981689453
465.6219847,65.2699966430664
465.6376097,56.2900009155273
465.6532347,45.9300003051758
465.6688597,35.9700012207031
465.6844847,27.2199993133545
465.7001097,19.6800003051758
465.7157347,12.9200000762939
465.7313597,6.57999992370605
465.7469847,0.46000000834465
465.7626097,-5.55999994277954
465.7782347,-11.4899997711182
465.7938597,-17.0499992370605
465.8094847,-21.8299999237061
465.8251097,-25.4599990844727
465.8407347,-27.7800006866455
465.8563597,-28.8899993896484
465.8719847,-29.0300006866455
465.8876097,-28.7199993133545
465.9032347,-28.5699996948242
465.9188597,-29.0300006866455
465.9344847,-30.1100006103516
465.9501097,-31.5
465.9657347,-32.810001373291
465.9813597,-33.75
465.9969847,-34.1699981689453
466.0126097,-34.0099983215332
466.0282347,-33.310001373291
466.0438597,-32.2799987792969
466.0594847,-31.1299991607666
466.0751097,-29.9799995422363
466.0907347,-28.6900005340576
466.1063597,-27.0200004577637
466.1219847,-24.8099994659424
466.1376097,-22.1599998474121
466.1532347,-19.2000007629395
466.1688597,-15.9200000762939
466.1844847,-12.3199996948242
466.2001097,-8.55000019073486
466.2157347,-4.94999980926514
466.2313597,-1.87999999523163
466.2469847,0.449999988079071
466.2626097,2.08999991416931
466.2782347,3.30999994277954
466.2938597,4.69000005722046
466.3094847,7.03000020980835
466.3251097,11.460000038147
466.3407347,19.3199996948242
466.3563597,31.5100002288818
466.3719847,47.0800018310547
466.3876097,62.7400016784668
466.4032347,74.3199996948242
466.4188597,78.9000015258789
466.4344847,76.129997253418
466.4501097,67.9700012207031
466.4657347,57.3699989318848
466.4813597,46.8699989318848
466.4969847,37.75
466.5126097,30.0599994659424
466.5282347,23.1499996185303
466.5438597,16.3299999237061
466.5594847,9.30000019073486
466.5751097,2.24000000953674
466.5907347,-4.32999992370605
466.6063597,-9.90999984741211
466.6219847,-14.0500001907349
466.6376097,-16.5
466.6532347,-17.3400001525879
466.6688597,-16.9300003051758
466.6844847,-15.8599996566772
466.7001097,-14.7799997329712
466.7157347,-14.1999998092651
466.7313597,-14.3299999237061
466.7469847,-15.1999998092651
466.7626097,-16.7199993133545
466.7782347,-18.6399993896484
466.7938597,-20.6100006103516
466.8094847,-22.3199996948242
466.8251097,-23.6900005340576
466.8407347,-24.7099990844727
466.8563597,-25.4300003051758
466.8719847,-25.8099994659424
466.8876097,-25.7800006866455
466.9032347,-25.2600002288818
466.9188597,-24.25
466.9344847,-22.8199996948242
466.9501097,-21.1700000762939
466.9657347,-19.4699993133545
466.9813597,-17.7299995422363
466.9969847,-15.9200000762939
467.0126097,-14.0500001907349
467.0282347,-12.1099996566772
467.0438597,-9.72000026702881
467.0594847,-5.8899998664856
467.0751097,0.740000009536743
467.0907347,11.5
467.1063597,26.7299995422363
467.1219847,44.6199989318848
467.1376097,60.9599990844727
467.1532347,71.2399978637695
467.1688597,73.129997253418
467.1844847,67.3600006103516
467.2001097,56.810001373291
467.2157347,44.8899993896484
467.2313597,34.0299987792969
467.2469847,25.0900001525879
467.2626097,17.7600002288818
467.2782347,11.2700004577637
467.2938597,4.92999982833862
467.3094847,-1.53999996185303
467.3251097,-7.92999982833862
467.3407347,-13.6300001144409
467.3563597,-18.0799999237061
467.3719847,-21.1000003814697
467.3876097,-22.8999996185303
467.4032347,-23.8099994659424
467.4188597,-23.9699993133545
467.4344847,-23.3299999237061
467.4501097,-21.8199996948242
467.4657347,-19.5900001525879
467.4813597,-17.1900005340576
467.4969847,-15.4099998474121
467.5126097,-14.8900003433228
467.5282347,-15.8400001525879
467.5438597,-18.0300006866455
467.5594847,-21.0100002288818
467.5751097,-24.3700008392334
467.5907347,-27.6900005340576
467.6063597,-30.6100006103516
467.6219847,-32.8899993896484
467.6376097,-34.4099998474121
467.6532347,-35.1100006103516
467.6688597,-35.0099983215332
467.6844847,-34.1699981689453
467.7001097,-32.7000007629395
467.7157347,-30.7000007629395
467.7313597,-28.25
467.7469847,-25.3899993896484
467.7626097,-21.7900009155273
467.7782347,-16.3500003814697
467.7938597,-7.19999980926514
467.8094847,7.34000015258789
467.8251097,27.1000003814697
467.8407347,48.9599990844727
467.8563597,67.7699966430664
467.8719847,79.0100021362305
467.8876097,80.9400024414063
467.9032347,75.0500030517578
467.9188597,64.8499984741211
467.9344847,53.9799995422363
467.9501097,44.7400016784668
467.9657347,37.6699981689453
467.9813597,32.0200004577637
467.9969847,26.6299991607666
468.0126097,20.6200008392334
468.0282347,13.6899995803833
468.0438597,6.05000019073486
468.0594847,-1.61000001430511
468.0751097,-8.43000030517578
468.0907347,-13.6199998855591
468.1063597,-16.8299999237061
468.1219847,-18.2199993133545
468.1376097,-18.3799991607666
468.1532347,-18.0599994659424
468.1688597,-17.9300003051758
468.1844847,-18.3099994659424
468.2001097,-19.3099994659424
468.2157347,-20.9200000762939
468.2313597,-23.1000003814697
468.2469847,-25.7800006866455
468.2626097,-28.7800006866455
468.2782347,-31.6700000762939
468.2938597,-33.9599990844727
468.3094847,-35.4199981689453
468.3251097,-36.0900001525879
468.3407347,-36.2099990844727
468.3563597,-36.0900001525879
468.3719847,-35.9300003051758
468.3876097,-35.6599998474121
468.4032347,-35.0
468.4188597,-33.6199989318848
468.4344847,-31.4200000762939
468.4501097,-28.6000003814697
468.4657347,-25.5
468.4813597,-22.3999996185303
468.4969847,-19.2800006866455
468.5126097,-15.3999996185303
468.5282347,-8.94999980926514
468.5438597,2.36999988555908
468.5594847,19.7600002288818
468.5751097,41.5299987792969
468.5907347,63.0900001525879
468.6063597,79.129997253418
468.6219847,86.3300018310547
468.6376097,84.6500015258789
468.6532347,76.75
468.6688597,66.3099975585938
468.6844847,56.310001373291
468.7001097,48.2000007629395
468.7157347,41.9300003051758
468.7313597,36.6599998474121
468.7469847,31.3299999237061
468.7626097,25.1800003051758
468.7782347,18.0599994659424
468.7938597,10.3299999237061
468.8094847,2.6800000667572
468.8251097,-4.09000015258789
468.8407347,-9.19999980926514
468.8563597,-12.1199998855591
468.8719847,-12.8900003433228
468.8876097,-12.2299995422363
468.9032347,-11.3100004196167
468.9188597,-11.1800003051758
468.9344847,-12.4200000762939
468.9501097,-14.9399995803833
468.9657347,-18.2299995422363
468.9813597,-21.6200008392334
468.9969847,-24.5499992370605
469.0126097,-26.8500003814697
469.0282347,-28.7199993133545
469.0438597,-30.5100002288818
469.0594847,-32.4300003051758
469.0751097,-34.4099998474121
469.0907347,-36.2099990844727
469.1063597,-37.6300010681152
469.1219847,-38.5699996948242
469.1376097,-38.9599990844727
469.1532347,-38.6599998474121
469.1688597,-37.4799995422363
469.1844847,-35.4599990844727
469.2001097,-32.9500007629395
469.2157347,-30.3299999237061
469.2313597,-27.8500003814697
469.2469847,-25.4899997711182
469.2626097,-22.9799995422363
469.2782347,-19.6900005340576
469.2938597,-14.5100002288818
469.3094847,-5.8899998664856
469.3251097,7.53000020980835
469.3407347,25.8199996948242
469.3563597,46.4700012207031
469.3719847,64.9400024414063
469.3876097,76.8399963378906
469.4032347,80.0800018310547
469.4188597,75.5199966430664
469.4344847,66.1699981689453
469.4501097,55.4500007629395
469.4657347,45.8699989318848
469.4813597,38.4199981689453
469.4969847,32.7400016784668
469.5126097,27.7099990844727
469.5282347,22.2099990844727
469.5438597,15.710000038147
469.5594847,8.55000019073486
469.5751097,1.64999997615814
469.5907347,-3.96000003814697
469.6063597,-7.42000007629395
469.6219847,-8.05000019073486
469.6376097,-5.59000015258789
469.6532347,-0.740000009536743
469.6688597,4.80000019073486
469.6844847,9.1899995803833
469.7001097,11.5699996948242
469.7157347,12.3199996948242
469.7313597,12.4399995803833
469.7469847,12.8299999237061
469.7626097,13.8500003814697
469.7782347,14.8100004196167
469.7938597,13.8699998855591
469.8094847,9.02000045776367
469.8251097,-0.409999996423721
469.8407347,-13.1999998092651
469.8563597,-26.7700004577637
469.8719847,-38.689998626709
469.8876097,-47.7999992370605
469.9032347,-54.3499984741211
469.9188597,-59.189998626709
469.9344847,-63.0099983215332
469.9501097,-66.0199966430664
469.9657347,-67.9599990844727
469.9813597,-68.4000015258789
469.9969847,-67.0999984741211
470.0126097,-64.1399993896484
470.0282347,-59.7900009155273
470.0438597,-54.0499992370605
470.0594847,-46.1399993896484
470.0751097,-34.3400001525879
470.0907347,-17.1100006103516
470.1063597,5.17000007629395
470.1219847,29.3600006103516
470.1376097,50.7400016784668
470.1532347,65.3099975585938
470.1688597,71.4100036621094
470.1844847,69.9499969482422
470.2001097,63.5499992370605
470.2157347,55.25
470.2313597,47.2900009155273
470.2469847,40.7700004577637
470.2626097,35.75
470.2782347,31.6599998474121
470.2938597,27.6100006103516
470.3094847,22.7800006866455
470.3251097,16.7999992370605
470.3407347,10.0
470.3563597,3.29999995231628
470.3719847,-2.23000001907349
470.3876097,-5.75
470.4032347,-6.92999982833862
470.4188597,-6.32000017166138
470.4344847,-5.05999994277954
470.4501097,-4.23999977111816
470.4657347,-4.48000001907349
470.4813597,-5.80000019073486
470.4969847,-7.98000001907349
470.5126097,-10.789999961853
470.5282347,-13.9899997711182
470.5438597,-17.2299995422363
470.5594847,-20.0699996948242
470.5751097,-22.2600002288818
470.5907347,-23.8400001525879
470.6063597,-25.0
470.6219847,-25.8999996185303
470.6376097,-26.5900001525879
470.6532347,-26.9300003051758
470.6688597,-26.6599998474121
470.6844847,-25.7199993133545
470.7001097,-24.2600002288818
470.7157347,-22.5699996948242
470.7313597,-20.8799991607666
470.7469847,-19.2900009155273
470.7626097,-17.7900009155273
470.7782347,-16.3099994659424
470.7938597,-14.5500001907349
470.8094847,-11.5699996948242
470.8251097,-5.63000011444092
470.8407347,5.21999979019165
470.8563597,21.6200008392334
470.8719847,41.3699989318848
470.8876097,60.1399993896484
470.9032347,73.5100021362305
470.9188597,78.8499984741211
470.9344847,76.1600036621094
470.9501097,67.7699966430664
470.9657347,56.939998626709
470.9813597,46.2999992370605
470.9969847,37.1599998474121
471.0126097,29.7199993133545
471.0282347,23.5
471.0438597,17.6299991607666
471.0594847,11.210000038147
471.0751097,3.71000003814697
471.0907347,-4.71999979019165
471.1063597,-13.3299999237061
471.1219847,-20.9400005340576
471.1376097,-26.3999996185303
471.1532347,-29.0400009155273
471.1688597,-29.0400009155273
471.1844847,-27.3700008392334
471.2001097,-25.1599998474121
471.2157347,-23.2099990844727
471.2313597,-21.9400005340576
471.2469847,-21.6000003814697
471.2626097,-22.25
471.2782347,-23.7000007629395
471.2938597,-25.6200008392334
471.3094847,-27.6700000762939
471.3251097,-29.5799999237061
471.3407347,-31.1700000762939
471.3563597,-32.2700004577637
471.3719847,-32.8400001525879
471.3876097,-32.9700012207031
471.4032347,-32.7700004577637
471.4188597,-32.2900009155273
471.4344847,-31.4400005340576
471.4501097,-30.0599994659424
471.4657347,-28.0499992370605
471.4813597,-25.4099998474121
471.4969847,-22.2900009155273
471.5126097,-18.8400001525879
471.5282347,-15.0799999237061
471.5438597,-10.6999998092651
471.5594847,-4.8899998664856
471.5751097,3.20000004768372
471.5907347,13.6999998092651
471.6063597,26.0799999237061
471.6219847,40.5800018310547
471.6376097,59.0
471.6532347,82.4300003051758
471.6688597,108.220001220703
471.6844847,130.369995117188
471.7001097,142.759994506836
471.7157347,141.929992675781
471.7313597,127.959999084473
471.7469847,104.639999389648
471.7626097,78.9300003051758
471.7782347,58.1699981689453
471.7938597,46.1199989318848
471.8094847,41.5800018310547
471.8251097,40.2599983215332
471.8407347,37.5999984741211
471.8563597,30.9200000762939
471.8719847,19.9799995422363
471.8876097,6.21000003814697
471.9032347,-8.25
471.9188597,-21.4300003051758
471.9344847,-32.1399993896484
471.9501097,-40.2000007629395
471.9657347,-46.2000007629395
471.9813597,-50.9700012207031
471.9969847,-55.2700004577637
472.0126097,-59.6300010681152
472.0282347,-64.3000030517578
472.0438597,-69.0599975585938
472.0594847,-73.2600021362305
472.0751097,-76.3199996948242
472.0907347,-78.0999984741211
472.1063597,-78.9199981689453
472.1219847,-79.1500015258789
472.1376097,-79.0899963378906
472.1532347,-78.8899993896484
472.1688597,-78.5599975585938
472.1844847,-78.0500030517578
472.2001097,-77.3300018310547
472.2157347,-76.370002746582
472.2313597,-75.0699996948242
472.2469847,-73.1699981689453
472.2626097,-70.5199966430664
472.2782347,-67.3300018310547
472.2938597,-63.9599990844727
472.3094847,-60.4599990844727
472.3251097,-56.4900016784668
472.3407347,-51.6300010681152
472.3563597,-45.8300018310547
472.3719847,-39.5200004577637
472.3876097,-33.4199981689453
472.4032347,-27.8199996948242
472.4188597,-21.75
472.4344847,-12.8699998855591
472.4501097,1.39999997615814
472.4657347,21.8099994659424
472.4813597,45.7999992370605
472.4969847,68.2900009155273
472.5126097,84.379997253418
472.5282347,91.6900024414063
472.5438597,91.0100021362305
472.5594847,85.25
472.5751097,77.75
472.5907347,70.8899993896484
472.6063597,65.4100036621094
472.6219847,60.7599983215332
472.6376097,56.0099983215332
472.6532347,50.6199989318848
472.6688597,44.6300010681152
472.6844847,38.3300018310547
472.7001097,31.8400001525879
472.7157347,25.2000007629395
472.7313597,18.6399993896484
472.7469847,12.7399997711182
