Time(s),Value(%)
1575.0116171,54.4199981689453
1575.0272421,60.1599998474121
1575.0428671,64.4700012207031
1575.0584921,68.0199966430664
1575.0741171,71.0299987792969
1575.0897421,73.4800033569336
1575.1053671,75.25
1575.1209921,75.9100036621094
1575.1366171,74.4899978637695
1575.1522421,69.629997253418
1575.1678671,60.5200004577637
1575.1834921,48.0499992370605
1575.1991171,34.4599990844727
1575.2147421,21.8400001525879
1575.2303671,11.1400003433228
1575.2459921,2.40000009536743
1575.2616171,-4.78000020980835
1575.2772421,-11.0699996948242
1575.2928671,-17.2000007629395
1575.3084921,-23.6599998474121
1575.3241171,-30.3299999237061
1575.3397421,-36.4900016784668
1575.3553671,-41.2099990844727
1575.3709921,-44.0699996948242
1575.3866171,-45.4700012207031
1575.4022421,-46.0999984741211
1575.4178671,-46.3400001525879
1575.4334921,-46.1500015258789
1575.4491171,-45.4300003051758
1575.4647421,-44.2400016784668
1575.4803671,-42.9700012207031
1575.4959921,-42.1199989318848
1575.5116171,-42.1100006103516
1575.5272421,-43.0999984741211
1575.5428671,-44.8699989318848
1575.5584921,-46.7200012207031
1575.5741171,-47.6100006103516
1575.5897421,-46.689998626709
1575.6053671,-43.5699996948242
1575.6209921,-38.1100006103516
1575.6366171,-30.2000007629395
1575.6522421,-19.8500003814697
1575.6678671,-7.3899998664856
1575.6834921,6.53000020980835
1575.6991171,21.1299991607666
1575.7147421,35.4500007629395
1575.7303671,48.4099998474121
1575.7459921,59.0499992370605
1575.7616171,66.7799987792969
1575.7772421,71.6600036621094
1575.7928671,74.25
1575.8084921,75.3499984741211
1575.8241171,75.5
1575.8397421,74.5999984741211
1575.8553671,72.0
1575.8709921,66.9700012207031
1575.8866171,59.2099990844727
1575.9022421,49.0900001525879
1575.9178671,37.7000007629395
1575.9334921,26.25
1575.9491171,15.5500001907349
1575.9647421,5.78999996185303
1575.9803671,-3.17000007629395
1575.9959921,-11.4200000762939
1576.0116171,-18.6800003051758
1576.0272421,-24.5
1576.0428671,-28.8400001525879
1576.0584921,-32.3400001525879
1576.0741171,-35.9000015258789
1576.0897421,-39.9000015258789
1576.1053671,-43.9799995422363
1576.1209921,-47.2000007629395
1576.1366171,-48.5800018310547
1576.1522421,-47.9700012207031
1576.1678671,-46.4599990844727
1576.1834921,-45.4900016784668
1576.1991171,-45.689998626709
1576.2147421,-46.6199989318848
1576.2303671,-47.4300003051758
1576.2459921,-47.3400001525879
1576.2616171,-45.9700012207031
1576.2772421,-43.6399993896484
1576.2928671,-41.2400016784668
1576.3084921,-39.6699981689453
1576.3241171,-38.9900016784668
1576.3397421,-38.439998626709
1576.3553671,-36.9599990844727
1576.3709921,-33.7700004577637
1576.3866171,-28.6800003051758
1576.4022421,-22.2600002288818
1576.4178671,-15.7399997711182
1576.4334921,-10.3999996185303
1576.4491171,-6.69000005722046
1576.4647421,-3.95000004768372
1576.4803671,-0.810000002384186
1576.4959921,4.11999988555908
1576.5116171,11.7799997329712
1576.5272421,22.2000007629395
1576.5428671,34.6199989318848
1576.5584921,47.7299995422363
1576.5741171,60.1500015258789
1576.5897421,70.7799987792969
1576.6053671,79.2399978637695
1576.6209921,86.0100021362305
1576.6366171,91.6999969482422
1576.6522421,96.4400024414063
1576.6678671,99.879997253418
1576.6834921,101.449996948242
1576.6991171,100.599998474121
1576.7147421,97.0800018310547
1576.7303671,91.0599975585938
1576.7459921,82.8499984741211
1576.7616171,72.5999984741211
1576.7772421,60.3800010681152
1576.7928671,46.6100006103516
1576.8084921,32.3800010681152
1576.8241171,19.0599994659424
1576.8397421,7.5
1576.8553671,-2.3199999332428
1576.8709921,-10.8599996566772
1576.8866171,-18.4099998474121
1576.9022421,-25.2199993133545
1576.9178671,-31.6499996185303
1576.9334921,-38.0900001525879
1576.9491171,-44.6199989318848
1576.9647421,-50.7799987792969
1576.9803671,-55.9099998474121
1576.9959921,-59.7099990844727
1577.0116171,-62.3499984741211
1577.0272421,-64.1399993896484
1577.0428671,-65.4000015258789
1577.0584921,-66.379997253418
1577.0741171,-67.0699996948242
1577.0897421,-66.9000015258789
1577.1053671,-65.0100021362305
1577.1209921,-60.8600006103516
1577.1366171,-54.6699981689453
1577.1522421,-47.4300003051758
1577.1678671,-40.4700012207031
1577.1834921,-34.9300003051758
1577.1991171,-31.3299999237061
1577.2147421,-29.3999996185303
1577.2303671,-28.3299999237061
1577.2459921,-27.1399993896484
1577.2616171,-25.2600002288818
1577.2772421,-22.75
1577.2928671,-19.9200000762939
1577.3084921,-16.6399993896484
1577.3241171,-11.9200000762939
1577.3397421,-4.26000022888184
1577.3553671,7.34999990463257
1577.3709921,22.3700008392334
1577.3866171,38.7099990844727
1577.4022421,53.810001373291
1577.4178671,65.8000030517578
1577.4334921,74.2399978637695
1577.4491171,79.8899993896484
1577.4647421,83.7799987792969
1577.4803671,86.1900024414063
1577.4959921,86.6500015258789
1577.5116171,84.8099975585938
1577.5272421,80.7600021362305
1577.5428671,74.4400024414063
1577.5584921,65.2600021362305
1577.5741171,52.7000007629395
1577.5897421,37.4300003051758
1577.6053671,21.6599998474121
1577.6209921,8.10000038146973
1577.6366171,-1.5900000333786
1577.6522421,-7.73999977111816
1577.6678671,-12.1000003814697
1577.6834921,-16.4699993133545
1577.6991171,-21.6700000762939
1577.7147421,-27.4400005340576
1577.7303671,-32.9700012207031
1577.7459921,-37.4500007629395
1577.7616171,-40.5800018310547
1577.7772421,-42.810001373291
1577.7928671,-45.0400009155273
1577.8084921,-47.8800010681152
1577.8241171,-51.0800018310547
1577.8397421,-53.8899993896484
1577.8553671,-55.6100006103516
1577.8709921,-55.9700012207031
1577.8866171,-55.0299987792969
1577.9022421,-53.0299987792969
1577.9178671,-50.25
1577.9334921,-46.9900016784668
1577.9491171,-43.5099983215332
1577.9647421,-40.060001373291
1577.9803671,-36.939998626709
1577.9959921,-34.5299987792969
1578.0116171,-33.0299987792969
1578.0272421,-32.2700004577637
1578.0428671,-31.7099990844727
1578.0584921,-30.6599998474121
1578.0741171,-28.3600006103516
1578.0897421,-24.3199996948242
1578.1053671,-18.5100002288818
1578.1209921,-11.210000038147
1578.1366171,-2.46000003814697
1578.1522421,8.15999984741211
1578.1678671,21.2399997711182
1578.1834921,36.75
1578.1991171,53.560001373291
1578.2147421,69.5299987792969
1578.2303671,82.370002746582
1578.2459921,90.9100036621094
1578.2616171,95.4000015258789
1578.2772421,97.0599975585938
1578.2928671,97.1800003051758
1578.3084921,96.2699966430664
1578.3241171,93.8499984741211
1578.3397421,89.25
1578.3553671,82.2399978637695
1578.3709921,73.0299987792969
1578.3866171,61.939998626709
1578.4022421,49.2999992370605
1578.4178671,35.7299995422363
1578.4334921,22.1800003051758
1578.4491171,9.5
1578.4647421,-1.71000003814697
1578.4803671,-11.0600004196167
1578.4959921,-18.2600002288818
1578.5116171,-23.3799991607666
1578.5272421,-27.0400009155273
1578.5428671,-30.0599994659424
1578.5584921,-32.9300003051758
1578.5741171,-35.8400001525879
1578.5897421,-38.8400001525879
1578.6053671,-41.8199996948242
1578.6209921,-44.4500007629395
1578.6366171,-46.4300003051758
1578.6522421,-47.6500015258789
1578.6678671,-48.189998626709
1578.6834921,-48.1500015258789
1578.6991171,-47.6300010681152
1578.7147421,-46.6699981689453
1578.7303671,-45.310001373291
1578.7459921,-43.560001373291
1578.7616171,-41.6399993896484
1578.7772421,-40.0
1578.7928671,-39.0800018310547
1578.8084921,-38.9199981689453
1578.8241171,-39.0200004577637
1578.8397421,-38.5699996948242
1578.8553671,-36.9300003051758
1578.8709921,-33.9199981689453
1578.8866171,-30.0
1578.9022421,-25.9200000762939
1578.9178671,-21.8500003814697
1578.9334921,-16.7199993133545
1578.9491171,-8.64000034332275
1578.9647421,3.70000004768372
1578.9803671,19.7000007629395
1578.9959921,36.9799995422363
1579.0116171,52.689998626709
1579.0272421,64.8000030517578
1579.0428671,72.5999984741211
1579.0584921,76.6900024414063
1579.0741171,78.5100021362305
1579.0897421,79.5500030517578
1579.1053671,80.5299987792969
1579.1209921,81.2200012207031
1579.1366171,80.6600036621094
1579.1522421,77.7099990844727
1579.1678671,71.4199981689453
1579.1834921,61.4199981689453
1579.1991171,48.2900009155273
1579.2147421,33.5299987792969
1579.2303671,18.9899997711182
1579.2459921,6.1399998664856
1579.2616171,-4.25
1579.2772421,-12.2200002670288
1579.2928671,-18.2600002288818
1579.3084921,-23.0900001525879
1579.3241171,-27.4200000762939
1579.3397421,-31.75
1579.3553671,-36.189998626709
1579.3709921,-40.5999984741211
1579.3866171,-44.6100006103516
1579.4022421,-47.7599983215332
1579.4178671,-49.6699981689453
1579.4334921,-50.25
1579.4491171,-49.689998626709
1579.4647421,-48.3699989318848
1579.4803671,-46.8800010681152
1579.4959921,-45.7400016784668
1579.5116171,-45.2299995422363
1579.5272421,-45.310001373291
1579.5428671,-45.7299995422363
1579.5584921,-45.9300003051758
1579.5741171,-45.1800003051758
1579.5897421,-43.0400009155273
1579.6053671,-39.75
1579.6209921,-35.9799995422363
1579.6366171,-32.2599983215332
1579.6522421,-28.8099994659424
1579.6678671,-25.6700000762939
1579.6834921,-23.0599994659424
1579.6991171,-21.25
1579.7147421,-20.1800003051758
1579.7303671,-18.8999996185303
1579.7459921,-15.6400003433228
1579.7616171,-8.76000022888184
1579.7772421,2.02999997138977
1579.7928671,15.5699996948242
1579.8084921,29.7999992370605
1579.8241171,42.75
1579.8397421,53.3199996948242
1579.8553671,61.5200004577637
1579.8709921,68.0899963378906
1579.8866171,73.5199966430664
1579.9022421,77.7300033569336
1579.9178671,80.5599975585938
1579.9334921,82.1600036621094
1579.9491171,82.6100006103516
1579.9647421,81.4300003051758
1579.9803671,77.6500015258789
1579.9959921,70.4000015258789
1580.0116171,59.560001373291
1580.0272421,46.2099990844727
1580.0428671,32.2400016784668
1580.0584921,19.2999992370605
1580.0741171,8.19999980926514
1580.0897421,-0.870000004768372
1580.1053671,-8.02000045776367
1580.1209921,-13.5299997329712
1580.1366171,-17.9400005340576
1580.1522421,-21.7199993133545
1580.1678671,-25.3400001525879
1580.1834921,-29.3999996185303
1580.1991171,-34.4199981689453
1580.2147421,-40.2599983215332
1580.2303671,-46.1500015258789
1580.2459921,-51.0400009155273
1580.2616171,-54.1399993896484
1580.2772421,-55.3199996948242
1580.2928671,-55.060001373291
1580.3084921,-54.0200004577637
1580.3241171,-52.689998626709
1580.3397421,-51.5099983215332
1580.3553671,-50.9700012207031
1580.3709921,-51.189998626709
1580.3866171,-51.5800018310547
1580.4022421,-51.1100006103516
1580.4178671,-48.9099998474121
1580.4334921,-44.8499984741211
1580.4491171,-39.5900001525879
1580.4647421,-34.2599983215332
1580.4803671,-30.0499992370605
1580.4959921,-27.6800003051758
1580.5116171,-26.9099998474121
1580.5272421,-26.5799999237061
1580.5428671,-25.1599998474121
1580.5584921,-21.4099998474121
1580.5741171,-14.5799999237061
1580.5897421,-4.59000015258789
1580.6053671,7.8600001335144
1580.6209921,21.2299995422363
1580.6366171,33.6699981689453
1580.6522421,43.8499984741211
1580.6678671,51.5900001525879
1580.6834921,57.7599983215332
1580.6991171,63.4300003051758
1580.7147421,69.0699996948242
1580.7303671,74.4100036621094
1580.7459921,78.7200012207031
1580.7616171,81.4000015258789
1580.7772421,82.1600036621094
1580.7928671,80.879997253418
1580.8084921,77.2300033569336
1580.8241171,70.5500030517578
1580.8397421,60.2999992370605
1580.8553671,46.9700012207031
1580.8709921,32.3800010681152
1580.8866171,18.8099994659424
1580.9022421,7.80000019073486
1580.9178671,-0.300000011920929
1580.9334921,-6.09999990463257
1580.9491171,-10.6499996185303
1580.9647421,-15.1599998474121
1580.9803671,-20.7299995422363
1580.9959921,-27.8799991607666
1581.0116171,-36.0699996948242
1581.0272421,-43.8400001525879
1581.0428671,-49.6399993896484
1581.0584921,-52.75
1581.0741171,-53.560001373291
1581.0897421,-53.0900001525879
1581.1053671,-52.3499984741211
1581.1209921,-51.9500007629395
1581.1366171,-51.8699989318848
1581.1522421,-51.560001373291
1581.1678671,-50.2099990844727
1581.1834921,-47.3600006103516
1581.1991171,-43.3699989318848
1581.2147421,-39.2799987792969
1581.2303671,-36.189998626709
1581.2459921,-34.6699981689453
1581.2616171,-34.5900001525879
1581.2772421,-35.189998626709
1581.2928671,-35.4300003051758
1581.3084921,-34.560001373291
1581.3241171,-32.4500007629395
1581.3397421,-29.5699996948242
1581.3553671,-26.6499996185303
1581.3709921,-24.0499992370605
1581.3866171,-21.3299999237061
1581.4022421,-17.0499992370605
1581.4178671,-9.27000045776367
1581.4334921,3.36999988555908
1581.4491171,20.5400009155273
1581.4647421,39.8400001525879
1581.4803671,57.7999992370605
1581.4959921,71.2099990844727
1581.5116171,78.4899978637695
1581.5272421,80.2900009155273
1581.5428671,78.870002746582
1581.5584921,76.5599975585938
1581.5741171,74.8000030517578
1581.5897421,73.879997253418
1581.6053671,73.2600021362305
1581.6209921,72.0400009155273
1581.6366171,69.3499984741211
1581.6522421,64.5100021362305
1581.6678671,57.1100006103516
1581.6834921,47.5
1581.6991171,36.8800010681152
1581.7147421,26.4500007629395
1581.7303671,16.5100002288818
1581.7459921,6.71999979019165
1581.7616171,-3.04999995231628
1581.7772421,-12.25
1581.7928671,-20.0499992370605
1581.8084921,-25.8799991607666
1581.8241171,-29.7999992370605
1581.8397421,-32.6199989318848
1581.8553671,-35.3400001525879
1581.8709921,-38.4199981689453
1581.8866171,-41.5999984741211
1581.9022421,-44.2700004577637
1581.9178671,-45.7799987792969
1581.9334921,-45.7799987792969
1581.9491171,-44.3400001525879
1581.9647421,-41.9799995422363
1581.9803671,-39.3699989318848
1581.9959921,-37.0900001525879
1582.0116171,-35.5699996948242
1582.0272421,-34.939998626709
1582.0428671,-34.8800010681152
1582.0584921,-34.7099990844727
1582.0741171,-33.9000015258789
1582.0897421,-32.4099998474121
1582.1053671,-30.5599994659424
1582.1209921,-28.3899993896484
1582.1366171,-25.1399993896484
1582.1522421,-19.4400005340576
1582.1678671,-10.1999998092651
1582.1834921,2.46000003814697
1582.1991171,16.9599990844727
1582.2147421,30.8700008392334
1582.2303671,42.1100006103516
1582.2459921,49.6500015258789
1582.2616171,53.7400016784668
1582.2772421,55.6100006103516
1582.2928671,56.8899993896484
1582.3084921,58.7999992370605
1582.3241171,61.5699996948242
1582.3397421,64.5100021362305
1582.3553671,66.4199981689453
1582.3709921,65.879997253418
1582.3866171,61.6199989318848
1582.4022421,53.2799987792969
1582.4178671,41.6800003051758
1582.4334921,28.5100002288818
1582.4491171,15.6199998855591
1582.4647421,4.3600001335144
1582.4803671,-5.01000022888184
1582.4959921,-13.3299999237061
1582.5116171,-21.5900001525879
1582.5272421,-29.8700008392334
1582.5428671,-37.2099990844727
1582.5584921,-42.2200012207031
1582.5741171,-44.1500015258789
1582.5897421,-43.5999984741211
1582.6053671,-42.2299995422363
1582.6209921,-41.4799995422363
1582.6366171,-41.8400001525879
1582.6522421,-43.0099983215332
1582.6678671,-44.5499992370605
1582.6834921,-46.0900001525879
1582.6991171,-47.2400016784668
1582.7147421,-47.5
1582.7303671,-46.4700012207031
1582.7459921,-44.0800018310547
1582.7616171,-40.6699981689453
1582.7772421,-36.7099990844727
1582.7928671,-32.5999984741211
1582.8084921,-28.5599994659424
1582.8241171,-24.7399997711182
1582.8397421,-21.2099990844727
1582.8553671,-17.8400001525879
1582.8709921,-14.5500001907349
1582.8866171,-11.4099998474121
1582.9022421,-8.36999988555908
1582.9178671,-5.1100001335144
1582.9334921,-1.54999995231628
1582.9491171,1.78999996185303
1582.9647421,4.05999994277954
1582.9803671,4.84000015258789
1582.9959921,4.69999980926514
1583.0116171,5.26000022888184
1583.0272421,8.56999969482422
1583.0428671,16.1900005340576
1583.0584921,28.3400001525879
1583.0741171,43.6599998474121
1583.0897421,59.5900001525879
1583.1053671,73.3899993896484
1583.1209921,83.2399978637695
1583.1366171,88.75
1583.1522421,90.7799987792969
1583.1678671,91.0100021362305
1583.1834921,91.129997253418
1583.1991171,91.9899978637695
1583.2147421,93.0999984741211
1583.2303671,93.2600021362305
1583.2459921,91.1900024414063
1583.2616171,85.9199981689453
1583.2772421,76.9800033569336
1583.2928671,64.6999969482422
1583.3084921,50.3800010681152
1583.3241171,35.9199981689453
1583.3397421,23.0300006866455
1583.3553671,12.5600004196167
1583.3709921,4.32999992370605
1583.3866171,-2.58999991416931
1583.4022421,-9.47999954223633
1583.4178671,-17.2800006866455
1583.4334921,-26.0
1583.4491171,-34.7700004577637
1583.4647421,-42.4099998474121
1583.4803671,-48.0900001525879
1583.4959921,-51.4500007629395
1583.5116171,-52.6100006103516
1583.5272421,-52.1500015258789
1583.5428671,-51.0
1583.5584921,-50.2000007629395
1583.5741171,-50.4599990844727
1583.5897421,-51.75
1583.6053671,-53.5200004577637
1583.6209921,-55.2700004577637
1583.6366171,-56.7400016784668
1583.6522421,-57.7400016784668
1583.6678671,-58.0
1583.6834921,-57.3400001525879
1583.6991171,-55.8899993896484
1583.7147421,-53.9000015258789
1583.7303671,-51.5299987792969
1583.7459921,-48.8300018310547
1583.7616171,-45.9000015258789
1583.7772421,-43.0
1583.7928671,-40.4799995422363
1583.8084921,-38.3600006103516
1583.8241171,-35.8699989318848
1583.8397421,-31.3199996948242
1583.8553671,-22.9599990844727
1583.8709921,-10.2399997711182
1583.8866171,5.57999992370605
1583.9022421,22.2700004577637
1583.9178671,37.8499984741211
1583.9334921,51.2400016784668
1583.9491171,62.1500015258789
1583.9647421,70.4700012207031
1583.9803671,76.0500030517578
1583.9959921,78.8099975585938
1584.0116171,78.9599990844727
1584.0272421,77.0500030517578
1584.0428671,73.879997253418
1584.0584921,70.0
1584.0741171,65.2900009155273
1584.0897421,58.7900009155273
1584.1053671,49.5299987792969
1584.1209921,37.4199981689453
1584.1366171,23.5599994659424
1584.1522421,9.6899995803833
1584.1678671,-2.49000000953674
1584.1834921,-11.960000038147
1584.1991171,-18.6499996185303
1584.2147421,-23.7099990844727
1584.2303671,-28.8700008392334
1584.2459921,-35.1500015258789
1584.2616171,-42.2099990844727
1584.2772421,-48.8800010681152
1584.2928671,-54.3400001525879
1584.3084921,-58.6300010681152
1584.3241171,-62.2099990844727
1584.3397421,-65.129997253418
1584.3553671,-66.870002746582
1584.3709921,-66.75
1584.3866171,-64.6600036621094
1584.4022421,-61.4000015258789
1584.4178671,-58.4099998474121
1584.4334921,-57.0
1584.4491171,-57.4599990844727
1584.4647421,-58.7900009155273
1584.4803671,-59.1300010681152
1584.4959921,-56.9000015258789
1584.5116171,-51.9799995422363
1584.5272421,-45.810001373291
1584.5428671,-40.0999984741211
1584.5584921,-35.6500015258789
1584.5741171,-32.4099998474121
1584.5897421,-30.1000003814697
1584.6053671,-28.4500007629395
1584.6209921,-26.9500007629395
1584.6366171,-24.6700000762939
1584.6522421,-20.2900009155273
1584.6678671,-12.3900003433228
1584.6834921,-0.219999998807907
1584.6991171,15.5699996948242
1584.7147421,33.1500015258789
1584.7303671,50.4500007629395
1584.7459921,65.9599990844727
1584.7616171,78.8399963378906
1584.7772421,88.5699996948242
1584.7928671,94.8600006103516
1584.8084921,97.7600021362305
1584.8241171,97.8499984741211
1584.8397421,96.120002746582
1584.8553671,93.5800018310547
1584.8709921,90.7699966430664
1584.8866171,87.2600021362305
1584.9022421,81.7799987792969
1584.9178671,72.8899993896484
1584.9334921,60.0699996948242
1584.9491171,44.5299987792969
1584.9647421,28.7000007629395
1584.9803671,14.960000038147
1584.9959921,4.55999994277954
1585.0116171,-2.35999989509583
1585.0272421,-6.51999998092651
1585.0428671,-9.02000045776367
1585.0584921,-11.3599996566772
1585.0741171,-15.1000003814697
1585.0897421,-20.9500007629395
1585.1053671,-28.2299995422363
1585.1209921,-35.4199981689453
1585.1366171,-41.2299995422363
1585.1522421,-45.4300003051758
1585.1678671,-48.6800003051758
1585.1834921,-51.6699981689453
1585.1991171,-54.4099998474121
1585.2147421,-56.4099998474121
1585.2303671,-57.2299995422363
1585.2459921,-56.7099990844727
1585.2616171,-55.0400009155273
1585.2772421,-52.5699996948242
1585.2928671,-49.7400016784668
1585.3084921,-46.810001373291
1585.3241171,-43.8199996948242
1585.3397421,-40.5499992370605
1585.3553671,-36.8499984741211
1585.3709921,-32.810001373291
1585.3866171,-28.8199996948242
1585.4022421,-25.4099998474121
