Time(s),Value(%)
1738.0116171,83.6900024414063
1738.0272421,86.0599975585938
1738.0428671,88.2300033569336
1738.0584921,89.6800003051758
1738.0741171,89.5100021362305
1738.0897421,86.4899978637695
1738.1053671,79.4599990844727
1738.1209921,68.0500030517578
1738.1366171,53.2900009155273
1738.1522421,37.25
1738.1678671,21.9799995422363
1738.1834921,8.72000026702881
1738.1991171,-2.13000011444092
1738.2147421,-10.9399995803833
1738.2303671,-18.4899997711182
1738.2459921,-25.5200004577637
1738.2616171,-32.2900009155273
1738.2772421,-38.7099990844727
1738.2928671,-44.5499992370605
1738.3084921,-49.4199981689453
1738.3241171,-52.9799995422363
1738.3397421,-55.2000007629395
1738.3553671,-56.5800018310547
1738.3709921,-57.8600006103516
1738.3866171,-59.6100006103516
1738.4022421,-61.9000015258789
1738.4178671,-64.0400009155273
1738.4334921,-64.9400024414063
1738.4491171,-63.8400001525879
1738.4647421,-60.6800003051758
1738.4803671,-55.8499984741211
1738.4959921,-49.9799995422363
1738.5116171,-44.1199989318848
1738.5272421,-39.5699996948242
1738.5428671,-37.1100006103516
1738.5584921,-36.5299987792969
1738.5741171,-36.7799987792969
1738.5897421,-36.7799987792969
1738.6053671,-35.7299995422363
1738.6209921,-32.9500007629395
1738.6366171,-27.4500007629395
1738.6522421,-17.8899993896484
1738.6678671,-3.4300000667572
1738.6834921,15.1899995803833
1738.6991171,35.6199989318848
1738.7147421,54.7700004577637
1738.7303671,70.0100021362305
1738.7459921,79.8099975585938
1738.7616171,84.1900024414063
1738.7772421,84.6900024414063
1738.7928671,83.5599975585938
1738.8084921,82.5500030517578
1738.8241171,82.2900009155273
1738.8397421,82.4100036621094
1738.8553671,81.8099975585938
1738.8709921,78.9199981689453
1738.8866171,72.2600021362305
1738.9022421,61.3600006103516
1738.9178671,47.1300010681152
1738.9334921,31.5300006866455
1738.9491171,16.7900009155273
1738.9647421,4.6399998664856
1738.9803671,-4.28999996185303
1738.9959921,-10.5500001907349
1739.0116171,-15.1499996185303
1739.0272421,-18.9400005340576
1739.0428671,-22.4899997711182
1739.0584921,-26.3899993896484
1739.0741171,-31.0900001525879
1739.0897421,-36.4099998474121
1739.1053671,-41.2700004577637
1739.1209921,-44.4099998474121
1739.1366171,-45.25
1739.1522421,-44.2200012207031
1739.1678671,-42.439998626709
1739.1834921,-40.9300003051758
1739.1991171,-40.2099990844727
1739.2147421,-40.2900009155273
1739.2303671,-41.0400009155273
1739.2459921,-42.25
1739.2616171,-43.4599990844727
1739.2772421,-44.0299987792969
1739.2928671,-43.5699996948242
1739.3084921,-41.9599990844727
1739.3241171,-39.0800018310547
1739.3397421,-34.4599990844727
1739.3553671,-27.2000007629395
1739.3709921,-16.3099994659424
1739.3866171,-1.72000002861023
1739.4022421,15.0900001525879
1739.4178671,31.4899997711182
1739.4334921,44.939998626709
1739.4491171,54.2200012207031
1739.4647421,59.8800010681152
1739.4803671,63.5800018310547
1739.4959921,66.75
1739.5116171,69.6500015258789
1739.5272421,71.6900024414063
1739.5428671,72.1900024414063
1739.5584921,70.8499984741211
1739.5741171,67.4599990844727
1739.5897421,61.4799995422363
1739.6053671,52.4900016784668
1739.6209921,40.8899993896484
1739.6366171,28.0599994659424
1739.6522421,15.5699996948242
1739.6678671,4.59999990463257
1739.6834921,-4.1100001335144
1739.6991171,-10.3400001525879
1739.7147421,-14.75
1739.7303671,-18.7700004577637
1739.7459921,-23.8199996948242
1739.7616171,-30.3799991607666
1739.7772421,-37.810001373291
1739.7928671,-44.7799987792969
1739.8084921,-50.2700004577637
1739.8241171,-54.2200012207031
1739.8397421,-57.2599983215332
1739.8553671,-59.9700012207031
1739.8709921,-62.3300018310547
1739.8866171,-63.7700004577637
1739.9022421,-63.5400009155273
1739.9178671,-61.4300003051758
1739.9334921,-58.0299987792969
1739.9491171,-54.2599983215332
1739.9647421,-50.6300010681152
1739.9803671,-46.939998626709
1739.9959921,-42.6500015258789
1740.0116171,-37.4500007629395
1740.0272421,-31.7299995422363
1740.0428671,-26.3799991607666
1740.0584921,-22.0900001525879
1740.0741171,-18.8600006103516
1740.0897421,-16.2099990844727
1740.1053671,-13.5900001525879
1740.1209921,-10.4700002670288
1740.1366171,-6.42999982833862
1740.1522421,-1.37999999523163
1740.1678671,4.25
1740.1834921,10.0299997329712
1740.1991171,16.2999992370605
1740.2147421,24.4099998474121
1740.2303671,35.5299987792969
1740.2459921,49.1800003051758
1740.2616171,63.0299987792969
1740.2772421,74.3600006103516
1740.2928671,81.8099975585938
1740.3084921,86.0
1740.3241171,88.6800003051758
1740.3397421,91.370002746582
1740.3553671,94.629997253418
1740.3709921,98.2699966430664
1740.3866171,101.550003051758
1740.4022421,103.389999389648
1740.4178671,102.620002746582
1740.4334921,98.2900009155273
1740.4491171,89.6900024414063
1740.4647421,76.6699981689453
1740.4803671,60.1100006103516
1740.4959921,42.0200004577637
1740.5116171,24.8099994659424
1740.5272421,10.3500003814697
1740.5428671,-0.550000011920929
1740.5584921,-8.15999984741211
1740.5741171,-13.5100002288818
1740.5897421,-18.0400009155273
1740.6053671,-23.0699996948242
1740.6209921,-29.3099994659424
1740.6366171,-36.6300010681152
1740.6522421,-44.0400009155273
1740.6678671,-50.0699996948242
1740.6834921,-53.5400009155273
1740.6991171,-54.5099983215332
1740.7147421,-54.4000015258789
1740.7303671,-54.9199981689453
1740.7459921,-56.8699989318848
1740.7616171,-59.8499984741211
1740.7772421,-62.810001373291
1740.7928671,-64.6999969482422
1740.8084921,-64.8600006103516
1740.8241171,-63.1800003051758
1740.8397421,-60.0400009155273
1740.8553671,-55.9799995422363
1740.8709921,-51.3600006103516
1740.8866171,-45.9099998474121
1740.9022421,-38.6500015258789
1740.9178671,-28.6000003814697
1740.9334921,-15.6999998092651
1740.9491171,-1.19000005722046
1740.9647421,12.9700002670288
1740.9803671,24.9899997711182
1740.9959921,33.9300003051758
1741.0116171,39.8300018310547
1741.0272421,43.7000007629395
1741.0428671,46.8600006103516
1741.0584921,50.1699981689453
1741.0741171,53.3800010681152
1741.0897421,55.2900009155273
1741.1053671,54.5200004577637
1741.1209921,50.2799987792969
1741.1366171,42.5999984741211
1741.1522421,32.2299995422363
1741.1678671,20.5400009155273
1741.1834921,9.26000022888184
1741.1991171,-0.159999996423721
1741.2147421,-7.28000020980835
1741.2303671,-12.710000038147
1741.2459921,-17.5300006866455
1741.2616171,-22.2800006866455
1741.2772421,-26.6599998474121
1741.2928671,-29.9699993133545
1741.3084921,-31.7399997711182
1741.3241171,-32.0800018310547
1741.3397421,-31.7399997711182
1741.3553671,-31.6900005340576
1741.3709921,-32.7599983215332
1741.3866171,-35.4300003051758
1741.4022421,-39.7900009155273
1741.4178671,-45.4199981689453
1741.4334921,-51.4799995422363
1741.4491171,-56.939998626709
1741.4647421,-60.8400001525879
1741.4803671,-62.439998626709
1741.4959921,-61.2200012207031
1741.5116171,-57.0800018310547
1741.5272421,-50.560001373291
1741.5428671,-42.8800010681152
1741.5584921,-35.4099998474121
1741.5741171,-29.1200008392334
1741.5897421,-24.4500007629395
1741.6053671,-21.4099998474121
1741.6209921,-19.9099998474121
1741.6366171,-19.6399993896484
1741.6522421,-20.0900001525879
1741.6678671,-20.1599998474121
1741.6834921,-18.1299991607666
1741.6991171,-12.3199996948242
1741.7147421,-1.91999995708466
1741.7303671,12.5600004196167
1741.7459921,29.4699993133545
1741.7616171,46.1300010681152
1741.7772421,59.7700004577637
1741.7928671,68.7300033569336
1741.8084921,72.9199981689453
1741.8241171,73.25
1741.8397421,71.1500015258789
1741.8553671,68.1800003051758
1741.8709921,65.6600036621094
1741.8866171,63.9099998474121
1741.9022421,61.9500007629395
1741.9178671,58.2999992370605
1741.9334921,52.1399993896484
1741.9491171,44.060001373291
1741.9647421,35.5099983215332
1741.9803671,27.7299995422363
1741.9959921,21.0799999237061
1742.0116171,14.9700002670288
1742.0272421,8.4399995803833
1742.0428671,0.920000016689301
1742.0584921,-7.30999994277954
1742.0741171,-15.3400001525879
1742.0897421,-22.2199993133545
1742.1053671,-27.5100002288818
1742.1209921,-31.4799995422363
1742.1366171,-34.7799987792969
1742.1522421,-37.9500007629395
1742.1678671,-41.1399993896484
1742.1834921,-43.9599990844727
1742.1991171,-45.75
1742.2147421,-46.060001373291
1742.2303671,-45.1100006103516
1742.2459921,-43.75
1742.2616171,-42.7000007629395
1742.2772421,-42.0099983215332
1742.2928671,-41.189998626709
1742.3084921,-39.7099990844727
1742.3241171,-37.1300010681152
1742.3397421,-32.8800010681152
1742.3553671,-26.3099994659424
1742.3709921,-17.0599994659424
1742.3866171,-5.61999988555908
1742.4022421,6.73000001907349
1742.4178671,18.5300006866455
1742.4334921,28.6900005340576
1742.4491171,36.810001373291
1742.4647421,43.0
1742.4803671,47.8300018310547
1742.4959921,52.0099983215332
1742.5116171,55.9199981689453
1742.5272421,59.4799995422363
1742.5428671,62.3800010681152
1742.5584921,64.1800003051758
1742.5741171,64.0500030517578
1742.5897421,60.7299995422363
1742.6053671,53.1300010681152
1742.6209921,41.3400001525879
1742.6366171,27.0200004577637
1742.6522421,12.7799997329712
1742.6678671,0.699999988079071
1742.6834921,-8.47000026702881
1742.6991171,-15.0
1742.7147421,-19.3500003814697
1742.7303671,-22.1399993896484
1742.7459921,-24.3400001525879
1742.7616171,-27.0300006866455
1742.7772421,-30.7600002288818
1742.7928671,-35.1199989318848
1742.8084921,-39.0400009155273
1742.8241171,-41.4199981689453
1742.8397421,-41.75
1742.8553671,-40.560001373291
1742.8709921,-39.2999992370605
1742.8866171,-39.3199996948242
1742.9022421,-40.8199996948242
1742.9178671,-42.8400001525879
1742.9334921,-44.1500015258789
1742.9491171,-44.0
1742.9647421,-42.3300018310547
1742.9803671,-39.7099990844727
1742.9959921,-36.939998626709
1743.0116171,-34.6500015258789
1743.0272421,-33.1300010681152
1743.0428671,-32.0400009155273
1743.0584921,-30.3799991607666
1743.0741171,-26.9899997711182
1743.0897421,-21.2999992370605
1743.1053671,-13.3400001525879
1743.1209921,-2.97000002861023
1743.1366171,10.3299999237061
1743.1522421,26.7099990844727
1743.1678671,44.9000015258789
1743.1834921,62.2599983215332
1743.1991171,76.0299987792969
1743.2147421,85.0100021362305
1743.2303671,90.1399993896484
1743.2459921,93.379997253418
1743.2616171,96.1999969482422
1743.2772421,98.9499969482422
1743.2928671,101.300003051758
1743.3084921,102.550003051758
1743.3241171,101.830001831055
1743.3397421,98.4400024414063
1743.3553671,92.2399978637695
1743.3709921,83.5899963378906
1743.3866171,72.7799987792969
1743.4022421,59.6699981689453
1743.4178671,44.3300018310547
1743.4334921,27.9799995422363
1743.4491171,12.6800003051758
1743.4647421,-0.0500000007450581
1743.4803671,-10.2399997711182
1743.4959921,-19.2399997711182
1743.5116171,-28.3500003814697
1743.5272421,-37.8199996948242
1743.5428671,-46.810001373291
1743.5584921,-54.0699996948242
1743.5741171,-58.7400016784668
1743.5897421,-60.9199981689453
1743.6053671,-61.7799987792969
1743.6209921,-62.8600006103516
1743.6366171,-65.129997253418
1743.6522421,-68.4599990844727
1743.6678671,-71.7099990844727
1743.6834921,-73.4800033569336
1743.6991171,-73.0899963378906
1743.7147421,-71.0400009155273
1743.7303671,-68.4300003051758
1743.7459921,-66.0599975585938
1743.7616171,-63.9900016784668
1743.7772421,-61.4900016784668
1743.7928671,-57.1100006103516
1743.8084921,-49.2700004577637
1743.8241171,-37.0400009155273
1743.8397421,-20.8600006103516
1743.8553671,-2.42000007629395
1743.8709921,15.7299995422363
1743.8866171,31.2999992370605
1743.9022421,43.0699996948242
1743.9178671,51.25
1743.9334921,56.75
1743.9491171,60.3899993896484
1743.9647421,62.5900001525879
1743.9803671,63.4799995422363
1743.9959921,62.9500007629395
1744.0116171,60.6199989318848
1744.0272421,55.9900016784668
1744.0428671,48.689998626709
1744.0584921,38.7700004577637
1744.0741171,26.7800006866455
1744.0897421,13.75
1744.1053671,0.870000004768372
1744.1209921,-10.7399997711182
1744.1366171,-20.3799991607666
1744.1522421,-27.9300003051758
1744.1678671,-33.9099998474121
1744.1834921,-38.939998626709
1744.1991171,-43.3600006103516
1744.2147421,-47.3199996948242
1744.2303671,-50.810001373291
1744.2459921,-53.5200004577637
1744.2616171,-54.9300003051758
1744.2772421,-54.7999992370605
1744.2928671,-53.3600006103516
1744.3084921,-51.189998626709
1744.3241171,-48.8899993896484
1744.3397421,-46.8199996948242
1744.3553671,-45.1399993896484
1744.3709921,-43.8600006103516
1744.3866171,-42.8600006103516
1744.4022421,-41.8800010681152
1744.4178671,-40.4900016784668
1744.4334921,-38.2599983215332
1744.4491171,-35.0400009155273
1744.4647421,-30.9599990844727
1744.4803671,-26.2700004577637
1744.4959921,-21.4899997711182
1744.5116171,-17.3500003814697
1744.5272421,-14.2399997711182
1744.5428671,-11.5500001907349
1744.5584921,-7.6399998664856
1744.5741171,-0.370000004768372
1744.5897421,11.8500003814697
1744.6053671,28.9799995422363
1744.6209921,49.0200004577637
1744.6366171,68.9100036621094
1744.6522421,85.9899978637695
1744.6678671,98.8499984741211
1744.6834921,107.629997253418
1744.6991171,113.449996948242
1744.7147421,117.48999786377
1744.7303671,120.23999786377
1744.7459921,121.48999786377
1744.7616171,120.970001220703
1744.7772421,118.48999786377
1744.7928671,113.569999694824
1744.8084921,105.230003356934
1744.8241171,92.4599990844727
1744.8397421,75.1399993896484
1744.8553671,54.689998626709
1744.8709921,33.8699989318848
1744.8866171,15.5200004577637
1744.9022421,1.12999999523163
1744.9178671,-9.68000030517578
1744.9334921,-18.4400005340576
1744.9491171,-26.6299991607666
1744.9647421,-34.8400001525879
1744.9803671,-42.7900009155273
1744.9959921,-49.810001373291
1745.0116171,-55.2400016784668
1745.0272421,-58.7599983215332
1745.0428671,-60.4900016784668
1745.0584921,-61.1699981689453
1745.0741171,-61.8699989318848
1745.0897421,-63.3300018310547
1745.1053671,-65.3199996948242
1745.1209921,-66.7300033569336
1745.1366171,-66.7200012207031
1745.1522421,-65.5899963378906
1745.1678671,-64.3899993896484
1745.1834921,-63.9500007629395
1745.1991171,-64.2600021362305
1745.2147421,-64.3199996948242
1745.2303671,-62.3199996948242
1745.2459921,-56.2200012207031
1745.2616171,-44.6699981689453
1745.2772421,-27.75
1745.2928671,-7.1100001335144
1745.3084921,14.5299997329712
1745.3241171,34.3300018310547
1745.3397421,50.189998626709
1745.3553671,61.5499992370605
1745.3709921,69.3300018310547
1745.3866171,74.879997253418
1745.4022421,78.7900009155273
1745.4178671,80.870002746582
1745.4334921,80.879997253418
1745.4491171,78.9000015258789
1745.4647421,74.75
1745.4803671,67.6399993896484
1745.4959921,56.6399993896484
1745.5116171,41.7999992370605
1745.5272421,24.5499992370605
1745.5428671,7.1399998664856
1745.5584921,-8.21000003814697
1745.5741171,-20.0699996948242
1745.5897421,-27.9799995422363
1745.6053671,-32.560001373291
1745.6209921,-35.2299995422363
1745.6366171,-37.5699996948242
1745.6522421,-40.6500015258789
1745.6678671,-44.5900001525879
1745.6834921,-48.7599983215332
1745.6991171,-52.4500007629395
1745.7147421,-55.4199981689453
1745.7303671,-57.7299995422363
1745.7459921,-59.3800010681152
1745.7616171,-60.0800018310547
1745.7772421,-59.5999984741211
1745.7928671,-58.0900001525879
1745.8084921,-56.0900001525879
1745.8241171,-54.1699981689453
1745.8397421,-52.5299987792969
1745.8553671,-50.9300003051758
1745.8709921,-49.1100006103516
1745.8866171,-47.1300010681152
1745.9022421,-45.2700004577637
1745.9178671,-43.5800018310547
1745.9334921,-41.5299987792969
1745.9491171,-38.439998626709
1745.9647421,-33.9799995422363
1745.9803671,-28.2900009155273
1745.9959921,-21.3999996185303
1746.0116171,-12.6700000762939
1746.0272421,-0.920000016689301
1746.0428671,14.6499996185303
1746.0584921,33.5299987792969
1746.0741171,53.5900001525879
1746.0897421,72.0599975585938
1746.1053671,87.0500030517578
1746.1209921,98.129997253418
1746.1366171,105.870002746582
1746.1522421,110.98999786377
1746.1678671,114.169998168945
1746.1834921,115.98999786377
1746.1991171,116.73999786377
1746.2147421,116.01000213623
1746.2303671,112.639999389648
1746.2459921,105.190002441406
1746.2616171,92.75
1746.2772421,75.6800003051758
1746.2928671,55.6500015258789
1746.3084921,34.9599990844727
1746.3241171,15.8299999237061
1746.3397421,-0.209999993443489
1746.3553671,-12.7299995422363
1746.3709921,-22.25
1746.3866171,-29.8199996948242
1746.4022421,-36.2599983215332
1746.4178671,-41.810001373291
1746.4334921,-46.4099998474121
1746.4491171,-49.9900016784668
1746.4647421,-52.6300010681152
1746.4803671,-54.6399993896484
1746.4959921,-56.5800018310547
1746.5116171,-58.8400001525879
1746.5272421,-61.1800003051758
1746.5428671,-62.7400016784668
1746.5584921,-62.6100006103516
1746.5741171,-60.6399993896484
1746.5897421,-57.5499992370605
1746.6053671,-54.4700012207031
1746.6209921,-52.189998626709
1746.6366171,-50.6599998474121
1746.6522421,-49.1300010681152
1746.6678671,-46.5699996948242
1746.6834921,-41.9199981689453
1746.6991171,-34.0
1746.7147421,-21.8400001525879
1746.7303671,-5.59999990463257
1746.7459921,12.9799995422363
1746.7616171,31.25
1746.7772421,46.8199996948242
1746.7928671,58.6800003051758
1746.8084921,67.1699981689453
1746.8241171,73.2200012207031
1746.8397421,77.5500030517578
1746.8553671,80.4199981689453
1746.8709921,81.8099975585938
1746.8866171,81.6600036621094
1746.9022421,79.7900009155273
1746.9178671,75.6699981689453
1746.9334921,68.370002746582
1746.9491171,57.1500015258789
1746.9647421,42.2799987792969
1746.9803671,25.3199996948242
1746.9959921,8.5
1747.0116171,-6.19999980926514
1747.0272421,-17.6900005340576
1747.0428671,-26.0499992370605
1747.0584921,-32.4300003051758
1747.0741171,-38.3899993896484
1747.0897421,-45.189998626709
1747.1053671,-53.1399993896484
1747.1209921,-61.5099983215332
1747.1366171,-68.8600006103516
1747.1522421,-73.5599975585938
1747.1678671,-74.620002746582
1747.1834921,-72.1900024414063
1747.1991171,-67.5100021362305
1747.2147421,-62.5800018310547
1747.2303671,-59.5499992370605
1747.2459921,-59.7099990844727
1747.2616171,-62.560001373291
1747.2772421,-65.9100036621094
1747.2928671,-67.3199996948242
1747.3084921,-65.629997253418
1747.3241171,-61.3199996948242
1747.3397421,-55.7000007629395
1747.3553671,-50.0499992370605
1747.3709921,-44.939998626709
1747.3866171,-40.310001373291
1747.4022421,-35.8300018310547
1747.4178671,-31.4099998474121
1747.4334921,-26.9699993133545
1747.4491171,-21.7299995422363
1747.4647421,-13.8299999237061
1747.4803671,-1.20000004768372
1747.4959921,16.8600006103516
1747.5116171,39.0
1747.5272421,62.1699981689453
1747.5428671,82.9300003051758
1747.5584921,98.75
1747.5741171,108.870002746582
1747.5897421,114.150001525879
1747.6053671,116.349998474121
1747.6209921,117.269996643066
1747.6366171,117.980003356934
1747.6522421,118.370002746582
1747.6678671,117.319999694824
1747.6834921,113.690002441406
1747.6991171,107.059997558594
1747.7147421,97.6900024414063
1747.7303671,85.9199981689453
1747.7459921,72.0299987792969
1747.7616171,56.5099983215332
1747.7772421,40.0900001525879
1747.7928671,23.4300003051758
1747.8084921,7.34000015258789
1747.8241171,-7.21999979019165
1747.8397421,-19.5100002288818
1747.8553671,-29.5400009155273
1747.8709921,-38.0699996948242
1747.8866171,-46.0200004577637
1747.9022421,-53.7700004577637
1747.9178671,-60.9300003051758
1747.9334921,-66.6699981689453
1747.9491171,-70.2200012207031
1747.9647421,-71.3000030517578
1747.9803671,-70.2900009155273
1747.9959921,-68.1100006103516
1748.0116171,-65.6100006103516
1748.0272421,-63.4199981689453
1748.0428671,-61.9900016784668
1748.0584921,-61.4799995422363
1748.0741171,-61.4700012207031
1748.0897421,-61.1100006103516
1748.1053671,-59.6599998474121
1748.1209921,-56.7900009155273
1748.1366171,-52.1199989318848
1748.1522421,-44.7599983215332
1748.1678671,-33.5099983215332
1748.1834921,-17.8400001525879
1748.1991171,1.37999999523163
1748.2147421,21.8999996185303
1748.2303671,40.9500007629395
1748.2459921,56.3499984741211
1748.2616171,67.2399978637695
1748.2772421,73.9599990844727
1748.2928671,77.5699996948242
1748.3084921,79.3000030517578
1748.3241171,80.0599975585938
1748.3397421,79.8399963378906
1748.3553671,77.6399993896484
1748.3709921,72.0299987792969
