Time(s),Value(%)
1825.010146,-105.669998168945
1825.025771,-99.2099990844727
1825.041396,-93.0299987792969
1825.057021,-87.2600021362305
1825.072646,-81.9300003051758
1825.088271,-77.0199966430664
1825.103896,-72.4599990844727
1825.119521,-68.2399978637695
1825.135146,-64.4199981689453
1825.150771,-61.1100006103516
1825.166396,-58.3199996948242
1825.182021,-56.0099983215332
1825.197646,-54.1399993896484
1825.213271,-52.7000007629395
1825.228896,-51.5499992370605
1825.244521,-50.4099998474121
1825.260146,-48.8899993896484
1825.275771,-46.7000007629395
1825.291396,-43.7999992370605
1825.307021,-40.3800010681152
1825.322646,-36.7299995422363
1825.338271,-33.0200004577637
1825.353896,-29.2099990844727
1825.369521,-25.1399993896484
1825.385146,-20.7099990844727
1825.400771,-15.9799995422363
1825.416396,-11.0500001907349
1825.432021,-6.07999992370605
1825.447646,-1.19000005722046
1825.463271,3.42000007629395
1825.478896,7.53999996185303
1825.494521,10.9899997711182
1825.510146,13.8299999237061
1825.525771,16.2800006866455
1825.541396,18.5599994659424
1825.557021,20.75
1825.572646,22.7700004577637
1825.588271,24.5400009155273
1825.603896,26.0200004577637
1825.619521,27.2199993133545
1825.635146,28.1800003051758
1825.650771,28.8299999237061
1825.666396,29.0100002288818
1825.682021,28.6100006103516
1825.697646,27.7700004577637
1825.713271,26.7800006866455
1825.728896,25.9699993133545
1825.744521,25.4899997711182
1825.760146,25.3600006103516
1825.775771,25.4899997711182
1825.791396,25.7999992370605
1825.807021,26.25
1825.822646,26.8099994659424
1825.838271,27.4400005340576
1825.853896,28.0599994659424
1825.869521,28.5799999237061
1825.885146,29.0100002288818
1825.900771,29.4699993133545
1825.916396,30.2399997711182
1825.932021,31.6900005340576
1825.947646,34.2000007629395
1825.963271,37.9000015258789
1825.978896,42.6199989318848
1825.994521,47.9500007629395
1826.010146,53.3600006103516
1826.025771,58.4799995422363
1826.041396,63.1399993896484
1826.057021,67.4499969482422
1826.072646,71.6999969482422
1826.088271,76.1900024414063
1826.103896,81.0100021362305
1826.119521,86.0800018310547
1826.135146,91.2200012207031
1826.150771,96.3099975585938
1826.166396,101.160003662109
1826.182021,105.440002441406
1826.197646,108.559997558594
1826.213271,110.040000915527
1826.228896,109.819999694824
1826.244521,108.279998779297
1826.260146,106.0
1826.275771,103.430000305176
1826.291396,100.870002746582
1826.307021,98.4199981689453
1826.322646,96.0500030517578
1826.338271,93.629997253418
1826.353896,90.9400024414063
1826.369521,87.7799987792969
1826.385146,84.1600036621094
1826.400771,80.2300033569336
1826.416396,76.2699966430664
1826.432021,72.4599990844727
1826.447646,68.9100036621094
1826.463271,65.5299987792969
1826.478896,62.0999984741211
1826.494521,58.4199981689453
1826.510146,54.4099998474121
1826.525771,50.0800018310547
1826.541396,45.4000015258789
1826.557021,40.3600006103516
1826.572646,35.060001373291
1826.588271,29.8600006103516
1826.603896,25.3500003814697
1826.619521,22.0200004577637
1826.635146,20.0499992370605
1826.650771,19.2600002288818
1826.666396,19.4400005340576
1826.682021,20.4599990844727
1826.697646,22.3700008392334
1826.713271,25.2000007629395
1826.728896,28.7600002288818
1826.744521,32.6800003051758
1826.760146,36.5299987792969
1826.775771,40.0800018310547
1826.791396,43.3899993896484
1826.807021,46.5499992370605
1826.822646,49.4300003051758
1826.838271,51.7299995422363
1826.853896,53.2400016784668
1826.869521,54.0
1826.885146,54.2400016784668
1826.900771,54.189998626709
1826.916396,53.9300003051758
1826.932021,53.4500007629395
1826.947646,52.7099990844727
1826.963271,51.7099990844727
1826.978896,50.5200004577637
1826.994521,49.189998626709
1827.010146,47.7999992370605
1827.025771,46.3400001525879
1827.041396,44.7299995422363
1827.057021,42.8499984741211
1827.072646,40.560001373291
1827.088271,37.8400001525879
1827.103896,34.810001373291
1827.119521,31.6900005340576
1827.135146,28.6800003051758
1827.150771,25.8700008392334
1827.166396,23.2800006866455
1827.182021,20.7999992370605
1827.197646,18.2600002288818
1827.213271,15.5299997329712
1827.228896,12.5699996948242
1827.244521,9.40999984741211
1827.260146,6.05999994277954
1827.275771,2.50999999046326
1827.291396,-1.1599999666214
1827.307021,-4.75
1827.322646,-7.96000003814697
1827.338271,-10.3699998855591
1827.353896,-11.75
1827.369521,-12.0600004196167
1827.385146,-11.4499998092651
1827.400771,-10.1800003051758
1827.416396,-8.53999996185303
1827.432021,-6.82999992370605
1827.447646,-5.21999979019165
1827.463271,-3.73000001907349
1827.478896,-2.19000005722046
1827.494521,-0.419999986886978
1827.510146,1.6599999666214
1827.525771,3.98000001907349
1827.541396,6.3899998664856
1827.557021,8.73999977111816
1827.572646,10.8999996185303
1827.588271,12.6800003051758
1827.603896,13.7700004577637
1827.619521,13.8900003433228
1827.635146,12.960000038147
1827.650771,11.1800003051758
1827.666396,8.89000034332275
1827.682021,6.42999982833862
1827.697646,4.05000019073486
1827.713271,1.8400000333786
1827.728896,-0.189999997615814
1827.744521,-2.17000007629395
1827.760146,-4.23999977111816
1827.775771,-6.51000022888184
1827.791396,-9.02000045776367
1827.807021,-11.7700004577637
1827.822646,-14.8199996948242
1827.838271,-18.2399997711182
1827.853896,-21.9899997711182
1827.869521,-25.8099994659424
1827.885146,-29.3500003814697
1827.900771,-32.3699989318848
1827.916396,-34.9300003051758
1827.932021,-37.2400016784668
1827.947646,-39.3699989318848
1827.963271,-41.2900009155273
1827.978896,-43.0
1827.994521,-44.5999984741211
1828.010146,-46.2000007629395
1828.025771,-47.7400016784668
1828.041396,-48.9799995422363
1828.057021,-49.5699996948242
1828.072646,-49.2599983215332
1828.088271,-47.9700012207031
1828.103896,-45.7999992370605
1828.119521,-42.9900016784668
1828.135146,-39.8300018310547
1828.150771,-36.6399993896484
1828.166396,-33.6199989318848
1828.182021,-30.8700008392334
1828.197646,-28.3799991607666
1828.213271,-26.1100006103516
1828.228896,-24.0
1828.244521,-22.0200004577637
1828.260146,-20.1700000762939
1828.275771,-18.4899997711182
1828.291396,-16.9899997711182
1828.307021,-15.7200002670288
1828.322646,-14.789999961853
1828.338271,-14.3400001525879
1828.353896,-14.4399995803833
1828.369521,-15.039999961853
1828.385146,-15.960000038147
1828.400771,-16.9400005340576
1828.416396,-17.7900009155273
1828.432021,-18.4400005340576
1828.447646,-18.9200000762939
1828.463271,-19.3999996185303
1828.478896,-20.1200008392334
1828.494521,-21.25
1828.510146,-22.8500003814697
1828.525771,-24.8400001525879
1828.541396,-27.1900005340576
1828.557021,-29.8999996185303
1828.572646,-32.8499984741211
1828.588271,-35.75
1828.603896,-38.1699981689453
1828.619521,-39.8499984741211
1828.635146,-40.9300003051758
1828.650771,-41.7799987792969
1828.666396,-42.6199989318848
1828.682021,-43.3800010681152
1828.697646,-43.8699989318848
1828.713271,-44.0
1828.728896,-43.7700004577637
1828.744521,-43.310001373291
1828.760146,-42.6800003051758
1828.775771,-41.9300003051758
1828.791396,-41.0800018310547
1828.807021,-40.1100006103516
1828.822646,-38.9799995422363
1828.838271,-37.6599998474121
1828.853896,-36.1399993896484
1828.869521,-34.3800010681152
1828.885146,-32.2200012207031
1828.900771,-29.5100002288818
1828.916396,-26.2299995422363
1828.932021,-22.5699996948242
1828.947646,-18.8400001525879
1828.963271,-15.3699998855591
1828.978896,-12.3100004196167
1828.994521,-9.64999961853027
1829.010146,-7.30000019073486
1829.025771,-5.19000005722046
1829.041396,-3.36999988555908
1829.057021,-1.96000003814697
1829.072646,-1.0
1829.088271,-0.469999998807907
1829.103896,-0.360000014305115
1829.119521,-0.629999995231628
1829.135146,-1.20000004768372
1829.150771,-1.87000000476837
1829.166396,-2.41000008583069
1829.182021,-2.67000007629395
1829.197646,-2.72000002861023
1829.213271,-2.72000002861023
1829.228896,-2.71000003814697
1829.244521,-2.59999990463257
1829.260146,-2.28999996185303
1829.275771,-1.75
1829.291396,-1.03999996185303
1829.307021,-0.349999994039536
1829.322646,0.129999995231628
1829.338271,0.259999990463257
1829.353896,0.0
1829.369521,-0.600000023841858
1829.385146,-1.58000004291534
1829.400771,-2.94000005722046
1829.416396,-4.61999988555908
1829.432021,-6.32999992370605
1829.447646,-7.65000009536743
1829.463271,-8.30000019073486
1829.478896,-8.35999965667725
1829.494521,-8.10999965667725
1829.510146,-7.76999998092651
1829.525771,-7.34000015258789
1829.541396,-6.71999979019165
1829.557021,-5.86999988555908
1829.572646,-4.82000017166138
1829.588271,-3.5699999332428
1829.603896,-2.04999995231628
1829.619521,-0.129999995231628
1829.635146,2.1800000667572
1829.650771,4.78999996185303
1829.666396,7.53000020980835
1829.682021,10.2399997711182
1829.697646,12.8299999237061
1829.713271,15.2799997329712
1829.728896,17.5699996948242
1829.744521,19.7399997711182
1829.760146,21.8600006103516
1829.775771,23.9500007629395
1829.791396,25.9500007629395
1829.807021,27.7900009155273
1829.822646,29.4099998474121
1829.838271,30.7999992370605
1829.853896,31.9799995422363
1829.869521,32.9599990844727
1829.885146,33.6599998474121
1829.900771,34.0200004577637
1829.916396,34.0200004577637
1829.932021,33.7200012207031
1829.947646,33.189998626709
1829.963271,32.5299987792969
1829.978896,31.7800006866455
1829.994521,31.0300006866455
1830.010146,30.3600006103516
1830.025771,29.7900009155273
1830.041396,29.2199993133545
1830.057021,28.5
1830.072646,27.5699996948242
1830.088271,26.4500007629395
1830.103896,25.1599998474121
1830.119521,23.7099990844727
1830.135146,22.1200008392334
1830.150771,20.5200004577637
1830.166396,19.0900001525879
1830.182021,17.9300003051758
1830.197646,16.9899997711182
1830.213271,16.0900001525879
1830.228896,15.1499996185303
1830.244521,14.210000038147
1830.260146,13.3800001144409
1830.275771,12.710000038147
1830.291396,12.1700000762939
1830.307021,11.6800003051758
1830.322646,11.1400003433228
1830.338271,10.4399995803833
1830.353896,9.59000015258789
1830.369521,8.61999988555908
1830.385146,7.65000009536743
1830.400771,6.73999977111816
1830.416396,5.94999980926514
1830.432021,5.34999990463257
1830.447646,5.1100001335144
1830.463271,5.44000005722046
1830.478896,6.44999980926514
1830.494521,8.13000011444092
1830.510146,10.25
1830.525771,12.4899997711182
1830.541396,14.5900001525879
1830.557021,16.4099998474121
1830.572646,17.9400005340576
1830.588271,19.2900009155273
1830.603896,20.6100006103516
1830.619521,22.0499992370605
1830.635146,23.6200008392334
1830.650771,25.2999992370605
1830.666396,27.0300006866455
1830.682021,28.7800006866455
1830.697646,30.5
1830.713271,32.0200004577637
1830.728896,33.0499992370605
1830.744521,33.4000015258789
1830.760146,33.0499992370605
1830.775771,32.2200012207031
1830.791396,31.1299991607666
1830.807021,29.9200000762939
1830.822646,28.6599998474121
1830.838271,27.3500003814697
1830.853896,25.9899997711182
1830.869521,24.5599994659424
1830.885146,22.9699993133545
1830.900771,21.1399993896484
1830.916396,19.0799999237061
1830.932021,16.8500003814697
1830.947646,14.5500001907349
1830.963271,12.25
1830.978896,10.0100002288818
1830.994521,7.86999988555908
1831.010146,5.88000011444092
1831.025771,4.05000019073486
1831.041396,2.36999988555908
1831.057021,0.779999971389771
1831.072646,-0.740000009536743
1831.088271,-2.21000003814697
1831.103896,-3.59999990463257
1831.119521,-4.90999984741211
1831.135146,-6.15999984741211
1831.150771,-7.36999988555908
1831.166396,-8.60000038146973
1831.182021,-9.88000011444092
1831.197646,-11.2299995422363
1831.213271,-12.6000003814697
1831.228896,-13.9499998092651
1831.244521,-15.2200002670288
1831.260146,-16.3999996185303
1831.275771,-17.4500007629395
1831.291396,-18.2999992370605
1831.307021,-18.8099994659424
1831.322646,-18.7800006866455
1831.338271,-18.0599994659424
1831.353896,-16.7099990844727
1831.369521,-14.9899997711182
1831.385146,-13.1999998092651
1831.400771,-11.5699996948242
1831.416396,-10.1899995803833
1831.432021,-8.97999954223633
1831.447646,-7.73999977111816
1831.463271,-6.26999998092651
1831.478896,-4.53000020980835
1831.494521,-2.57999992370605
1831.510146,-0.540000021457672
1831.525771,1.49000000953674
1831.541396,3.41000008583069
1831.557021,5.01000022888184
1831.572646,5.90999984741211
1831.588271,5.78000020980835
1831.603896,4.59000015258789
1831.619521,2.58999991416931
1831.635146,0.159999996423721
1831.650771,-2.34999990463257
1831.666396,-4.76999998092651
1831.682021,-6.98999977111816
1831.697646,-9.0600004196167
1831.713271,-11.0600004196167
1831.728896,-13.1400003433228
1831.744521,-15.3999996185303
1831.760146,-17.8700008392334
1831.775771,-20.4799995422363
1831.791396,-23.2199993133545
1831.807021,-26.0499992370605
1831.822646,-28.9200000762939
1831.838271,-31.7099990844727
1831.853896,-34.2000007629395
1831.869521,-36.2599983215332
1831.885146,-37.9199981689453
1831.900771,-39.2999992370605
1831.916396,-40.4900016784668
1831.932021,-41.4599990844727
1831.947646,-42.189998626709
1831.963271,-42.6800003051758
1831.978896,-42.9799995422363
1831.994521,-43.2000007629395
1832.010146,-43.4300003051758
1832.025771,-43.7400016784668
1832.041396,-44.1500015258789
1832.057021,-44.6300010681152
1832.072646,-45.1599998474121
1832.088271,-45.75
1832.103896,-46.3699989318848
1832.119521,-46.9000015258789
1832.135146,-47.1500015258789
1832.150771,-46.8800010681152
1832.166396,-45.9300003051758
1832.182021,-44.2599983215332
1832.197646,-41.9500007629395
1832.213271,-39.0699996948242
1832.228896,-35.5699996948242
1832.244521,-31.3999996185303
1832.260146,-26.6499996185303
1832.275771,-21.6599998474121
1832.291396,-16.8700008392334
1832.307021,-12.5600004196167
1832.322646,-8.64999961853027
1832.338271,-4.92999982833862
1832.353896,-1.41999995708466
1832.369521,1.62999999523163
1832.385146,4.01999998092651
1832.400771,5.73999977111816
1832.416396,6.96999979019165
1832.432021,7.92000007629395
1832.447646,8.76000022888184
1832.463271,9.5
1832.478896,10.1400003433228
1832.494521,10.6899995803833
1832.510146,11.2299995422363
1832.525771,11.8299999237061
1832.541396,12.5299997329712
1832.557021,13.1899995803833
1832.572646,13.5600004196167
1832.588271,13.3599996566772
1832.603896,12.5100002288818
1832.619521,11.1199998855591
1832.635146,9.38000011444092
1832.650771,7.5
1832.666396,5.61999988555908
1832.682021,3.82999992370605
1832.697646,2.17000007629395
1832.713271,0.629999995231628
1832.728896,-0.769999980926514
1832.744521,-2.0699999332428
1832.760146,-3.27999997138977
1832.775771,-4.40000009536743
1832.791396,-5.46000003814697
1832.807021,-6.48000001907349
1832.822646,-7.44999980926514
1832.838271,-8.36999988555908
1832.853896,-9.21000003814697
1832.869521,-9.97000026702881
1832.885146,-10.6999998092651
1832.900771,-11.4499998092651
1832.916396,-12.2399997711182
1832.932021,-13.039999961853
1832.947646,-13.8000001907349
1832.963271,-14.4700002670288
1832.978896,-14.9899997711182
1832.994521,-15.1800003051758
1833.010146,-14.6800003051758
1833.025771,-13.1800003051758
1833.041396,-10.6000003814697
1833.057021,-7.09999990463257
1833.072646,-2.80999994277954
1833.088271,2.17000007629395
1833.103896,7.65000009536743
1833.119521,13.1499996185303
1833.135146,18.0300006866455
1833.150771,21.8600006103516
1833.166396,24.7299995422363
1833.182021,26.9899997711182
1833.197646,28.8299999237061
1833.213271,30.1299991607666
1833.228896,30.7600002288818
1833.244521,30.75
1833.260146,30.2999992370605
1833.275771,29.6299991607666
1833.291396,28.8899993896484
1833.307021,28.1200008392334
1833.322646,27.2999992370605
1833.338271,26.4500007629395
1833.353896,25.6299991607666
1833.369521,24.9300003051758
1833.385146,24.3700008392334
1833.400771,23.8099994659424
1833.416396,22.9699993133545
1833.432021,21.5900001525879
1833.447646,19.6399993896484
1833.463271,17.2600002288818
1833.478896,14.6999998092651
1833.494521,12.1300001144409
1833.510146,9.64999961853027
1833.525771,7.28999996185303
1833.541396,5.05999994277954
1833.557021,2.89000010490417
1833.572646,0.709999978542328
1833.588271,-1.53999996185303
1833.603896,-3.90000009536743
1833.619521,-6.32000017166138
1833.635146,-8.76000022888184
1833.650771,-11.1899995803833
1833.666396,-13.5900001525879
1833.682021,-15.8699998855591
1833.697646,-17.9500007629395
1833.713271,-19.7700004577637
1833.728896,-21.3600006103516
1833.744521,-22.7999992370605
1833.760146,-24.1000003814697
1833.775771,-25.25
1833.791396,-26.2000007629395
1833.807021,-26.9599990844727
1833.822646,-27.5
1833.838271,-27.6000003814697
1833.853896,-26.7800006866455
1833.869521,-24.5799999237061
1833.885146,-20.9099998474121
1833.900771,-16.0100002288818
1833.916396,-10.1599998474121
1833.932021,-3.59999990463257
1833.947646,3.38000011444092
1833.963271,10.1999998092651
1833.978896,16.0499992370605
1833.994521,20.3700008392334
1834.010146,23.1900005340576
1834.025771,24.9699993133545
1834.041396,26.0200004577637
1834.057021,26.4099998474121
1834.072646,26.1200008392334
1834.088271,25.25
1834.103896,24.0200004577637
1834.119521,22.7099990844727
1834.135146,21.4799995422363
1834.150771,20.4300003051758
1834.166396,19.5200004577637
1834.182021,18.7199993133545
1834.197646,18.0200004577637
1834.213271,17.4300003051758
1834.228896,16.9400005340576
1834.244521,16.3899993896484
1834.260146,15.5
1834.275771,14.0100002288818
1834.291396,11.8900003433228
1834.307021,9.32999992370605
1834.322646,6.59000015258789
1834.338271,3.88000011444092
1834.353896,1.32000005245209
1834.369521,-1.05999994277954
1834.385146,-3.28999996185303
1834.400771,-5.3899998664856
1834.416396,-7.42999982833862
1834.432021,-9.4399995803833
1834.447646,-11.4799995422363
1834.463271,-13.5600004196167
1834.478896,-15.6499996185303
1834.494521,-17.7000007629395
1834.510146,-19.6499996185303
1834.525771,-21.4300003051758
1834.541396,-23.0400009155273
1834.557021,-24.5
1834.572646,-25.8299999237061
1834.588271,-27.0699996948242
1834.603896,-28.1900005340576
1834.619521,-29.0200004577637
1834.635146,-29.2199993133545
1834.650771,-28.4599990844727
1834.666396,-26.7000007629395
1834.682021,-24.2000007629395
1834.697646,-21.3099994659424
1834.713271,-18.1499996185303
1834.728896,-14.5200004577637
1834.744521,-10.2799997329712
1834.760146,-5.69000005722046
1834.775771,-1.37000000476837
1834.791396,2.16000008583069
1834.807021,4.76999998092651
1834.822646,6.65000009536743
1834.838271,8.14000034332275
1834.853896,9.52000045776367
1834.869521,10.9099998474121
1834.885146,12.3100004196167
1834.900771,13.6499996185303
1834.916396,14.8699998855591
1834.932021,15.9200000762939
1834.947646,16.8199996948242
1834.963271,17.4799995422363
1834.978896,17.7299995422363
1834.994521,17.3899993896484
1835.010146,16.4599990844727
1835.025771,15.1000003814697
1835.041396,13.5600004196167
1835.057021,12.0699996948242
1835.072646,10.7200002670288
1835.088271,9.42000007629395
1835.103896,7.94000005722046
1835.119521,6.03000020980835
1835.135146,3.58999991416931
1835.150771,0.740000009536743
1835.166396,-2.25999999046326
1835.182021,-5.23999977111816
1835.197646,-8.10999965667725
1835.213271,-10.9300003051758
1835.228896,-13.75
1835.244521,-16.5499992370605
1835.260146,-19.2199993133545
1835.275771,-21.6800003051758
1835.291396,-23.9200000762939
1835.307021,-25.9699993133545
1835.322646,-27.7999992370605
1835.338271,-29.3299999237061
1835.353896,-30.5
1835.369521,-31.3400001525879
1835.385146,-31.9500007629395
1835.400771,-32.4799995422363
1835.416396,-33.1100006103516
1835.432021,-33.9500007629395
1835.447646,-35.0
1835.463271,-36.0400009155273
1835.478896,-36.7799987792969
1835.494521,-36.939998626709
1835.510146,-36.439998626709
1835.525771,-35.3300018310547
1835.541396,-33.6699981689453
1835.557021,-31.3400001525879
1835.572646,-28.1100006103516
1835.588271,-23.9300003051758
1835.603896,-19.0900001525879
1835.619521,-14.1599998474121
1835.635146,-9.65999984741211
1835.650771,-5.80999994277954
1835.666396,-2.5699999332428
1835.682021,0.270000010728836
1835.697646,2.96000003814697
1835.713271,5.59999990463257
1835.728896,8.22000026702881
1835.744521,10.8100004196167
1835.760146,13.4099998474121
