Time(s),Value(%)
1295.0087215,-34.8300018310547
1295.0243465,-34.0800018310547
1295.0399715,-32.5099983215332
1295.0555965,-30.2800006866455
1295.0712215,-27.5100002288818
1295.0868465,-24.1599998474121
1295.1024715,-20.0900001525879
1295.1180965,-15.3500003814697
1295.1337215,-10.3000001907349
1295.1493465,-5.46999979019165
1295.1649715,-1.25
1295.1805965,2.22000002861023
1295.1962215,5.11999988555908
1295.2118465,7.65000009536743
1295.2274715,9.9399995803833
1295.2430965,12.0299997329712
1295.2587215,13.9099998474121
1295.2743465,15.6000003814697
1295.2899715,17.1700000762939
1295.3055965,18.7099990844727
1295.3212215,20.2399997711182
1295.3368465,21.6800003051758
1295.3524715,22.7900009155273
1295.3680965,23.3899993896484
1295.3837215,23.4300003051758
1295.3993465,23.0699996948242
1295.4149715,22.5
1295.4305965,21.9599990844727
1295.4462215,21.6800003051758
1295.4618465,21.8299999237061
1295.4774715,22.4200000762939
1295.4930965,23.2900009155273
1295.5087215,24.1599998474121
1295.5243465,24.6299991607666
1295.5399715,24.2000007629395
1295.5555965,22.4200000762939
1295.5712215,19.1800003051758
1295.5868465,14.7700004577637
1295.6024715,9.75
1295.6180965,4.73999977111816
1295.6337215,0.0900000035762787
1295.6493465,-4.30999994277954
1295.6649715,-9.02999973297119
1295.6805965,-14.6899995803833
1295.6962215,-21.4699993133545
1295.7118465,-29.0
1295.7274715,-36.5999984741211
1295.7430965,-43.689998626709
1295.7587215,-50.0
1295.7743465,-55.8600006103516
1295.7899715,-62.0699996948242
1295.8055965,-70.6800003051758
1295.8212215,-81.0
1295.8368465,-93.1900024414063
1295.8524715,-107.720001220703
1295.8680965,-125.059997558594
1295.8837215,-144.770004272461
1295.8993465,-164.830001831055
1295.9149715,-182.279998779297
1295.9305965,-195.970001220703
1295.9462215,-208.589996337891
1295.9618465,-224.410003662109
1295.9774715,-245.550003051758
1295.9930965,-271.890014648438
1296.0087215,-303.480010986328
1296.0243465,-327.679992675781
1296.0399715,-327.679992675781
1296.0555965,-327.679992675781
1296.0712215,-327.679992675781
1296.0868465,-327.679992675781
1296.1024715,-327.679992675781
1296.1180965,-327.679992675781
1296.1337215,-327.679992675781
1296.1493465,-327.679992675781
1296.1649715,-327.679992675781
1296.1805965,-327.679992675781
1296.1962215,-327.679992675781
1296.2118465,-327.679992675781
1296.2274715,-327.679992675781
1296.2430965,-327.679992675781
1296.2587215,-327.679992675781
1296.2743465,-327.679992675781
1296.2899715,-327.679992675781
1296.3055965,-327.679992675781
1296.3212215,-327.679992675781
1296.3368465,-327.679992675781
1296.3524715,-327.679992675781
1296.3680965,-327.679992675781
1296.3837215,-310.880004882813
1296.3993465,-281.410003662109
1296.4149715,-250.490005493164
1296.4305965,-219.289993286133
1296.4462215,-187.490005493164
1296.4618465,-154.75
1296.4774715,-121.26000213623
1296.4930965,-87.4899978637695
1296.5087215,-53.6699981689453
1296.5243465,-19.7999992370605
1296.5399715,14.0799999237061
1296.5555965,47.8400001525879
1296.5712215,81.379997253418
1296.5868465,114.610000610352
1296.6024715,147.490005493164
1296.6180965,180.339996337891
1296.6337215,214.320007324219
1296.6493465,251.190002441406
1296.6649715,292.410003662109
1296.6805965,327.670013427734
1296.6962215,327.670013427734
1296.7118465,327.670013427734
1296.7274715,327.670013427734
1296.7430965,327.670013427734
1296.7587215,327.670013427734
1296.7743465,327.670013427734
1296.7899715,327.670013427734
1296.8055965,327.670013427734
1296.8212215,327.670013427734
1296.8368465,327.670013427734
1296.8524715,327.670013427734
1296.8680965,327.670013427734
1296.8837215,327.670013427734
1296.8993465,327.670013427734
1296.9149715,327.670013427734
1296.9305965,327.670013427734
1296.9462215,327.670013427734
1296.9618465,327.670013427734
1296.9774715,327.670013427734
1296.9930965,327.670013427734
1297.0087215,327.670013427734
1297.0243465,327.670013427734
1297.0399715,327.670013427734
1297.0555965,327.670013427734
1297.0712215,327.670013427734
1297.0868465,327.670013427734
1297.1024715,327.670013427734
1297.1180965,327.670013427734
1297.1337215,327.670013427734
1297.1493465,327.670013427734
1297.1649715,327.670013427734
1297.1805965,327.670013427734
1297.1962215,327.670013427734
1297.2118465,327.670013427734
1297.2274715,327.670013427734
1297.2430965,327.670013427734
1297.2587215,327.670013427734
1297.2743465,327.670013427734
1297.2899715,327.670013427734
1297.3055965,327.670013427734
1297.3212215,327.670013427734
1297.3368465,327.670013427734
1297.3524715,327.670013427734
1297.3680965,327.670013427734
1297.3837215,327.670013427734
1297.3993465,327.670013427734
1297.4149715,327.670013427734
1297.4305965,327.670013427734
1297.4462215,327.670013427734
1297.4618465,327.670013427734
1297.4774715,327.670013427734
1297.4930965,327.670013427734
1297.5087215,327.670013427734
1297.5243465,327.670013427734
1297.5399715,327.670013427734
1297.5555965,299.0
1297.5712215,234.639999389648
1297.5868465,171.660003662109
1297.6024715,110.129997253418
1297.6180965,48.5099983215332
1297.6337215,-16.7000007629395
1297.6493465,-88.8300018310547
1297.6649715,-168.229995727539
1297.6805965,-251.880004882813
1297.6962215,-327.679992675781
1297.7118465,-327.679992675781
1297.7274715,-327.679992675781
1297.7430965,-327.679992675781
1297.7587215,-327.679992675781
1297.7743465,-327.679992675781
1297.7899715,-327.679992675781
1297.8055965,-327.679992675781
1297.8212215,-327.679992675781
1297.8368465,-327.679992675781
1297.8524715,-327.679992675781
1297.8680965,-327.679992675781
1297.8837215,-327.679992675781
1297.8993465,-327.679992675781
1297.9149715,-327.679992675781
1297.9305965,-327.679992675781
1297.9462215,-327.679992675781
1297.9618465,-327.679992675781
1297.9774715,-327.679992675781
1297.9930965,-327.679992675781
1298.0087215,-327.679992675781
1298.0243465,-327.679992675781
1298.0399715,-327.679992675781
1298.0555965,-327.679992675781
1298.0712215,-327.679992675781
1298.0868465,-327.679992675781
1298.1024715,-327.679992675781
1298.1180965,-327.679992675781
1298.1337215,-327.679992675781
1298.1493465,-327.679992675781
1298.1649715,-327.679992675781
1298.1805965,-327.679992675781
1298.1962215,-327.679992675781
1298.2118465,-327.679992675781
1298.2274715,-327.679992675781
1298.2430965,-327.679992675781
1298.2587215,-327.679992675781
1298.2743465,-327.679992675781
1298.2899715,-327.679992675781
1298.3055965,-327.679992675781
1298.3212215,-327.679992675781
1298.3368465,-327.679992675781
1298.3524715,-327.679992675781
1298.3680965,-327.679992675781
1298.3837215,-327.679992675781
1298.3993465,-327.679992675781
1298.4149715,-327.679992675781
1298.4305965,-247.279998779297
1298.4462215,-102.699996948242
1298.4618465,45.439998626709
1298.4774715,183.550003051758
1298.4930965,302.769989013672
1298.5087215,327.670013427734
1298.5243465,327.670013427734
1298.5399715,327.670013427734
1298.5555965,327.670013427734
1298.5712215,327.670013427734
1298.5868465,327.670013427734
1298.6024715,327.670013427734
1298.6180965,327.670013427734
1298.6337215,327.670013427734
1298.6493465,327.670013427734
1298.6649715,327.670013427734
1298.6805965,327.670013427734
1298.6962215,327.670013427734
1298.7118465,327.670013427734
1298.7274715,327.670013427734
1298.7430965,327.670013427734
1298.7587215,327.670013427734
1298.7743465,327.670013427734
1298.7899715,327.670013427734
1298.8055965,327.670013427734
1298.8212215,327.670013427734
1298.8368465,327.670013427734
1298.8524715,327.670013427734
1298.8680965,327.670013427734
1298.8837215,327.670013427734
1298.8993465,327.670013427734
1298.9149715,327.670013427734
1298.9305965,315.359985351563
1298.9462215,284.519989013672
1298.9618465,256.440002441406
1298.9774715,231.320007324219
1298.9930965,209.360000610352
1299.0087215,190.220001220703
1299.0243465,172.699996948242
1299.0399715,155.0
1299.0555965,135.869995117188
1299.0712215,115.48999786377
1299.0868465,94.9300003051758
1299.1024715,74.8600006103516
1299.1180965,55.1699981689453
1299.1337215,35.5200004577637
1299.1493465,15.789999961853
1299.1649715,-3.89000010490417
1299.1805965,-23.8299999237061
1299.1962215,-45.1399993896484
1299.2118465,-69.0199966430664
1299.2274715,-95.620002746582
1299.2430965,-123.830001831055
1299.2587215,-151.910003662109
1299.2743465,-178.360000610352
1299.2899715,-202.289993286133
1299.3055965,-223.25
1299.3212215,-240.960006713867
1299.3368465,-255.850006103516
1299.3524715,-269.549987792969
1299.3680965,-284.100006103516
1299.3837215,-300.529998779297
1299.3993465,-318.410003662109
1299.4149715,-327.679992675781
1299.4305965,-327.679992675781
1299.4462215,-327.679992675781
1299.4618465,-327.679992675781
1299.4774715,-327.679992675781
1299.4930965,-327.679992675781
1299.5087215,-327.679992675781
1299.5243465,-327.679992675781
1299.5399715,-327.679992675781
1299.5555965,-327.679992675781
1299.5712215,-327.679992675781
1299.5868465,-327.679992675781
1299.6024715,-327.679992675781
1299.6180965,-327.679992675781
1299.6337215,-327.679992675781
1299.6493465,-325.790008544922
1299.6649715,-302.660003662109
1299.6805965,-281.329986572266
1299.6962215,-263.089996337891
1299.7118465,-247.779998779297
1299.7274715,-234.389999389648
1299.7430965,-222.279998779297
1299.7587215,-211.889999389648
1299.7743465,-204.199996948242
1299.7899715,-199.660003662109
1299.8055965,-202.25
1299.8212215,-207.309997558594
1299.8368465,-214.649993896484
1299.8524715,-223.610000610352
1299.8680965,-232.690002441406
1299.8837215,-239.869995117188
1299.8993465,-243.630004882813
1299.9149715,-243.740005493164
1299.9305965,-240.789993286133
1299.9462215,-234.979995727539
1299.9618465,-226.050003051758
1299.9774715,-213.940002441406
1299.9930965,-199.25
1300.0087215,-183.029998779297
1300.0243465,-166.240005493164
1300.0399715,-149.320007324219
1300.0555965,-132.25
1300.0712215,-114.849998474121
1300.0868465,-97.129997253418
1300.1024715,-79.3199996948242
1300.1180965,-61.7299995422363
1300.1337215,-44.5699996948242
1300.1493465,-27.75
1300.1649715,-10.9499998092651
1300.1805965,6.01000022888184
1300.1962215,22.9500007629395
1300.2118465,39.3899993896484
1300.2274715,55.0299987792969
1300.2430965,69.9100036621094
1300.2587215,84.2900009155273
1300.2743465,98.4300003051758
1300.2899715,112.459999084473
1300.3055965,126.209999084473
1300.3212215,139.339996337891
1300.3368465,151.5
1300.3524715,162.660003662109
1300.3680965,173.289993286133
1300.3837215,184.270004272461
1300.3993465,196.419998168945
1300.4149715,210.009994506836
1300.4305965,224.889999389648
1300.4462215,240.970001220703
1300.4618465,258.529998779297
1300.4774715,278.059997558594
1300.4930965,299.519989013672
1300.5087215,321.940002441406
1300.5243465,327.670013427734
1300.5399715,327.670013427734
1300.5555965,327.670013427734
1300.5712215,327.670013427734
1300.5868465,327.670013427734
1300.6024715,327.670013427734
1300.6180965,327.670013427734
1300.6337215,327.670013427734
1300.6493465,327.670013427734
1300.6649715,327.670013427734
1300.6805965,327.670013427734
1300.6962215,327.670013427734
1300.7118465,327.670013427734
1300.7274715,327.670013427734
1300.7430965,327.670013427734
1300.7587215,327.670013427734
1300.7743465,327.670013427734
1300.7899715,327.670013427734
1300.8055965,327.670013427734
1300.8212215,327.670013427734
1300.8368465,327.670013427734
1300.8524715,327.670013427734
1300.8680965,327.670013427734
1300.8837215,327.670013427734
1300.8993465,327.670013427734
1300.9149715,327.670013427734
1300.9305965,327.670013427734
1300.9462215,327.670013427734
1300.9618465,327.670013427734
1300.9774715,327.670013427734
1300.9930965,327.670013427734
1301.0087215,327.670013427734
1301.0243465,327.670013427734
1301.0399715,327.670013427734
1301.0555965,327.670013427734
1301.0712215,327.670013427734
1301.0868465,327.670013427734
1301.1024715,327.670013427734
1301.1180965,327.670013427734
1301.1337215,327.670013427734
1301.1493465,313.149993896484
1301.1649715,295.489990234375
1301.1805965,278.450012207031
1301.1962215,261.149993896484
1301.2118465,242.559997558594
1301.2274715,222.720001220703
1301.2430965,202.809997558594
1301.2587215,184.220001220703
1301.2743465,167.690002441406
1301.2899715,153.110000610352
1301.3055965,139.699996948242
1301.3212215,126.459999084473
1301.3368465,112.639999389648
1301.3524715,97.9499969482422
1301.3680965,81.9899978637695
1301.3837215,63.8199996948242
1301.3993465,42.5
1301.4149715,18.2600002288818
1301.4305965,-6.78000020980835
1301.4462215,-29.3999996185303
1301.4618465,-47.439998626709
1301.4774715,-61.5400009155273
1301.4930965,-73.8199996948242
1301.5087215,-85.3300018310547
1301.5243465,-95.4499969482422
1301.5399715,-103.029998779297
1301.5555965,-107.669998168945
1301.5712215,-109.910003662109
1301.5868465,-110.769996643066
1301.6024715,-111.089996337891
1301.6180965,-111.300003051758
1301.6337215,-111.440002441406
1301.6493465,-111.470001220703
1301.6649715,-111.410003662109
1301.6805965,-111.370002746582
1301.6962215,-111.23999786377
1301.7118465,-110.180000305176
1301.7274715,-106.529998779297
1301.7430965,-98.7600021362305
1301.7587215,-86.6500015258789
1301.7743465,-71.5
1301.7899715,-55.2200012207031
1301.8055965,-39.439998626709
1301.8212215,-25.0100002288818
1301.8368465,-12.0600004196167
1301.8524715,-0.219999998807907
1301.8680965,11.1099996566772
1301.8837215,22.6700000762939
1301.8993465,34.939998626709
1301.9149715,47.9700012207031
1301.9305965,61.6399993896484
1301.9462215,76.0699996948242
1301.9618465,91.4300003051758
1301.9774715,107.540000915527
1301.9930965,123.580001831055
1302.0087215,138.410003662109
1302.0243465,151.330001831055
1302.0399715,162.600006103516
1302.0555965,172.860000610352
1302.0712215,182.190002441406
1302.0868465,190.009994506836
1302.1024715,195.770004272461
1302.1180965,199.410003662109
1302.1337215,201.399993896484
1302.1493465,202.360000610352
1302.1649715,202.770004272461
1302.1805965,202.809997558594
1302.1962215,202.490005493164
1302.2118465,201.880004882813
1302.2274715,201.190002441406
1302.2430965,200.669998168945
1302.2587215,200.350006103516
1302.2743465,199.720001220703
1302.2899715,197.899993896484
1302.3055965,194.259994506836
1302.3212215,189.029998779297
1302.3368465,183.009994506836
1302.3524715,176.880004882813
1302.3680965,170.800003051758
1302.3837215,164.570007324219
1302.3993465,157.979995727539
1302.4149715,150.990005493164
1302.4305965,143.809997558594
1302.4462215,136.880004882813
1302.4618465,130.600006103516
1302.4774715,125.120002746582
1302.4930965,120.470001220703
1302.5087215,116.779998779297
1302.5243465,114.190002441406
1302.5399715,112.480003356934
1302.5555965,110.870002746582
1302.5712215,108.080001831055
1302.5868465,103.230003356934
1302.6024715,96.4199981689453
1302.6180965,88.4700012207031
1302.6337215,79.9800033569336
1302.6493465,71.0699996948242
1302.6649715,61.6399993896484
1302.6805965,51.6800003051758
1302.6962215,41.3400001525879
1302.7118465,30.7700004577637
1302.7274715,19.9400005340576
1302.7430965,8.71000003814697
1302.7587215,-2.91000008583069
1302.7743465,-14.75
1302.7899715,-26.4899997711182
1302.8055965,-37.25
1302.8212215,-47.1800003051758
1302.8368465,-56.4099998474121
1302.8524715,-65.2300033569336
1302.8680965,-73.8600006103516
1302.8837215,-82.3300018310547
1302.8993465,-90.5100021362305
1302.9149715,-98.2099990844727
1302.9305965,-105.360000610352
1302.9462215,-111.930000305176
1302.9618465,-117.98999786377
1302.9774715,-123.620002746582
1302.9930965,-128.919998168945
1303.0087215,-134.0
1303.0243465,-138.910003662109
1303.0399715,-143.600006103516
1303.0555965,-147.960006713867
1303.0712215,-151.940002441406
1303.0868465,-155.539993286133
1303.1024715,-158.839996337891
1303.1180965,-161.910003662109
1303.1337215,-164.789993286133
1303.1493465,-167.550003051758
1303.1649715,-170.259994506836
1303.1805965,-173.0
1303.1962215,-175.770004272461
1303.2118465,-178.479995727539
1303.2274715,-181.039993286133
1303.2430965,-183.330001831055
1303.2587215,-185.320007324219
1303.2743465,-187.020004272461
1303.2899715,-188.470001220703
1303.3055965,-189.729995727539
1303.3212215,-190.830001831055
1303.3368465,-191.850006103516
1303.3524715,-192.970001220703
1303.3680965,-194.320007324219
1303.3837215,-195.889999389648
1303.3993465,-197.539993286133
1303.4149715,-199.039993286133
1303.4305965,-200.350006103516
1303.4462215,-201.679992675781
1303.4618465,-203.279998779297
1303.4774715,-205.169998168945
1303.4930965,-207.270004272461
1303.5087215,-209.729995727539
1303.5243465,-212.789993286133
1303.5399715,-216.490005493164
1303.5555965,-220.410003662109
1303.5712215,-223.809997558594
1303.5868465,-226.309997558594
1303.6024715,-228.229995727539
1303.6180965,-230.160003662109
1303.6337215,-232.169998168945
1303.6493465,-233.759994506836
1303.6649715,-234.330001831055
1303.6805965,-233.649993896484
1303.6962215,-231.979995727539
1303.7118465,-230.169998168945
1303.7274715,-229.410003662109
1303.7430965,-230.699996948242
1303.7587215,-234.369995117188
1303.7743465,-240.869995117188
1303.7899715,-251.419998168945
1303.8055965,-262.649993896484
1303.8212215,-278.359985351563
1303.8368465,-295.709991455078
1303.8524715,-310.899993896484
1303.8680965,-322.059997558594
1303.8837215,-327.679992675781
1303.8993465,-327.679992675781
1303.9149715,-327.679992675781
1303.9305965,-327.679992675781
1303.9462215,-327.679992675781
1303.9618465,-327.679992675781
1303.9774715,-327.679992675781
1303.9930965,-327.679992675781
1304.0087215,-327.679992675781
1304.0243465,-327.679992675781
1304.0399715,-327.679992675781
1304.0555965,-326.769989013672
1304.0712215,-323.190002441406
1304.0868465,-320.75
1304.1024715,-319.130004882813
1304.1180965,-316.559997558594
1304.1337215,-309.859985351563
1304.1493465,-296.260009765625
1304.1649715,-275.390014648438
1304.1805965,-249.179992675781
1304.1962215,-220.360000610352
1304.2118465,-191.089996337891
1304.2274715,-162.649993896484
1304.2430965,-135.539993286133
1304.2587215,-109.680000305176
1304.2743465,-84.1800003051758
1304.2899715,-57.4500007629395
1304.3055965,-28.1100006103516
1304.3212215,4.11999988555908
1304.3368465,38.8300018310547
1304.3524715,75.7200012207031
1304.3680965,114.690002441406
1304.3837215,154.960006713867
1304.3993465,194.539993286133
1304.4149715,230.720001220703
1304.4305965,261.980010986328
1304.4462215,289.309997558594
1304.4618465,314.739990234375
1304.4774715,327.670013427734
1304.4930965,327.670013427734
1304.5087215,327.670013427734
1304.5243465,327.670013427734
1304.5399715,327.670013427734
1304.5555965,327.670013427734
1304.5712215,327.670013427734
1304.5868465,327.670013427734
1304.6024715,327.670013427734
1304.6180965,327.670013427734
1304.6337215,327.670013427734
1304.6493465,327.670013427734
1304.6649715,327.670013427734
1304.6805965,327.670013427734
1304.6962215,327.670013427734
1304.7118465,327.670013427734
1304.7274715,327.670013427734
1304.7430965,327.670013427734
1304.7587215,327.670013427734
1304.7743465,327.670013427734
1304.7899715,327.670013427734
1304.8055965,327.670013427734
1304.8212215,327.670013427734
1304.8368465,327.670013427734
1304.8524715,327.670013427734
1304.8680965,327.670013427734
1304.8837215,323.220001220703
1304.8993465,304.230010986328
1304.9149715,285.200012207031
1304.9305965,265.940002441406
1304.9462215,246.440002441406
1304.9618465,226.850006103516
1304.9774715,207.300003051758
1304.9930965,187.580001831055
1305.0087215,167.210006713867
1305.0243465,145.850006103516
1305.0399715,123.779998779297
1305.0555965,101.51000213623
1305.0712215,79.25
1305.0868465,56.810001373291
1305.1024715,34.1599998474121
1305.1180965,11.8999996185303
1305.1337215,-8.89999961853027
1305.1493465,-27.6299991607666
1305.1649715,-44.7200012207031
1305.1805965,-61.1699981689453
1305.1962215,-77.3000030517578
1305.2118465,-92.5899963378906
1305.2274715,-106.309997558594
1305.2430965,-118.129997253418
1305.2587215,-128.330001831055
1305.2743465,-137.940002441406
1305.2899715,-148.419998168945
1305.3055965,-160.960006713867
1305.3212215,-175.860000610352
1305.3368465,-192.880004882813
1305.3524715,-212.039993286133
1305.3680965,-233.490005493164
