Time(s),Value(%)
0.0603575,-40.9900016784668
0.0759825,-15.7200002670288
0.0916075,12.5299997329712
0.1072325,40.5499992370605
0.1228575,66.7300033569336
0.1384825,89.3300018310547
0.1541075,105.970001220703
0.1697325,114.650001525879
0.1853575,114.730003356934
0.2009825,107.209999084473
0.2166075,94.1500015258789
0.2322325,77.9599990844727
0.2478575,60.7599983215332
0.2634825,44.0499992370605
0.2791075,28.6200008392334
0.2947325,14.7700004577637
0.3103575,2.46000003814697
0.3259825,-8.35999965667725
0.3416075,-17.7700004577637
0.3572325,-25.8400001525879
0.3728575,-32.7099990844727
0.3884825,-38.4500007629395
0.4041075,-43.0299987792969
0.4197325,-46.4500007629395
0.4353575,-48.8300018310547
0.4509825,-50.560001373291
0.4666075,-52.1100006103516
0.4822325,-53.7999992370605
0.4978575,-55.5999984741211
0.5134825,-57.3199996948242
0.5291075,-58.6199989318848
0.5447325,-59.1300010681152
0.5603575,-58.4599990844727
0.5759825,-55.5900001525879
0.5916075,-47.8400001525879
0.6072325,-31.3600006103516
0.6228575,-4.03000020980835
0.6384825,32.0299987792969
0.6541075,71.0100021362305
0.6697325,105.790000915527
0.6853575,130.570007324219
0.7009825,142.649993896484
0.7166075,142.830001831055
0.7322325,134.25
0.7478575,120.569999694824
0.7634825,104.610000610352
0.7791075,87.9599990844727
0.7947325,71.2799987792969
0.8103575,54.7799987792969
0.8259825,38.6800003051758
0.8416075,23.3199996948242
0.8572325,9.10000038146973
0.8728575,-3.66000008583069
0.8884825,-14.75
0.9041075,-24.0400009155273
0.9197325,-31.6299991607666
0.9353575,-37.7700004577637
0.9509825,-42.8400001525879
0.9666075,-47.25
0.9822325,-51.4099998474121
0.9978575,-55.439998626709
1.0134825,-59.2299995422363
1.0291075,-62.6199989318848
1.0447325,-65.5500030517578
1.0603575,-68.0899963378906
1.0759825,-70.3000030517578
1.0916075,-71.8499984741211
1.1072325,-71.2099990844727
1.1228575,-65.2699966430664
1.1384825,-50.310001373291
1.1541075,-24.3400001525879
1.1697325,10.9700002670288
1.1853575,50.4199981689453
1.2009825,87.120002746582
1.2166075,115.120002746582
1.2322325,131.089996337891
1.2478575,134.660003662109
1.2634825,127.830001831055
1.2791075,113.839996337891
1.2947325,95.8899993896484
1.3103575,76.3300018310547
1.3259825,56.5200004577637
1.3416075,37.060001373291
1.3572325,18.1499996185303
1.3728575,0.0599999986588955
1.3884825,-16.6299991607666
1.4041075,-31.4099998474121
1.4197325,-43.9799995422363
1.4353575,-54.25
1.4509825,-62.3499984741211
1.4666075,-68.6900024414063
1.4822325,-73.7699966430664
1.4978575,-77.870002746582
1.5134825,-80.9899978637695
1.5291075,-83.0699996948242
1.5447325,-84.2300033569336
1.5603575,-84.8099975585938
1.5759825,-85.2099990844727
1.5916075,-85.7600021362305
1.6072325,-86.620002746582
1.6228575,-87.6699981689453
1.6384825,-88.2900009155273
1.6541075,-86.8899993896484
1.6697325,-80.4899978637695
1.6853575,-65.5100021362305
1.7009825,-39.439998626709
1.7166075,-2.46000003814697
1.7322325,41.3499984741211
1.7478575,84.3499984741211
1.7634825,118.330001831055
1.7791075,138.080001831055
1.7947325,142.899993896484
1.8103575,135.740005493164
1.8259825,121.089996337891
1.8416075,102.940002441406
1.8572325,83.7699966430664
1.8728575,64.6500015258789
1.8884825,45.9900016784668
1.9041075,28.0300006866455
1.9197325,11.1099996566772
1.9353575,-4.34000015258789
1.9509825,-18.0100002288818
1.9666075,-29.8600006103516
1.9822325,-40.0
1.9978575,-48.2900009155273
2.0134825,-54.5699996948242
2.0291075,-58.9700012207031
2.0447325,-61.9799995422363
2.0603575,-64.1600036621094
2.0759825,-65.9100036621094
2.0916075,-67.5500030517578
2.1072325,-69.3899993896484
2.1228575,-71.5599975585938
2.1384825,-73.75
2.1541075,-75.3899993896484
2.1697325,-76.0500030517578
2.1853575,-75.7200012207031
2.2009825,-74.4899978637695
2.2166075,-71.5599975585938
2.2322325,-64.379997253418
2.2478575,-49.3400001525879
2.2634825,-24.1599998474121
2.2791075,9.93000030517578
2.2947325,48.1399993896484
2.3103575,83.9199981689453
2.3259825,111.430000305176
2.3416075,127.370002746582
2.3572325,131.5
2.3728575,125.980003356934
2.3884825,114.029998779297
2.4041075,98.629997253418
2.4197325,81.9000015258789
2.4353575,65.129997253418
2.4509825,48.9000015258789
2.4666075,33.2999992370605
2.4822325,18.3400001525879
2.4978575,4.46000003814697
2.5134825,-7.6100001335144
2.5291075,-17.3600006103516
2.5447325,-24.6900005340576
2.5603575,-29.8099994659424
2.5759825,-33.2200012207031
2.5916075,-35.5499992370605
2.6072325,-37.2400016784668
2.6228575,-38.439998626709
2.6384825,-39.2200012207031
2.6541075,-39.8300018310547
2.6697325,-40.5800018310547
2.6853575,-41.6699981689453
2.7009825,-43.0999984741211
2.7166075,-44.7400016784668
2.7322325,-46.5
2.7478575,-48.189998626709
2.7634825,-49.5
2.7791075,-49.8199996948242
2.7947325,-47.7400016784668
2.8103575,-40.6800003051758
2.8259825,-25.5900001525879
2.8416075,-0.649999976158142
2.8572325,33.1100006103516
2.8728575,71.6600036621094
2.8884825,108.690002441406
2.9041075,137.440002441406
2.9197325,153.330001831055
2.9353575,155.619995117188
2.9509825,146.869995117188
2.9666075,131.220001220703
2.9822325,112.430000305176
2.9978575,92.9599990844727
3.0134825,73.870002746582
3.0291075,55.4500007629395
3.0447325,37.8499984741211
3.0603575,21.3899993896484
3.0759825,6.3899998664856
3.0916075,-6.88000011444092
3.1072325,-18.0
3.1228575,-26.6599998474121
3.1384825,-33.1599998474121
3.1541075,-38.3600006103516
3.1697325,-43.060001373291
3.1853575,-47.5999984741211
3.2009825,-51.9300003051758
3.2166075,-55.8199996948242
3.2322325,-59.189998626709
3.2478575,-62.2999992370605
3.2634825,-65.5899963378906
3.2791075,-69.3899993896484
3.2947325,-73.5999984741211
3.3103575,-77.7399978637695
3.3259825,-81.1699981689453
3.3416075,-83.120002746582
3.3572325,-82.2399978637695
3.3728575,-75.9300003051758
3.3884825,-60.7599983215332
3.4041075,-34.8199996948242
3.4197325,0.150000005960464
3.4353575,38.9599990844727
3.4509825,74.8399963378906
3.4666075,101.589996337891
3.4822325,115.550003051758
3.4978575,116.680000305176
3.5134825,108.339996337891
3.5291075,95.129997253418
3.5447325,80.5800018310547
3.5603575,66.0899963378906
3.5759825,51.4700012207031
3.5916075,35.9900016784668
3.6072325,19.2800006866455
3.6228575,1.51999998092651
3.6384825,-16.7000007629395
3.6541075,-34.4099998474121
3.6697325,-50.060001373291
3.6853575,-62.1500015258789
3.7009825,-69.9599990844727
3.7166075,-73.8099975585938
3.7322325,-74.9599990844727
3.7478575,-75.2900009155273
3.7634825,-76.3899993896484
3.7791075,-78.8199996948242
3.7947325,-82.0500030517578
3.8103575,-85.0299987792969
3.8259825,-86.5500030517578
3.8416075,-85.8499984741211
3.8572325,-83.0599975585938
3.8728575,-79.3199996948242
3.8884825,-75.8199996948242
3.9041075,-72.3600006103516
3.9197325,-66.4400024414063
3.9353575,-54.310001373291
3.9509825,-33.1100006103516
3.9666075,-2.69000005722046
3.9822325,34.0099983215332
3.9978575,72.1900024414063
4.0134825,106.339996337891
4.0291075,131.199996948242
4.0447325,143.429992675781
4.0603575,142.860000610352
4.0759825,132.179992675781
4.0916075,115.51000213623
4.1072325,96.8499984741211
4.1228575,78.7799987792969
4.1384825,62.1500015258789
4.1541075,46.5699996948242
4.1697325,31.5100002288818
4.1853575,16.8400001525879
4.2009825,2.96000003814697
4.2166075,-9.5600004196167
4.2322325,-20.3400001525879
4.2478575,-29.3099994659424
4.2634825,-36.560001373291
4.2791075,-42.2299995422363
4.2947325,-46.6300010681152
4.3103575,-50.2999992370605
4.3259825,-53.75
4.3416075,-57.1399993896484
4.3572325,-60.2599983215332
4.3728575,-62.8899993896484
4.3884825,-65.0400009155273
4.4041075,-66.879997253418
4.4197325,-68.4199981689453
4.4353575,-69.4800033569336
4.4509825,-69.8899993896484
4.4666075,-69.4599990844727
4.4822325,-67.2399978637695
4.4978575,-60.689998626709
4.5134825,-46.1599998474121
4.5291075,-21.1200008392334
4.5447325,13.6199998855591
4.5603575,53.5400009155273
4.5759825,91.7799987792969
4.5916075,121.819999694824
4.6072325,139.710006713867
4.6228575,144.860000610352
4.6384825,139.320007324219
4.6541075,126.529998779297
4.6697325,109.879997253418
4.6853575,91.7600021362305
4.7009825,73.4899978637695
4.7166075,55.7099990844727
4.7322325,38.6399993896484
4.7478575,22.2299995422363
4.7634825,6.48999977111816
4.7791075,-8.17000007629395
4.7947325,-21.0799999237061
4.8103575,-31.5900001525879
4.8259825,-39.4599990844727
4.8416075,-44.8899993896484
4.8572325,-48.4700012207031
4.8728575,-50.939998626709
4.8884825,-53.0499992370605
4.9041075,-55.2200012207031
4.9197325,-57.4099998474121
4.9353575,-59.2999992370605
4.9509825,-60.6300010681152
4.9666075,-61.3400001525879
4.9822325,-61.5499992370605
4.9978575,-61.5699996948242
5.0134825,-61.7400016784668
5.0291075,-62.0099983215332
5.0447325,-61.8400001525879
5.0603575,-59.8199996948242
5.0759825,-53.4199981689453
5.0916075,-39.2700004577637
5.1072325,-14.9499998092651
5.1228575,19.1000003814697
5.1384825,59.0099983215332
5.1541075,98.1999969482422
5.1697325,129.449996948242
5.1853575,147.720001220703
5.2009825,151.860000610352
5.2166075,144.25
5.2322325,129.039993286133
5.2478575,110.160003662109
5.2634825,90.3600006103516
5.2791075,71.0599975585938
5.2947325,52.7400016784668
5.3103575,35.4099998474121
5.3259825,19.0
5.3416075,3.63000011444092
5.3572325,-10.4200000762939
5.3728575,-22.8500003814697
5.3884825,-33.5
5.4041075,-42.310001373291
5.4197325,-49.1300010681152
5.4353575,-53.9300003051758
5.4509825,-56.9900016784668
5.4666075,-58.939998626709
5.4822325,-60.5299987792969
5.4978575,-62.3800010681152
5.5134825,-64.7699966430664
5.5291075,-67.4899978637695
5.5447325,-70.0100021362305
5.5603575,-71.8399963378906
5.5759825,-72.7099990844727
5.5916075,-72.6999969482422
5.6072325,-71.9899978637695
5.6228575,-70.0800018310547
5.6384825,-64.8899993896484
5.6541075,-52.9799995422363
5.6697325,-31.6399993896484
5.6853575,-1.19000005722046
5.7009825,34.3499984741211
5.7166075,68.75
5.7322325,95.9899978637695
5.7478575,112.400001525879
5.7634825,117.400001525879
5.7791075,112.819999694824
5.7947325,101.669998168945
5.8103575,86.9100036621094
5.8259825,70.7200012207031
5.8416075,54.2299995422363
5.8572325,37.9199981689453
5.8728575,22.1700000762939
5.8884825,7.53999996185303
5.9041075,-5.34999990463257
5.9197325,-16.3899993896484
5.9353575,-26.0
5.9509825,-34.75
5.9666075,-42.8899993896484
5.9822325,-50.2000007629395
5.9978575,-56.2999992370605
6.0134825,-61.0800018310547
6.0291075,-64.6800003051758
6.0447325,-67.25
6.0603575,-68.8899993896484
6.0759825,-69.7699966430664
6.0916075,-70.0699996948242
6.1072325,-69.9199981689453
6.1228575,-69.3499984741211
6.1384825,-68.4800033569336
6.1541075,-67.6600036621094
6.1697325,-67.129997253418
6.1853575,-66.6399993896484
6.2009825,-65.0199966430664
6.2166075,-59.7400016784668
6.2322325,-47.3600006103516
6.2478575,-25.4599990844727
6.2634825,5.63000011444092
6.2791075,41.8899993896484
6.2947325,76.5199966430664
6.3103575,102.919998168945
6.3259825,117.470001220703
6.3416075,120.269996643066
6.3572325,114.069999694824
6.3728575,102.580001831055
6.3884825,89.1399993896484
6.4041075,75.8899993896484
6.4197325,63.3800010681152
6.4353575,51.0200004577637
6.4509825,38.2299995422363
6.4666075,24.9899997711182
6.4822325,11.8100004196167
6.4978575,-0.579999983310699
6.5134825,-11.6199998855591
6.5291075,-21.0200004577637
6.5447325,-28.7199993133545
6.5603575,-34.7299995422363
6.5759825,-39.1100006103516
6.5916075,-42.0800018310547
6.6072325,-44.0200004577637
6.6228575,-45.310001373291
6.6384825,-46.189998626709
6.6541075,-46.8899993896484
6.6697325,-47.6699981689453
6.6853575,-48.6399993896484
6.7009825,-49.5
6.7166075,-49.7400016784668
6.7322325,-49.0999984741211
6.7478575,-47.8400001525879
6.7634825,-46.4900016784668
6.7791075,-45.1300010681152
6.7947325,-42.1699981689453
6.8103575,-34.0900001525879
6.8259825,-17.4500007629395
6.8416075,8.17000007629395
6.8572325,39.2200012207031
6.8728575,69.7200012207031
6.8884825,94.0100021362305
6.9041075,108.730003356934
6.9197325,113.389999389648
6.9353575,109.720001220703
6.9509825,100.379997253418
6.9666075,87.9400024414063
6.9822325,74.2300033569336
6.9978575,60.3400001525879
7.0134825,46.7799987792969
7.0291075,33.7599983215332
7.0447325,21.3899993896484
7.0603575,9.98999977111816
7.0759825,-0.0599999986588955
7.0916075,-8.64000034332275
7.1072325,-15.8299999237061
7.1228575,-21.7700004577637
7.1384825,-26.6200008392334
7.1541075,-30.5799999237061
7.1697325,-33.9300003051758
7.1853575,-36.939998626709
7.2009825,-39.7000007629395
7.2166075,-42.0800018310547
7.2322325,-43.8600006103516
7.2478575,-44.939998626709
7.2634825,-45.4099998474121
7.2791075,-45.5299987792969
7.2947325,-45.5400009155273
7.3103575,-45.5800018310547
7.3259825,-45.5200004577637
7.3416075,-44.5900001525879
7.3572325,-40.689998626709
7.3728575,-30.5599994659424
7.3884825,-11.6099996566772
7.4041075,15.710000038147
7.4197325,47.6500015258789
7.4353575,78.3499984741211
7.4509825,101.860000610352
7.4666075,114.379997253418
7.4822325,115.569999694824
7.4978575,107.930000305176
7.5134825,95.129997253418
7.5291075,80.2600021362305
7.5447325,65.0400009155273
7.5603575,50.1300010681152
7.5759825,35.75
7.5916075,22.0699996948242
7.6072325,9.25
7.6228575,-2.5699999332428
7.6384825,-13.210000038147
7.6541075,-22.5
7.6697325,-30.4699993133545
7.6853575,-37.1500015258789
7.7009825,-42.4799995422363
7.7166075,-46.439998626709
7.7322325,-49.2099990844727
7.7478575,-51.1699981689453
7.7634825,-52.8199996948242
7.7791075,-54.5900001525879
7.7947325,-56.6599998474121
7.8103575,-58.7200012207031
7.8259825,-60.2999992370605
7.8416075,-61.1399993896484
7.8572325,-61.4199981689453
7.8728575,-61.2599983215332
7.8884825,-59.8199996948242
7.9041075,-54.1699981689453
7.9197325,-40.1699981689453
7.9353575,-15.7399997711182
7.9509825,16.5699996948242
7.9666075,50.6599998474121
7.9822325,79.7699966430664
7.9978575,99.2300033569336
8.0134825,107.519996643066
8.0291075,105.959999084473
8.0447325,97.3499984741211
8.0603575,84.6800003051758
8.0759825,70.2200012207031
8.0916075,55.2400016784668
8.1072325,40.1800003051758
8.1228575,25.1800003051758
8.1384825,10.539999961853
8.1541075,-3.30999994277954
8.1697325,-16.0400009155273
8.1853575,-27.3899993896484
8.2009825,-37.0999984741211
8.2166075,-44.9900016784668
8.2322325,-51.1199989318848
8.2478575,-55.7799987792969
8.2634825,-59.2700004577637
8.2791075,-61.9799995422363
8.2947325,-64.2900009155273
8.3103575,-66.4400024414063
8.3259825,-68.4599990844727
8.3416075,-70.2099990844727
8.3572325,-71.4400024414063
8.3728575,-71.9499969482422
8.3884825,-71.8000030517578
8.4041075,-71.1100006103516
8.4197325,-69.3399963378906
8.4353575,-64.4000015258789
8.4509825,-52.8400001525879
8.4666075,-31.9699993133545
8.4822325,-2.3199999332428
8.4978575,31.8199996948242
8.5134825,64.3899993896484
8.5291075,90.0
8.5447325,105.559997558594
8.5603575,110.5
8.5759825,106.319999694824
8.5916075,95.7900009155273
8.6072325,81.7200012207031
8.6228575,66.1800003051758
8.6384825,50.3699989318848
8.6541075,34.7999992370605
8.6697325,19.6800003051758
8.6853575,5.25
8.7009825,-8.03999996185303
8.7166075,-19.7600002288818
8.7322325,-29.6399993896484
8.7478575,-37.6699981689453
8.7634825,-43.9900016784668
8.7791075,-48.8899993896484
8.7947325,-52.7200012207031
8.8103575,-55.7200012207031
8.8259825,-57.9500007629395
8.8416075,-59.5
8.8572325,-60.5800018310547
8.8728575,-61.4199981689453
8.8884825,-62.1300010681152
8.9041075,-62.8499984741211
8.9197325,-63.7299995422363
8.9353575,-64.7099990844727
8.9509825,-65.25
8.9666075,-64.0
8.9822325,-58.2299995422363
8.9978575,-44.4599990844727
9.0134825,-20.4899997711182
9.0291075,12.8800001144409
9.0447325,51.1300010681152
9.0603575,86.9899978637695
9.0759825,113.550003051758
9.0916075,127.080001831055
9.1072325,127.910003662109
9.1228575,119.23999786377
9.1384825,105.150001525879
9.1541075,88.9800033569336
9.1697325,72.5800018310547
9.1853575,56.5900001525879
9.2009825,41.0800018310547
9.2166075,26.1200008392334
9.2322325,12.0600004196167
9.2478575,-0.639999985694885
9.2634825,-11.6099996566772
9.2791075,-20.7299995422363
9.2947325,-28.1000003814697
9.3103575,-33.8800010681152
9.3259825,-38.2700004577637
9.3416075,-41.5099983215332
9.3572325,-43.8300018310547
9.3728575,-45.5200004577637
9.3884825,-46.9000015258789
9.4041075,-48.2200012207031
9.4197325,-49.439998626709
9.4353575,-50.2299995422363
9.4509825,-50.4099998474121
9.4666075,-50.1300010681152
9.4822325,-49.75
9.4978575,-49.560001373291
9.5134825,-49.2799987792969
9.5291075,-47.2200012207031
9.5447325,-39.9900016784668
9.5603575,-24.2199993133545
9.5759825,0.769999980926514
9.5916075,31.9099998474121
9.6072325,63.5099983215332
9.6228575,89.6399993896484
9.6384825,106.339996337891
9.6541075,112.569999694824
9.6697325,109.699996948242
9.6853575,100.290000915527
9.7009825,86.9700012207031
9.7166075,71.8499984741211
9.7322325,56.3400001525879
9.7478575,41.2700004577637
9.7634825,27.0
9.7791075,13.6000003814697
9.7947325,1.00999999046326
9.8103575,-10.6800003051758
9.8259825,-21.0799999237061
9.8416075,-29.6700000762939
9.8572325,-36.1599998474121
9.8728575,-40.7299995422363
9.8884825,-43.8800010681152
9.9041075,-46.1199989318848
9.9197325,-47.560001373291
9.9353575,-48.1300010681152
9.9509825,-48.2000007629395
9.9666075,-48.5200004577637
9.9822325,-49.5999984741211
9.9978575,-51.3400001525879
10.0134825,-53.2400016784668
10.0291075,-54.7900009155273
10.0447325,-55.7799987792969
10.0603575,-56.2999992370605
10.0759825,-56.3300018310547
10.0916075,-54.8199996948242
10.1072325,-49.3600006103516
10.1228575,-36.8800010681152
10.1384825,-15.5500001907349
10.1541075,13.4499998092651
10.1697325,45.8600006103516
10.1853575,75.8499984741211
10.2009825,98.4000015258789
10.2166075,110.790000915527
10.2322325,112.849998474121
10.2478575,106.51000213623
10.2634825,94.6900024414063
10.2791075,80.2200012207031
10.2947325,64.9499969482422
10.3103575,49.7299995422363
10.3259825,34.8499984741211
10.3416075,20.6299991607666
10.3572325,7.59000015258789
10.3728575,-3.74000000953674
10.3884825,-13.0699996948242
10.4041075,-20.4699993133545
10.4197325,-26.2800006866455
10.4353575,-30.8799991607666
10.4509825,-34.6199989318848
10.4666075,-37.8600006103516
10.4822325,-40.7099990844727
10.4978575,-43.1100006103516
10.5134825,-44.9300003051758
10.5291075,-46.2000007629395
10.5447325,-47.0999984741211
10.5603575,-47.9099998474121
10.5759825,-48.7900009155273
10.5916075,-49.6800003051758
10.6072325,-50.2999992370605
10.6228575,-50.3499984741211
10.6384825,-49.2599983215332
10.6541075,-45.2999992370605
10.6697325,-35.5400009155273
10.6853575,-17.2199993133545
10.7009825,10.1899995803833
10.7166075,43.5200004577637
10.7322325,76.2900009155273
10.7478575,101.599998474121
10.7634825,115.26000213623
10.7791075,116.919998168945
10.7947325,109.300003051758
10.8103575,96.3600006103516
10.8259825,81.5899963378906
10.8416075,67.0899963378906
10.8572325,53.6399993896484
10.8728575,41.2099990844727
10.8884825,29.6000003814697
10.9041075,18.6700000762939
10.9197325,8.34000015258789
10.9353575,-1.37000000476837
10.9509825,-10.4099998474121
10.9666075,-18.5
10.9822325,-25.2199993133545
10.9978575,-30.1399993896484
11.0134825,-33.1199989318848
11.0291075,-34.4700012207031
11.0447325,-34.8699989318848
11.0603575,-35.2299995422363
11.0759825,-36.3899993896484
11.0916075,-38.7200012207031
11.1072325,-42.0400009155273
11.1228575,-45.9000015258789
11.1384825,-49.9599990844727
11.1541075,-54.0900001525879
11.1697325,-57.9199981689453
11.1853575,-59.7900009155273
11.2009825,-56.2999992370605
11.2166075,-43.7200012207031
11.2322325,-20.7299995422363
11.2478575,9.94999980926514
11.2634825,42.3699989318848
11.2791075,69.7699966430664
11.2947325,87.4899978637695
11.3103575,94.5199966430664
11.3259825,92.9800033569336
11.3416075,86.2399978637695
11.3572325,77.0199966430664
11.3728575,66.7200012207031
11.3884825,55.5
11.4041075,42.8600006103516
11.4197325,28.4300003051758
11.4353575,12.75
11.4509825,-2.80999994277954
11.4666075,-16.9200000762939
11.4822325,-29.0100002288818
11.4978575,-39.2799987792969
11.5134825,-48.1100006103516
11.5291075,-55.5
11.5447325,-61.25
