Time(s),Value(%)
1139.0056241,37.1599998474121
1139.0212491,35.3899993896484
1139.0368741,33.8400001525879
1139.0524991,32.189998626709
1139.0681241,29.7900009155273
1139.0837491,26.0100002288818
1139.0993741,20.6399993896484
1139.1149991,13.5900001525879
1139.1306241,4.51000022888184
1139.1462491,-6.94999980926514
1139.1618741,-20.5
1139.1774991,-34.75
1139.1931241,-47.7000007629395
1139.2087491,-58.2799987792969
1139.2243741,-67.1699981689453
1139.2399991,-75.879997253418
1139.2556241,-84.879997253418
1139.2712491,-93.2600021362305
1139.2868741,-99.8300018310547
1139.3024991,-104.059997558594
1139.3181241,-106.300003051758
1139.3337491,-107.470001220703
1139.3493741,-108.540000915527
1139.3649991,-110.139999389648
1139.3806241,-112.379997253418
1139.3962491,-115.139999389648
1139.4118741,-118.410003662109
1139.4274991,-122.209999084473
1139.4431241,-126.300003051758
1139.4587491,-129.600006103516
1139.4743741,-130.190002441406
1139.4899991,-126.540000915527
1139.5056241,-118.75
1139.5212491,-108.389999389648
1139.5368741,-97.1900024414063
1139.5524991,-86.2399978637695
1139.5681241,-75.8600006103516
1139.5837491,-65.9499969482422
1139.5993741,-56.3899993896484
1139.6149991,-47.2900009155273
1139.6306241,-39.1399993896484
1139.6462491,-32.4700012207031
1139.6618741,-27.4899997711182
1139.6774991,-24.2099990844727
1139.6931241,-22.7800006866455
1139.7087491,-23.3199996948242
1139.7243741,-25.5100002288818
1139.7399991,-28.2199993133545
1139.7556241,-29.7600002288818
1139.7712491,-29.0699996948242
1139.7868741,-26.5900001525879
1139.8024991,-23.5499992370605
1139.8181241,-20.6900005340576
1139.8337491,-17.7800006866455
1139.8493741,-14.2399997711182
1139.8649991,-9.76000022888184
1139.8806241,-4.53999996185303
1139.8962491,0.769999980926514
1139.9118741,5.34000015258789
1139.9274991,8.55000019073486
1139.9431241,10.25
1139.9587491,10.6099996566772
1139.9743741,9.73999977111816
1139.9899991,7.65999984741211
1140.0056241,4.71999979019165
1140.0212491,1.98000001907349
1140.0368741,1.27999997138977
1140.0524991,4.30999994277954
1140.0681241,11.6099996566772
1140.0837491,22.5200004577637
1140.0993741,35.7900009155273
1140.1149991,50.2099990844727
1140.1306241,64.7900009155273
1140.1462491,78.8399963378906
1140.1618741,91.9800033569336
1140.1774991,104.169998168945
1140.1931241,115.589996337891
1140.2087491,126.480003356934
1140.2243741,136.960006713867
1140.2399991,146.990005493164
1140.2556241,156.419998168945
1140.2712491,165.110000610352
1140.2868741,172.929992675781
1140.3024991,179.589996337891
1140.3181241,184.600006103516
1140.3337491,187.5
1140.3493741,188.289993286133
1140.3649991,187.270004272461
1140.3806241,184.839996337891
1140.3962491,181.279998779297
1140.4118741,176.899993896484
1140.4274991,172.179992675781
1140.4431241,167.649993896484
1140.4587491,163.539993286133
1140.4743741,159.559997558594
1140.4899991,155.25
1140.5056241,150.490005493164
1140.5212491,145.389999389648
1140.5368741,139.880004882813
1140.5524991,133.660003662109
1140.5681241,126.599998474121
1140.5837491,119.099998474121
1140.5993741,111.650001525879
1140.6149991,105.230003356934
1140.6306241,99.7099990844727
1140.6462491,94.5999984741211
1140.6618741,89.7200012207031
1140.6774991,85.4700012207031
1140.6931241,82.4000015258789
1140.7087491,80.7399978637695
1140.7243741,80.3199996948242
1140.7399991,80.8000030517578
1140.7556241,82.0999984741211
1140.7712491,84.5800018310547
1140.7868741,88.6999969482422
1140.8024991,94.5199966430664
1140.8181241,101.430000305176
1140.8337491,108.339996337891
1140.8493741,114.300003051758
1140.8649991,118.870002746582
1140.8806241,122.129997253418
1140.8962491,124.379997253418
1140.9118741,125.849998474121
1140.9274991,126.610000610352
1140.9431241,126.699996948242
1140.9587491,126.290000915527
1140.9743741,125.610000610352
1140.9899991,124.919998168945
1141.0056241,124.279998779297
1141.0212491,123.430000305176
1141.0368741,121.809997558594
1141.0524991,118.949996948242
1141.0681241,114.790000915527
1141.0837491,109.669998168945
1141.0993741,104.01000213623
1141.1149991,98.120002746582
1141.1306241,92.1600036621094
1141.1462491,86.1699981689453
1141.1618741,80.1600036621094
1141.1774991,74.0100021362305
1141.1931241,67.5299987792969
1141.2087491,60.5099983215332
1141.2243741,52.9599990844727
1141.2399991,45.0699996948242
1141.2556241,37.1300010681152
1141.2712491,29.4099998474121
1141.2868741,22.0200004577637
1141.3024991,14.9499998092651
1141.3181241,8.13000011444092
1141.3337491,1.45000004768372
1141.3493741,-5.07000017166138
1141.3649991,-11.1400003433228
1141.3806241,-16.1200008392334
1141.3962491,-19.4599990844727
1141.4118741,-21.0400009155273
1141.4274991,-21.2700004577637
1141.4431241,-20.6700000762939
1141.4587491,-19.2900009155273
1141.4743741,-16.6599998474121
1141.4899991,-12.4399995803833
1141.5056241,-7.1100001335144
1141.5212491,-1.6599999666214
1141.5368741,3.29999995231628
1141.5524991,7.8600001335144
1141.5681241,12.25
1141.5837491,16.2199993133545
1141.5993741,18.7199993133545
1141.6149991,18.8999996185303
1141.6306241,16.5599994659424
1141.6462491,12.1999998092651
1141.6618741,6.44000005722046
1141.6774991,-0.310000002384186
1141.6931241,-7.73999977111816
1141.7087491,-15.4799995422363
1141.7243741,-23.2700004577637
1141.7399991,-31.2900009155273
1141.7556241,-40.2599983215332
1141.7712491,-50.939998626709
1141.7868741,-63.5800018310547
1141.8024991,-78.1699981689453
1141.8181241,-94.879997253418
1141.8337491,-113.919998168945
1141.8493741,-134.839996337891
1141.8649991,-156.210006713867
1141.8806241,-176.110000610352
1141.8962491,-193.539993286133
1141.9118741,-209.199996948242
1141.9274991,-224.350006103516
1141.9431241,-239.100006103516
1141.9587491,-252.300003051758
1141.9743741,-262.720001220703
1141.9899991,-270.010009765625
1142.0056241,-274.760009765625
1142.0212491,-277.820007324219
1142.0368741,-279.769989013672
1142.0524991,-280.760009765625
1142.0681241,-280.799987792969
1142.0837491,-280.049987792969
1142.0993741,-278.920013427734
1142.1149991,-277.820007324219
1142.1306241,-276.869995117188
1142.1462491,-275.480010986328
1142.1618741,-272.429992675781
1142.1774991,-266.619995117188
1142.1931241,-258.0
1142.2087491,-247.429992675781
1142.2243741,-236.100006103516
1142.2399991,-224.830001831055
1142.2556241,-214.0
1142.2712491,-203.630004882813
1142.2868741,-193.600006103516
1142.3024991,-183.869995117188
1142.3181241,-174.529998779297
1142.3337491,-165.75
1142.3493741,-157.610000610352
1142.3649991,-150.149993896484
1142.3806241,-143.389999389648
1142.3962491,-137.369995117188
1142.4118741,-131.949996948242
1142.4274991,-126.75
1142.4431241,-121.230003356934
1142.4587491,-115.139999389648
1142.4743741,-108.830001831055
1142.4899991,-102.970001220703
1142.5056241,-97.8600006103516
1142.5212491,-93.3099975585938
1142.5368741,-88.8499984741211
1142.5524991,-84.129997253418
1142.5681241,-79.0599975585938
1142.5837491,-73.8899993896484
1142.5993741,-68.3199996948242
1142.6149991,-63.5999984741211
1142.6306241,-59.7200012207031
1142.6462491,-56.2700004577637
1142.6618741,-52.5200004577637
1142.6774991,-47.8400001525879
1142.6931241,-41.9900016784668
1142.7087491,-34.9500007629395
1142.7243741,-26.5499992370605
1142.7399991,-16.3299999237061
1142.7556241,-3.95000004768372
1142.7712491,10.3500003814697
1142.7868741,25.5200004577637
1142.8024991,40.1300010681152
1142.8181241,53.0800018310547
1142.8337491,64.0599975585938
1142.8493741,73.3899993896484
1142.8649991,81.5800018310547
1142.8806241,89.0
1142.8962491,95.8000030517578
1142.9118741,101.970001220703
1142.9274991,107.529998779297
1142.9431241,112.569999694824
1142.9587491,117.220001220703
1142.9743741,121.529998779297
1142.9899991,125.279998779297
1143.0056241,127.980003356934
1143.0212491,129.089996337891
1143.0368741,128.410003662109
1143.0524991,126.190002441406
1143.0681241,122.980003356934
1143.0837491,119.379997253418
1143.0993741,115.830001831055
1143.1149991,112.540000915527
1143.1306241,109.48999786377
1143.1462491,106.389999389648
1143.1618741,102.809997558594
1143.1774991,98.3499984741211
1143.1931241,92.9599990844727
1143.2087491,86.7600021362305
1143.2243741,79.870002746582
1143.2399991,72.3399963378906
1143.2556241,64.3899993896484
1143.2712491,56.5699996948242
1143.2868741,49.7400016784668
1143.3024991,44.7599983215332
1143.3181241,42.1699981689453
1143.3337491,42.0099983215332
1143.3493741,44.0299987792969
1143.3649991,47.9199981689453
1143.3806241,53.4700012207031
1143.3962491,60.4700012207031
1143.4118741,68.4199981689453
1143.4274991,76.5100021362305
1143.4431241,83.7799987792969
1143.4587491,89.6500015258789
1143.4743741,94.2099990844727
1143.4899991,97.8099975585938
1143.5056241,100.559997558594
1143.5212491,102.26000213623
1143.5368741,102.76000213623
1143.5524991,102.190002441406
1143.5681241,100.889999389648
1143.5837491,99.0999984741211
1143.5993741,96.0400009155273
1143.6149991,92.3199996948242
1143.6306241,87.8300018310547
1143.6462491,82.629997253418
1143.6618741,76.7900009155273
1143.6774991,70.3600006103516
1143.6931241,63.5499992370605
1143.7087491,56.6399993896484
1143.7243741,49.9500007629395
1143.7399991,43.4099998474121
1143.7556241,36.560001373291
1143.7712491,28.9300003051758
1143.7868741,20.6000003814697
1143.8024991,12.210000038147
1143.8181241,4.46999979019165
1143.8337491,-2.24000000953674
1143.8493741,-7.8899998664856
1143.8649991,-12.460000038147
1143.8806241,-15.6999998092651
1143.8962491,-17.2900009155273
1143.9118741,-17.1800003051758
1143.9274991,-15.3900003433228
1143.9431241,-11.7200002670288
1143.9587491,-6.0
1143.9743741,1.52999997138977
1143.9899991,10.1499996185303
1144.0056241,18.9599990844727
1144.0212491,27.6399993896484
1144.0368741,36.5699996948242
1144.0524991,46.0999984741211
1144.0681241,55.7099990844727
1144.0837491,64.1500015258789
1144.0993741,70.4300003051758
1144.1149991,74.4000015258789
1144.1306241,76.6800003051758
1144.1462491,78.1900024414063
1144.1618741,79.7600021362305
1144.1774991,81.8199996948242
1144.1931241,84.3899993896484
1144.2087491,87.4000015258789
1144.2243741,90.9499969482422
1144.2399991,95.2699966430664
1144.2556241,100.23999786377
1144.2712491,105.01000213623
1144.2868741,108.129997253418
1144.3024991,108.470001220703
1144.3181241,106.080001831055
1144.3337491,101.889999389648
1144.3493741,96.8199996948242
1144.3649991,91.2699966430664
1144.3806241,85.3300018310547
1144.3962491,79.0100021362305
1144.4118741,72.4599990844727
1144.4274991,65.8899993896484
1144.4431241,59.5200004577637
1144.4587491,53.4700012207031
1144.4743741,47.7900009155273
1144.4899991,42.5400009155273
1144.5056241,37.8800010681152
1144.5212491,33.939998626709
1144.5368741,30.6900005340576
1144.5524991,27.6800003051758
1144.5681241,24.25
1144.5837491,20.0599994659424
1144.5993741,15.4099998474121
1144.6149991,11.3000001907349
1144.6306241,8.15999984741211
1144.6462491,5.75
1144.6618741,3.55999994277954
1144.6774991,1.14999997615814
1144.6931241,-1.60000002384186
1144.7087491,-4.3600001335144
1144.7243741,-6.46000003814697
1144.7399991,-7.32000017166138
1144.7556241,-6.76999998092651
1144.7712491,-5.01999998092651
1144.7868741,-2.30999994277954
1144.8024991,1.19000005722046
1144.8181241,5.1399998664856
1144.8337491,8.64000034332275
1144.8493741,10.3400001525879
1144.8649991,9.1899995803833
1144.8806241,5.19999980926514
1144.8962491,-0.680000007152557
1144.9118741,-7.42999982833862
1144.9274991,-14.4399995803833
1144.9431241,-21.4400005340576
1144.9587491,-28.3400001525879
1144.9743741,-35.0800018310547
1144.9899991,-41.5900001525879
1145.0056241,-47.8199996948242
1145.0212491,-53.7599983215332
1145.0368741,-59.3899993896484
1145.0524991,-64.6900024414063
1145.0681241,-69.6100006103516
1145.0837491,-74.0999984741211
1145.0993741,-78.1699981689453
1145.1149991,-82.0
1145.1306241,-85.879997253418
1145.1462491,-90.0599975585938
1145.1618741,-94.5800018310547
1145.1774991,-99.2900009155273
1145.1931241,-103.919998168945
1145.2087491,-108.290000915527
1145.2243741,-112.300003051758
1145.2399991,-115.919998168945
1145.2556241,-119.099998474121
1145.2712491,-121.470001220703
1145.2868741,-122.279998779297
1145.3024991,-120.830001831055
1145.3181241,-116.98999786377
1145.3337491,-111.129997253418
1145.3493741,-103.690002441406
1145.3649991,-94.9899978637695
1145.3806241,-85.5
1145.3962491,-76.1600036621094
1145.4118741,-68.2699966430664
1145.4274991,-62.810001373291
1145.4431241,-59.810001373291
1145.4587491,-58.5800018310547
1145.4743741,-58.5400009155273
1145.4899991,-59.4500007629395
1145.5056241,-61.189998626709
1145.5212491,-63.5499992370605
1145.5368741,-66.1800003051758
1145.5524991,-68.8000030517578
1145.5681241,-71.379997253418
1145.5837491,-73.9800033569336
1145.5993741,-76.8099975585938
1145.6149991,-79.7200012207031
1145.6306241,-82.620002746582
1145.6462491,-85.4300003051758
1145.6618741,-88.0500030517578
1145.6774991,-90.4700012207031
1145.6931241,-92.7900009155273
1145.7087491,-95.1699981689453
1145.7243741,-97.7900009155273
1145.7399991,-100.690002441406
1145.7556241,-103.730003356934
1145.7712491,-106.669998168945
1145.7868741,-109.339996337891
1145.8024991,-111.709999084473
1145.8181241,-113.800003051758
1145.8337491,-115.540000915527
1145.8493741,-116.730003356934
1145.8649991,-116.98999786377
1145.8806241,-115.860000610352
1145.8962491,-113.040000915527
1145.9118741,-108.610000610352
1145.9274991,-103.029998779297
1145.9431241,-96.9199981689453
1145.9587491,-90.8300018310547
1145.9743741,-85.0400009155273
1145.9899991,-79.3899993896484
1146.0056241,-73.379997253418
1146.0212491,-66.5
1146.0368741,-58.5900001525879
1146.0524991,-49.8800010681152
1146.0681241,-40.7299995422363
1146.0837491,-31.4599990844727
1146.0993741,-22.4099998474121
1146.1149991,-14.1499996185303
1146.1306241,-7.59999990463257
1146.1462491,-3.51999998092651
1146.1618741,-1.97000002861023
1146.1774991,-2.25999999046326
1146.1931241,-3.48000001907349
1146.2087491,-4.92999982833862
1146.2243741,-6.21999979019165
1146.2399991,-7.25
1146.2556241,-8.05000019073486
1146.2712491,-8.77000045776367
1146.2868741,-9.60000038146973
1146.3024991,-10.6899995803833
1146.3181241,-12.039999961853
1146.3337491,-13.5900001525879
1146.3493741,-15.3299999237061
1146.3649991,-17.2399997711182
1146.3806241,-19.2600002288818
1146.3962491,-21.2299995422363
1146.4118741,-22.9300003051758
1146.4274991,-24.2000007629395
1146.4431241,-25.0799999237061
1146.4587491,-25.6499996185303
1146.4743741,-25.9200000762939
1146.4899991,-25.8099994659424
1146.5056241,-25.2299995422363
1146.5212491,-24.2399997711182
1146.5368741,-22.8899993896484
1146.5524991,-20.9200000762939
1146.5681241,-17.7099990844727
1146.5837491,-12.5900001525879
1146.5993741,-5.48999977111816
1146.6149991,3.26999998092651
1146.6306241,13.1700000762939
1146.6462491,23.7299995422363
1146.6618741,34.4799995422363
1146.6774991,44.7400016784668
1146.6931241,53.5299987792969
1146.7087491,60.1100006103516
1146.7243741,64.379997253418
1146.7399991,66.8399963378906
1146.7556241,68.0199966430664
1146.7712491,68.2600021362305
1146.7868741,67.7900009155273
1146.8024991,66.870002746582
1146.8181241,65.75
1146.8337491,64.5599975585938
1146.8493741,63.2700004577637
1146.8649991,61.7299995422363
1146.8806241,59.8899993896484
1146.8962491,57.7400016784668
1146.9118741,55.2799987792969
1146.9274991,52.5499992370605
1146.9431241,49.6399993896484
1146.9587491,46.7000007629395
1146.9743741,43.939998626709
1146.9899991,41.3699989318848
1147.0056241,38.8199996948242
1147.0212491,36.060001373291
1147.0368741,33.0999984741211
1147.0524991,30.2000007629395
1147.0681241,27.6499996185303
1147.0837491,25.6000003814697
1147.0993741,24.0300006866455
1147.1149991,22.8700008392334
1147.1306241,22.1200008392334
1147.1462491,21.7999992370605
1147.1618741,21.9599990844727
1147.1774991,22.7099990844727
1147.1931241,24.3400001525879
1147.2087491,27.1100006103516
1147.2243741,31.0
1147.2399991,35.6800003051758
1147.2556241,40.7700004577637
1147.2712491,46.1300010681152
1147.2868741,51.9199981689453
1147.3024991,58.189998626709
1147.3181241,64.5
1147.3337491,70.1399993896484
1147.3493741,74.5599975585938
1147.3649991,77.7099990844727
1147.3806241,79.9100036621094
1147.3962491,81.4199981689453
1147.4118741,82.2300033569336
1147.4274991,82.129997253418
1147.4431241,81.0299987792969
1147.4587491,79.0699996948242
1147.4743741,76.4800033569336
1147.4899991,73.5
1147.5056241,70.3399963378906
1147.5212491,67.1699981689453
1147.5368741,64.0800018310547
1147.5524991,60.9799995422363
1147.5681241,57.6699981689453
1147.5837491,53.9900016784668
1147.5993741,50.4000015258789
1147.6149991,46.8199996948242
1147.6306241,43.5800018310547
1147.6462491,40.8300018310547
1147.6618741,38.4799995422363
1147.6774991,36.25
1147.6931241,33.6800003051758
1147.7087491,30.4599990844727
1147.7243741,26.5200004577637
1147.7399991,22.0
1147.7556241,17.1100006103516
1147.7712491,11.9700002670288
1147.7868741,6.76999998092651
1147.8024991,1.94000005722046
1147.8181241,-1.75999999046326
1147.8337491,-3.60999989509583
1147.8493741,-3.1800000667572
1147.8649991,-0.560000002384186
1147.8806241,3.74000000953674
1147.8962491,9.06999969482422
1147.9118741,14.7600002288818
1147.9274991,20.2999992370605
1147.9431241,25.4099998474121
1147.9587491,30.0799999237061
1147.9743741,34.4900016784668
1147.9899991,38.8300018310547
1148.0056241,43.1699981689453
1148.0212491,47.439998626709
1148.0368741,51.4599990844727
1148.0524991,55.0200004577637
1148.0681241,58.0200004577637
1148.0837491,60.3300018310547
1148.0993741,61.6800003051758
1148.1149991,61.75
1148.1306241,60.4199981689453
1148.1462491,57.9000015258789
1148.1618741,54.6500015258789
1148.1774991,51.1300010681152
1148.1931241,47.4599990844727
1148.2087491,43.5200004577637
1148.2243741,39.2000007629395
1148.2399991,34.6699981689453
1148.2556241,30.2900009155273
1148.2712491,26.2999992370605
1148.2868741,22.5699996948242
1148.3024991,18.8099994659424
1148.3181241,15.0200004577637
1148.3337491,11.5
1148.3493741,8.56999969482422
1148.3649991,6.34000015258789
1148.3806241,4.67000007629395
1148.3962491,3.3199999332428
1148.4118741,2.0699999332428
1148.4274991,0.810000002384186
1148.4431241,-0.419999986886978
1148.4587491,-1.42999994754791
1148.4743741,-1.82000005245209
1148.4899991,-1.25999999046326
1148.5056241,0.28999999165535
1148.5212491,2.74000000953674
1148.5368741,6.01999998092651
1148.5524991,10.2299995422363
1148.5681241,15.5
1148.5837491,21.6299991607666
1148.5993741,28.2900009155273
1148.6149991,34.439998626709
1148.6306241,39.4900016784668
1148.6462491,43.3199996948242
1148.6618741,46.2200012207031
1148.6774991,48.439998626709
1148.6931241,49.9199981689453
1148.7087491,50.4199981689453
1148.7243741,49.8199996948242
1148.7399991,48.2200012207031
1148.7556241,45.810001373291
1148.7712491,42.7900009155273
1148.7868741,39.4000015258789
1148.8024991,35.8800010681152
1148.8181241,32.4599990844727
1148.8337491,29.1599998474121
1148.8493741,25.7299995422363
1148.8649991,21.9099998474121
1148.8806241,17.7399997711182
1148.8962491,13.5900001525879
1148.9118741,9.84000015258789
1148.9274991,6.65999984741211
1148.9431241,3.97000002861023
1148.9587491,1.38999998569489
1148.9743741,-1.62000000476837
1148.9899991,-5.53000020980835
1149.0056241,-10.3800001144409
1149.0212491,-15.960000038147
1149.0368741,-21.9599990844727
1149.0524991,-28.1800003051758
1149.0681241,-34.3400001525879
1149.0837491,-39.939998626709
1149.0993741,-44.0800018310547
1149.1149991,-45.8600006103516
1149.1306241,-44.7900009155273
1149.1462491,-41.0299987792969
1149.1618741,-35.25
1149.1774991,-28.3600006103516
1149.1931241,-21.2000007629395
1149.2087491,-14.3900003433228
1149.2243741,-8.1899995803833
1149.2399991,-2.63000011444092
1149.2556241,2.4300000667572
1149.2712491,7.15000009536743
1149.2868741,11.6099996566772
1149.3024991,15.7399997711182
1149.3181241,19.3700008392334
1149.3337491,22.2999992370605
1149.3493741,24.4799995422363
1149.3649991,25.8400001525879
1149.3806241,26.2199993133545
1149.3962491,25.3400001525879
1149.4118741,22.9899997711182
1149.4274991,19.3199996948242
1149.4431241,14.8800001144409
