Time(s),Value(%)
1112.0120582,49.939998626709
1112.0276832,46.0800018310547
1112.0433082,41.8699989318848
1112.0589332,37.2700004577637
1112.0745582,31.5900001525879
1112.0901832,24.8099994659424
1112.1058082,17.8999996185303
1112.1214332,11.9300003051758
1112.1370582,7.23999977111816
1112.1526832,3.35999989509583
1112.1683082,-0.209999993443489
1112.1839332,-3.64000010490417
1112.1995582,-6.67999982833862
1112.2151832,-9.02999973297119
1112.2308082,-10.5500001907349
1112.2464332,-11.3599996566772
1112.2620582,-11.6599998474121
1112.2776832,-11.6499996185303
1112.2933082,-11.8100004196167
1112.3089332,-12.8400001525879
1112.3245582,-15.1599998474121
1112.3401832,-18.5100002288818
1112.3558082,-22.0799999237061
1112.3714332,-24.8600006103516
1112.3870582,-26.0900001525879
1112.4026832,-25.6200008392334
1112.4183082,-23.9500007629395
1112.4339332,-22.0300006866455
1112.4495582,-20.5599994659424
1112.4651832,-19.7800006866455
1112.4808082,-19.6200008392334
1112.4964332,-19.7399997711182
1112.5120582,-19.5200004577637
1112.5276832,-18.3400001525879
1112.5433082,-15.7700004577637
1112.5589332,-11.75
1112.5745582,-6.3600001335144
1112.5901832,0.400000005960464
1112.6058082,8.48999977111816
1112.6214332,17.2299995422363
1112.6370582,25.25
1112.6526832,31.2199993133545
1112.6683082,34.5299987792969
1112.6839332,35.3899993896484
1112.6995582,34.4000015258789
1112.7151832,32.1500015258789
1112.7308082,29.0300006866455
1112.7464332,25.1800003051758
1112.7620582,20.5499992370605
1112.7776832,15.1999998092651
1112.7933082,9.42000007629395
1112.8089332,3.67000007629395
1112.8245582,-1.55999994277954
1112.8401832,-5.96000003814697
1112.8558082,-9.27999973297119
1112.8714332,-11.2700004577637
1112.8870582,-11.6400003433228
1112.9026832,-10.4399995803833
1112.9183082,-8.32999992370605
1112.9339332,-6.42000007629395
1112.9495582,-5.73999977111816
1112.9651832,-6.78000020980835
1112.9808082,-9.21000003814697
1112.9964332,-12.0900001525879
1113.0120582,-14.3900003433228
1113.0276832,-15.2700004577637
1113.0433082,-14.460000038147
1113.0589332,-12.460000038147
1113.0745582,-10.3599996566772
1113.0901832,-9.11999988555908
1113.1058082,-8.98999977111816
1113.1214332,-9.5600004196167
1113.1370582,-10.1300001144409
1113.1526832,-10.1499996185303
1113.1683082,-9.23999977111816
1113.1839332,-6.86999988555908
1113.1995582,-2.32999992370605
1113.2151832,4.6100001335144
1113.2308082,13.1099996566772
1113.2464332,21.3799991607666
1113.2620582,27.6399993896484
1113.2776832,31.0699996948242
1113.2933082,32.1300010681152
1113.3089332,31.9200000762939
1113.3245582,31.2700004577637
1113.3401832,30.2700004577637
1113.3558082,28.5400009155273
1113.3714332,25.6900005340576
1113.3870582,21.6100006103516
1113.4026832,16.3500003814697
1113.4183082,10.1499996185303
1113.4339332,3.46000003814697
1113.4495582,-3.02999997138977
1113.4651832,-8.61999988555908
1113.4808082,-12.6999998092651
1113.4964332,-15.0600004196167
1113.5120582,-15.9200000762939
1113.5276832,-15.8599996566772
1113.5433082,-15.5299997329712
1113.5589332,-15.4099998474121
1113.5745582,-15.789999961853
1113.5901832,-16.8500003814697
1113.6058082,-18.4799995422363
1113.6214332,-20.2600002288818
1113.6370582,-21.6800003051758
1113.6526832,-22.4200000762939
1113.6683082,-22.3400001525879
1113.6839332,-21.6900005340576
1113.6995582,-21.0799999237061
1113.7151832,-21.1000003814697
1113.7308082,-21.7600002288818
1113.7464332,-22.4799995422363
1113.7620582,-22.4300003051758
1113.7776832,-20.6900005340576
1113.7933082,-16.2000007629395
1113.8089332,-7.94999980926514
1113.8245582,4.15999984741211
1113.8401832,18.6200008392334
1113.8558082,32.7200012207031
1113.8714332,43.8199996948242
1113.8870582,50.3899993896484
1113.9026832,52.2000007629395
1113.9183082,49.9199981689453
1113.9339332,44.7999992370605
1113.9495582,38.4700012207031
1113.9651832,32.4099998474121
1113.9808082,27.2600002288818
1113.9964332,22.6100006103516
1114.0120582,17.5200004577637
1114.0276832,11.25
1114.0433082,3.66000008583069
1114.0589332,-4.5
1114.0745582,-12.0
1114.0901832,-17.7700004577637
1114.1058082,-21.6900005340576
1114.1214332,-24.5
1114.1370582,-26.8899993896484
1114.1526832,-28.9400005340576
1114.1683082,-30.3099994659424
1114.1839332,-30.5499992370605
1114.1995582,-29.5900001525879
1114.2151832,-28.0
1114.2308082,-26.5499992370605
1114.2464332,-25.6700000762939
1114.2620582,-25.3099994659424
1114.2776832,-25.3199996948242
1114.2933082,-25.5100002288818
1114.3089332,-25.7600002288818
1114.3245582,-26.0799999237061
1114.3401832,-26.6100006103516
1114.3558082,-27.3999996185303
1114.3714332,-28.0499992370605
1114.3870582,-27.7600002288818
1114.4026832,-25.7000007629395
1114.4183082,-21.1800003051758
1114.4339332,-13.6199998855591
1114.4495582,-2.85999989509583
1114.4651832,10.3199996948242
1114.4808082,23.9599990844727
1114.4964332,35.4900016784668
1114.5120582,42.9099998474121
1114.5276832,45.8699989318848
1114.5433082,45.5400009155273
1114.5589332,43.2999992370605
1114.5745582,39.8800010681152
1114.5901832,35.5
1114.6058082,30.4099998474121
1114.6214332,24.9599990844727
1114.6370582,19.2299995422363
1114.6526832,13.0299997329712
1114.6683082,6.36999988555908
1114.6839332,-0.209999993443489
1114.6995582,-6.09000015258789
1114.7151832,-11.1000003814697
1114.7308082,-15.6199998855591
1114.7464332,-19.9300003051758
1114.7620582,-23.6800003051758
1114.7776832,-26.1299991607666
1114.7933082,-26.7099990844727
1114.8089332,-25.4699993133545
1114.8245582,-23.1399993896484
1114.8401832,-20.7299995422363
1114.8558082,-19.0100002288818
1114.8714332,-18.1399993896484
1114.8870582,-17.8500003814697
1114.9026832,-17.7000007629395
1114.9183082,-17.3199996948242
1114.9339332,-16.6100006103516
1114.9495582,-15.8400001525879
1114.9651832,-15.4200000762939
1114.9808082,-15.6400003433228
1114.9964332,-16.4699993133545
1115.0120582,-17.5799999237061
1115.0276832,-18.4200000762939
1115.0433082,-18.5599994659424
1115.0589332,-18.0300006866455
1115.0745582,-17.2299995422363
1115.0901832,-16.4500007629395
1115.1058082,-15.4700002670288
1115.1214332,-13.75
1115.1370582,-10.5799999237061
1115.1526832,-5.03000020980835
1115.1683082,3.79999995231628
1115.1839332,16.0699996948242
1115.1995582,30.3700008392334
1115.2151832,43.7999992370605
1115.2308082,53.2200012207031
1115.2464332,56.9300003051758
1115.2620582,55.5999984741211
1115.2776832,51.5200004577637
1115.2933082,47.0099983215332
1115.3089332,43.2700004577637
1115.3245582,40.189998626709
1115.3401832,36.9799995422363
1115.3558082,32.8899993896484
1115.3714332,27.6000003814697
1115.3870582,21.2999992370605
1115.4026832,14.539999961853
1115.4183082,7.92999982833862
1115.4339332,1.95000004768372
1115.4495582,-3.15000009536743
1115.4651832,-7.23000001907349
1115.4808082,-10.1999998092651
1115.4964332,-12.039999961853
1115.5120582,-12.6899995803833
1115.5276832,-12.0900001525879
1115.5433082,-10.6199998855591
1115.5589332,-9.31999969482422
1115.5745582,-9.27999973297119
1115.5901832,-10.8599996566772
1115.6058082,-13.5799999237061
1115.6214332,-16.6599998474121
1115.6370582,-19.1900005340576
1115.6526832,-20.1499996185303
1115.6683082,-18.7700004577637
1115.6839332,-15.3299999237061
1115.6995582,-11.4300003051758
1115.7151832,-9.28999996185303
1115.7308082,-10.4099998474121
1115.7464332,-14.6400003433228
1115.7620582,-20.2299995422363
1115.7776832,-24.8500003814697
1115.7933082,-26.7399997711182
1115.8089332,-25.5400009155273
1115.8245582,-22.2600002288818
1115.8401832,-18.5499992370605
1115.8558082,-15.8699998855591
1115.8714332,-15.0299997329712
1115.8870582,-15.8199996948242
1115.9026832,-17.2800006866455
1115.9183082,-18.0599994659424
1115.9339332,-16.5200004577637
1115.9495582,-10.9099998474121
1115.9651832,-0.150000005960464
1115.9808082,15.3000001907349
1115.9964332,33.3800010681152
1116.0120582,50.810001373291
1116.0276832,64.0999984741211
1116.0433082,70.879997253418
1116.0589332,70.879997253418
1116.0745582,66.0400009155273
1116.0901832,59.2099990844727
1116.1058082,52.4500007629395
1116.1214332,46.3600006103516
1116.1370582,40.6699981689453
1116.1526832,35.0099983215332
1116.1683082,29.2600002288818
1116.1839332,23.3999996185303
1116.1995582,17.4699993133545
1116.2151832,11.6400003433228
1116.2308082,6.40999984741211
1116.2464332,2.41000008583069
1116.2620582,-0.170000001788139
1116.2776832,-1.80999994277954
1116.2933082,-3.10999989509583
1116.3089332,-4.42000007629395
1116.3245582,-5.86999988555908
1116.3401832,-7.55000019073486
1116.3558082,-9.59000015258789
1116.3714332,-12.0299997329712
1116.3870582,-14.5200004577637
1116.4026832,-16.6000003814697
1116.4183082,-18.1100006103516
1116.4339332,-19.3999996185303
1116.4495582,-20.9799995422363
1116.4651832,-23.0900001525879
1116.4808082,-25.4699993133545
1116.4964332,-27.5400009155273
1116.5120582,-28.7000007629395
1116.5276832,-28.6499996185303
1116.5433082,-27.4500007629395
1116.5589332,-25.4699993133545
1116.5745582,-23.25
1116.5901832,-21.4500007629395
1116.6058082,-20.4300003051758
1116.6214332,-19.9099998474121
1116.6370582,-19.1599998474121
1116.6526832,-17.8099994659424
1116.6683082,-16.0900001525879
1116.6839332,-14.5600004196167
1116.6995582,-13.75
1116.7151832,-13.8800001144409
1116.7308082,-14.5299997329712
1116.7464332,-14.3999996185303
1116.7620582,-11.6199998855591
1116.7776832,-4.57999992370605
1116.7933082,7.01999998092651
1116.8089332,21.8999996185303
1116.8245582,37.5999984741211
1116.8401832,51.4500007629395
1116.8558082,61.3199996948242
1116.8714332,66.0
1116.8870582,65.3099975585938
1116.9026832,60.0299987792969
1116.9183082,51.689998626709
1116.9339332,42.0800018310547
1116.9495582,32.7799987792969
1116.9651832,24.7600002288818
1116.9808082,18.0100002288818
1116.9964332,11.6499996185303
1117.0120582,4.90000009536743
1117.0276832,-2.03999996185303
1117.0433082,-8.21000003814697
1117.0589332,-12.539999961853
1117.0745582,-14.5100002288818
1117.0901832,-14.289999961853
1117.1058082,-12.4799995422363
1117.1214332,-9.88000011444092
1117.1370582,-7.34999990463257
1117.1526832,-5.69999980926514
1117.1683082,-5.48000001907349
1117.1839332,-6.86999988555908
1117.1995582,-9.68000030517578
1117.2151832,-13.1800003051758
1117.2308082,-16.2299995422363
1117.2464332,-18.0300006866455
1117.2620582,-18.8199996948242
1117.2776832,-19.5
1117.2933082,-20.6200008392334
1117.3089332,-21.9300003051758
1117.3245582,-22.8700008392334
1117.3401832,-23.1299991607666
1117.3558082,-22.8799991607666
1117.3714332,-22.4699993133545
1117.3870582,-21.9699993133545
1117.4026832,-21.2199993133545
1117.4183082,-20.2000007629395
1117.4339332,-19.1599998474121
1117.4495582,-18.5200004577637
1117.4651832,-18.6499996185303
1117.4808082,-19.6599998474121
1117.4964332,-21.0699996948242
1117.5120582,-21.6499996185303
1117.5276832,-19.6499996185303
1117.5433082,-13.4499998092651
1117.5589332,-2.33999991416931
1117.5745582,12.6099996566772
1117.5901832,28.6200008392334
1117.6058082,42.3400001525879
1117.6214332,51.4500007629395
1117.6370582,55.2299995422363
1117.6526832,54.2599983215332
1117.6683082,50.0299987792969
1117.6839332,44.3300018310547
1117.6995582,38.6800003051758
1117.7151832,33.8199996948242
1117.7308082,29.5900001525879
1117.7464332,25.2399997711182
1117.7620582,19.9799995422363
1117.7776832,13.4099998474121
1117.7933082,5.73999977111816
1117.8089332,-2.30999994277954
1117.8245582,-9.8100004196167
1117.8401832,-15.9799995422363
1117.8558082,-20.3700008392334
1117.8714332,-22.7099990844727
1117.8870582,-22.9200000762939
1117.9026832,-21.4699993133545
1117.9183082,-19.3099994659424
1117.9339332,-17.4500007629395
1117.9495582,-16.3799991607666
1117.9651832,-16.0300006866455
1117.9808082,-16.2600002288818
1117.9964332,-17.2399997711182
1118.0120582,-19.1599998474121
1118.0276832,-21.7800006866455
1118.0433082,-24.3099994659424
1118.0589332,-25.9699993133545
1118.0745582,-26.3600006103516
1118.0901832,-25.5100002288818
1118.1058082,-23.6700000762939
1118.1214332,-21.2299995422363
1118.1370582,-18.7900009155273
1118.1526832,-16.8299999237061
1118.1683082,-15.3800001144409
1118.1839332,-14.0500001907349
1118.1995582,-12.4200000762939
1118.2151832,-10.1199998855591
1118.2308082,-6.3899998664856
1118.2464332,-0.219999998807907
1118.2620582,8.89000034332275
1118.2776832,20.3199996948242
1118.2933082,32.2799987792969
1118.3089332,42.439998626709
1118.3245582,48.6199989318848
1118.3401832,49.5999984741211
1118.3558082,45.6300010681152
1118.3714332,38.3600006103516
1118.3870582,29.9500007629395
1118.4026832,22.2299995422363
1118.4183082,16.0300006866455
1118.4339332,10.9899997711182
1118.4495582,6.11999988555908
1118.4651832,0.839999973773956
1118.4808082,-4.6100001335144
1118.4964332,-9.53999996185303
1118.5120582,-13.3000001907349
1118.5276832,-15.460000038147
1118.5433082,-15.8400001525879
1118.5589332,-14.6499996185303
1118.5745582,-12.5
1118.5901832,-10.1499996185303
1118.6058082,-8.27000045776367
1118.6214332,-7.15999984741211
1118.6370582,-6.90999984741211
1118.6526832,-7.46999979019165
1118.6683082,-8.6899995803833
1118.6839332,-10.5100002288818
1118.6995582,-13.0
1118.7151832,-16.1200008392334
1118.7308082,-19.3199996948242
1118.7464332,-21.8999996185303
1118.7620582,-23.5599994659424
1118.7776832,-24.5599994659424
1118.7933082,-25.3899993896484
1118.8089332,-26.5499992370605
1118.8245582,-28.1499996185303
1118.8401832,-29.7399997711182
1118.8558082,-30.5799999237061
1118.8714332,-30.1100006103516
1118.8870582,-27.75
1118.9026832,-22.6299991607666
1118.9183082,-13.9399995803833
1118.9339332,-1.67999994754791
1118.9495582,12.8999996185303
1118.9651832,27.75
1118.9808082,40.7200012207031
1118.9964332,50.1100006103516
1119.0120582,55.1100006103516
1119.0276832,56.1500015258789
1119.0433082,54.5999984741211
1119.0589332,51.8600006103516
1119.0745582,48.439998626709
1119.0901832,43.9099998474121
1119.1058082,37.8300018310547
1119.1214332,30.4400005340576
1119.1370582,22.3999996185303
1119.1526832,14.4099998474121
1119.1683082,7.09999990463257
1119.1839332,0.779999971389771
1119.1995582,-4.6399998664856
1119.2151832,-9.55000019073486
1119.2308082,-14.1300001144409
1119.2464332,-18.1900005340576
1119.2620582,-21.3899993896484
1119.2776832,-23.6900005340576
1119.2933082,-25.3899993896484
1119.3089332,-26.8199996948242
1119.3245582,-27.9599990844727
1119.3401832,-28.2999992370605
1119.3558082,-27.4200000762939
1119.3714332,-25.4599990844727
1119.3870582,-23.1000003814697
1119.4026832,-21.1000003814697
1119.4183082,-20.0400009155273
1119.4339332,-20.1800003051758
1119.4495582,-21.4699993133545
1119.4651832,-23.4500007629395
1119.4808082,-25.4899997711182
1119.4964332,-27.1100006103516
1119.5120582,-28.1800003051758
1119.5276832,-28.7299995422363
1119.5433082,-28.5799999237061
1119.5589332,-27.2900009155273
1119.5745582,-24.4699993133545
1119.5901832,-20.0499992370605
1119.6058082,-14.1000003814697
1119.6214332,-6.51999998092651
1119.6370582,2.86999988555908
1119.6526832,13.8800001144409
1119.6683082,25.7000007629395
1119.6839332,37.2200012207031
1119.6995582,47.3899993896484
1119.7151832,55.25
1119.7308082,59.9700012207031
1119.7464332,60.9900016784668
1119.7620582,58.1699981689453
1119.7776832,51.8899993896484
1119.7933082,43.2299995422363
1119.8089332,33.810001373291
1119.8245582,25.1299991607666
1119.8401832,17.9799995422363
1119.8558082,12.3500003814697
1119.8714332,7.65999984741211
1119.8870582,3.26999998092651
1119.9026832,-1.14999997615814
1119.9183082,-5.48999977111816
1119.9339332,-9.3100004196167
1119.9495582,-12.1199998855591
1119.9651832,-13.75
1119.9808082,-14.6999998092651
1119.9964332,-15.7700004577637
1120.0120582,-17.4099998474121
1120.0276832,-19.3299999237061
1120.0433082,-20.8500003814697
1120.0589332,-21.4099998474121
1120.0745582,-21.0100002288818
1120.0901832,-20.1900005340576
1120.1058082,-19.5300006866455
1120.1214332,-19.2099990844727
1120.1370582,-19.1200008392334
1120.1526832,-19.1499996185303
1120.1683082,-19.2700004577637
1120.1839332,-19.2199993133545
1120.1995582,-18.75
1120.2151832,-18.0100002288818
1120.2308082,-17.4200000762939
1120.2464332,-17.1599998474121
1120.2620582,-16.9699993133545
1120.2776832,-16.4500007629395
1120.2933082,-15.2200002670288
1120.3089332,-12.8900003433228
1120.3245582,-9.36999988555908
1120.3401832,-5.05000019073486
1120.3558082,-0.439999997615814
1120.3714332,4.67999982833862
1120.3870582,11.3800001144409
1120.4026832,20.4799995422363
1120.4183082,31.3299999237061
1120.4339332,41.9599990844727
1120.4495582,50.2400016784668
1120.4651832,54.7400016784668
1120.4808082,55.1199989318848
1120.4964332,52.2099990844727
1120.5120582,47.4700012207031
1120.5276832,42.1599998474121
1120.5433082,36.810001373291
1120.5589332,31.3899993896484
1120.5745582,25.75
1120.5901832,19.7099990844727
1120.6058082,13.0799999237061
1120.6214332,5.84999990463257
1120.6370582,-1.58000004291534
1120.6526832,-8.56999969482422
1120.6683082,-14.3800001144409
1120.6839332,-18.5400009155273
1120.6995582,-21.0799999237061
1120.7151832,-22.4200000762939
1120.7308082,-22.8899993896484
1120.7464332,-22.2900009155273
1120.7620582,-20.4400005340576
1120.7776832,-17.7600002288818
1120.7933082,-15.25
1120.8089332,-13.6400003433228
1120.8245582,-12.9200000762939
1120.8401832,-12.6599998474121
1120.8558082,-12.6400003433228
1120.8714332,-12.8100004196167
1120.8870582,-12.9899997711182
1120.9026832,-12.9799995422363
1120.9183082,-12.9499998092651
1120.9339332,-13.3199996948242
1120.9495582,-14.460000038147
1120.9651832,-16.3899993896484
1120.9808082,-18.8799991607666
1120.9964332,-21.4400005340576
1121.0120582,-23.3600006103516
1121.0276832,-23.8299999237061
1121.0433082,-22.5300006866455
1121.0589332,-19.9500007629395
1121.0745582,-17.0100002288818
1121.0901832,-14.2799997329712
1121.1058082,-11.8699998855591
1121.1214332,-9.53999996185303
1121.1370582,-6.6399998664856
1121.1526832,-1.95000004768372
1121.1683082,5.92000007629395
1121.1839332,17.4699993133545
1121.1995582,31.2700004577637
1121.2151832,44.3600006103516
1121.2308082,53.9300003051758
1121.2464332,58.7200012207031
1121.2620582,59.189998626709
1121.2776832,56.7700004577637
1121.2933082,52.9199981689453
1121.3089332,48.4199981689453
1121.3245582,43.4000015258789
1121.3401832,37.7200012207031
1121.3558082,31.2800006866455
1121.3714332,24.1000003814697
1121.3870582,16.3899993896484
1121.4026832,8.52999973297119
1121.4183082,1.05999994277954
1121.4339332,-5.42999982833862
1121.4495582,-10.4700002670288
1121.4651832,-13.7600002288818
1121.4808082,-15.3800001144409
1121.4964332,-15.8500003814697
1121.5120582,-15.9300003051758
1121.5276832,-16.0499992370605
1121.5433082,-16.1900005340576
1121.5589332,-16.3999996185303
1121.5745582,-17.2099990844727
1121.5901832,-18.8700008392334
1121.6058082,-20.7199993133545
1121.6214332,-21.7700004577637
1121.6370582,-21.6900005340576
1121.6526832,-21.0200004577637
1121.6683082,-20.5300006866455
1121.6839332,-20.6499996185303
1121.6995582,-21.4500007629395
1121.7151832,-22.9799995422363
1121.7308082,-25.3400001525879
1121.7464332,-28.1900005340576
1121.7620582,-30.5599994659424
1121.7776832,-31.2999992370605
1121.7933082,-29.8199996948242
1121.8089332,-26.2900009155273
1121.8245582,-21.5900001525879
1121.8401832,-16.9300003051758
1121.8558082,-13.3400001525879
1121.8714332,-11.2799997329712
1121.8870582,-10.4499998092651
1121.9026832,-10.2700004577637
1121.9183082,-10.3000001907349
1121.9339332,-10.289999961853
1121.9495582,-9.77999973297119
1121.9651832,-7.6100001335144
1121.9808082,-2.23000001907349
1121.9964332,7.21999979019165
1122.0120582,20.1200008392334
1122.0276832,34.5200004577637
1122.0433082,47.8199996948242
1122.0589332,57.6599998474121
1122.0745582,62.6599998474121
1122.0901832,62.9099998474121
1122.1058082,59.6399993896484
1122.1214332,54.2799987792969
1122.1370582,47.9000015258789
1122.1526832,41.0499992370605
1122.1683082,33.9099998474121
1122.1839332,26.5300006866455
1122.1995582,18.9899997711182
1122.2151832,11.3900003433228
1122.2308082,3.84999990463257
1122.2464332,-3.3199999332428
1122.2620582,-9.65999984741211
1122.2776832,-14.8199996948242
1122.2933082,-18.75
1122.3089332,-21.5400009155273
1122.3245582,-23.3700008392334
