Time(s),Value(%)
337.0083798,6.76000022888184
337.0240048,2.32999992370605
337.0396298,-1.16999995708466
337.0552548,-3.53999996185303
337.0708798,-4.71999979019165
337.0865048,-4.88000011444092
337.1021298,-4.42000007629395
337.1177548,-3.82999992370605
337.1333798,-3.52999997138977
337.1490048,-3.80999994277954
337.1646298,-4.94999980926514
337.1802548,-7.19000005722046
337.1958798,-10.3500003814697
337.2115048,-13.6899995803833
337.2271298,-16.3899993896484
337.2427548,-18.0599994659424
337.2583798,-18.7099990844727
337.2740048,-18.4400005340576
337.2896298,-17.4500007629395
337.3052548,-15.9200000762939
337.3208798,-14.0600004196167
337.3365048,-12.1099996566772
337.3521298,-10.4099998474121
337.3677548,-9.23999977111816
337.3833798,-8.63000011444092
337.3990048,-8.3100004196167
337.4146298,-7.88000011444092
337.4302548,-7.09000015258789
337.4458798,-6.03000020980835
337.4615048,-4.90000009536743
337.4771298,-3.54999995231628
337.4927548,-1.30999994277954
337.5083798,2.53999996185303
337.5240048,8.02000045776367
337.5396298,14.0799999237061
337.5552548,19.1399993896484
337.5708798,21.9099998474121
337.5865048,22.0400009155273
337.6021298,19.9699993133545
337.6177548,16.7000007629395
337.6333798,13.4399995803833
337.6490048,11.1599998474121
337.6646298,10.0500001907349
337.6802548,9.60999965667725
337.6958798,9.22999954223633
337.7115048,8.61999988555908
337.7271298,7.63000011444092
337.7427548,6.1100001335144
337.7583798,4.1399998664856
337.7740048,2.11999988555908
337.7896298,0.490000009536743
337.8052548,-0.75
337.8208798,-1.98000001907349
337.8365048,-3.36999988555908
337.8521298,-4.71999979019165
337.8677548,-5.67999982833862
337.8833798,-6.05000019073486
337.8990048,-5.96000003814697
337.9146298,-5.84000015258789
337.9302548,-6.21999979019165
337.9458798,-7.42000007629395
337.9615048,-9.35999965667725
337.9771298,-11.6499996185303
337.9927548,-13.8400001525879
338.0083798,-15.7200002670288
338.0240048,-17.1200008392334
338.0396298,-17.6200008392334
338.0552548,-16.75
338.0708798,-14.5699996948242
338.0865048,-11.8800001144409
338.1021298,-9.60000038146973
338.1177548,-8.02000045776367
338.1333798,-6.51000022888184
338.1490048,-3.99000000953674
338.1646298,0.409999996423721
338.1802548,6.75
338.1958798,14.0299997329712
338.2115048,20.6100006103516
338.2271298,25.0599994659424
338.2427548,26.8600006103516
338.2583798,26.5200004577637
338.2740048,25.0699996948242
338.2896298,23.4400005340576
338.3052548,22.2099990844727
338.3208798,21.4099998474121
338.3365048,20.5599994659424
338.3521298,18.8999996185303
338.3677548,15.9899997711182
338.3833798,12.1300001144409
338.3990048,8.14000034332275
338.4146298,4.8600001335144
338.4302548,2.6800000667572
338.4458798,1.30999994277954
338.4615048,0.170000001788139
338.4771298,-0.959999978542328
338.4927548,-1.96000003814697
338.5083798,-2.82999992370605
338.5240048,-3.8199999332428
338.5396298,-5.15999984741211
338.5552548,-6.69999980926514
338.5708798,-7.90000009536743
338.5865048,-8.15999984741211
338.6021298,-7.1399998664856
338.6177548,-5.07999992370605
338.6333798,-2.94000005722046
338.6490048,-2.01999998092651
338.6646298,-3.07999992370605
338.6802548,-5.75
338.6958798,-8.81999969482422
338.7115048,-11.2600002288818
338.7271298,-12.9399995803833
338.7427548,-14.2200002670288
338.7583798,-15.2200002670288
338.7740048,-15.3900003433228
338.7896298,-13.9899997711182
338.8052548,-10.8299999237061
338.8208798,-6.44000005722046
338.8365048,-1.44000005722046
338.8521298,4.0
338.8677548,9.96000003814697
338.8833798,16.0900001525879
338.8990048,21.5100002288818
338.9146298,25.2000007629395
338.9302548,26.6900005340576
338.9458798,26.3199996948242
338.9615048,24.8999996185303
338.9771298,23.1599998474121
338.9927548,21.4300003051758
339.0083798,19.6399993896484
339.0240048,17.3500003814697
339.0396298,14.1000003814697
339.0552548,9.82999992370605
339.0708798,4.82000017166138
339.0865048,-0.519999980926514
339.1021298,-5.61999988555908
339.1177548,-9.64000034332275
339.1333798,-11.8500003814697
339.1490048,-12.1099996566772
339.1646298,-11.0600004196167
339.1802548,-9.77999973297119
339.1958798,-9.15999984741211
339.2115048,-9.52000045776367
339.2271298,-10.5699996948242
339.2427548,-11.8599996566772
339.2583798,-13.0600004196167
339.2740048,-13.9099998474121
339.2896298,-14.2700004577637
339.3052548,-14.3000001907349
339.3208798,-14.2399997711182
339.3365048,-14.1000003814697
339.3521298,-13.8400001525879
339.3677548,-13.6000003814697
339.3833798,-13.460000038147
339.3990048,-13.2700004577637
339.4146298,-12.8999996185303
339.4302548,-12.3900003433228
339.4458798,-11.7799997329712
339.4615048,-10.8299999237061
339.4771298,-9.09000015258789
339.4927548,-6.17999982833862
339.5083798,-2.07999992370605
339.5240048,2.94000005722046
339.5396298,8.43000030517578
339.5552548,13.6800003051758
339.5708798,17.7900009155273
339.5865048,19.9899997711182
339.6021298,20.1599998474121
339.6177548,18.7900009155273
339.6333798,16.6900005340576
339.6490048,14.7399997711182
339.6646298,13.6000003814697
339.6802548,13.3199996948242
339.6958798,13.3100004196167
339.7115048,12.7299995422363
339.7271298,11.1599998474121
339.7427548,8.77000045776367
339.7583798,6.1399998664856
339.7740048,3.58999991416931
339.7896298,0.930000007152557
339.8052548,-2.25999999046326
339.8208798,-5.84000015258789
339.8365048,-8.82999992370605
339.8521298,-10.2299995422363
339.8677548,-9.82999992370605
339.8833798,-8.39999961853027
339.8990048,-7.01999998092651
339.9146298,-6.55999994277954
339.9302548,-7.30000019073486
339.9458798,-9.0600004196167
339.9615048,-11.2700004577637
339.9771298,-13.3299999237061
339.9927548,-14.960000038147
340.0083798,-16.2199993133545
340.0240048,-17.1599998474121
340.0396298,-17.6900005340576
340.0552548,-17.7999992370605
340.0708798,-17.8299999237061
340.0865048,-18.1399993896484
340.1021298,-18.6499996185303
340.1177548,-18.8299999237061
340.1333798,-18.2199993133545
340.1490048,-16.7000007629395
340.1646298,-14.3699998855591
340.1802548,-11.0600004196167
340.1958798,-6.26999998092651
340.2115048,0.270000010728836
340.2271298,8.14999961853027
340.2427548,16.2600002288818
340.2583798,23.1900005340576
340.2740048,27.7099990844727
340.2896298,29.3099994659424
340.3052548,28.3400001525879
340.3208798,25.6599998474121
340.3365048,22.0799999237061
340.3521298,18.0699996948242
340.3677548,13.8500003814697
340.3833798,9.5
340.3990048,5.36999988555908
340.4146298,2.09999990463257
340.4302548,0.219999998807907
340.4458798,-0.259999990463257
340.4615048,0.150000005960464
340.4771298,0.949999988079071
340.4927548,1.67999994754791
340.5083798,2.0
340.5240048,1.54999995231628
340.5396298,0.200000002980232
340.5552548,-1.61000001430511
340.5708798,-3.15000009536743
340.5865048,-4.13000011444092
340.6021298,-4.96999979019165
340.6177548,-6.15999984741211
340.6333798,-7.76000022888184
340.6490048,-9.51000022888184
340.6646298,-11.0500001907349
340.6802548,-11.9799995422363
340.6958798,-11.960000038147
340.7115048,-11.0
340.7271298,-9.51000022888184
340.7427548,-8.17000007629395
340.7583798,-7.63000011444092
340.7740048,-8.27000045776367
340.7896298,-10.1400003433228
340.8052548,-12.8400001525879
340.8208798,-15.4499998092651
340.8365048,-16.7000007629395
340.8521298,-15.5200004577637
340.8677548,-11.6400003433228
340.8833798,-5.80000019073486
340.8990048,0.769999980926514
340.9146298,7.09000015258789
340.9302548,12.5
340.9458798,16.3899993896484
340.9615048,18.1599998474121
340.9771298,17.7199993133545
340.9927548,15.789999961853
341.0083798,13.6499996185303
341.0240048,12.3500003814697
341.0396298,12.1899995803833
341.0552548,12.5900001525879
341.0708798,12.4499998092651
341.0865048,10.8299999237061
341.1021298,7.55999994277954
341.1177548,3.21000003814697
341.1333798,-1.29999995231628
341.1490048,-5.26000022888184
341.1646298,-8.17000007629395
341.1802548,-9.64000034332275
341.1958798,-9.52000045776367
341.2115048,-8.26000022888184
341.2271298,-6.90000009536743
341.2427548,-6.48999977111816
341.2583798,-7.44000005722046
341.2740048,-9.34000015258789
341.2896298,-11.4399995803833
341.3052548,-13.1999998092651
341.3208798,-14.4899997711182
341.3365048,-15.3699998855591
341.3521298,-15.7799997329712
341.3677548,-15.6400003433228
341.3833798,-15.0200004577637
341.3990048,-13.9899997711182
341.4146298,-12.3400001525879
341.4302548,-9.77999973297119
341.4458798,-6.46999979019165
341.4615048,-3.21000003814697
341.4771298,-0.879999995231628
341.4927548,0.46000000834465
341.5083798,1.80999994277954
341.5240048,4.44999980926514
341.5396298,9.09000015258789
341.5552548,15.4799995422363
341.5708798,22.5
341.5865048,28.7700004577637
341.6021298,33.2599983215332
341.6177548,35.5900001525879
341.6333798,35.9000015258789
341.6490048,34.5400009155273
341.6646298,31.7900009155273
341.6802548,27.9599990844727
341.6958798,23.7000007629395
341.7115048,19.8199996948242
341.7271298,16.6200008392334
341.7427548,13.6300001144409
341.7583798,10.1499996185303
341.7740048,6.03000020980835
341.7896298,1.96000003814697
341.8052548,-1.17999994754791
341.8208798,-3.11999988555908
341.8365048,-4.28999996185303
341.8521298,-5.36999988555908
341.8677548,-6.92000007629395
341.8833798,-9.11999988555908
341.8990048,-11.6400003433228
341.9146298,-13.7399997711182
341.9302548,-14.7200002670288
341.9458798,-14.4300003051758
341.9615048,-13.539999961853
341.9771298,-12.9099998474121
341.9927548,-12.8299999237061
342.0083798,-12.9300003051758
342.0240048,-12.6899995803833
342.0396298,-11.960000038147
342.0552548,-10.8900003433228
342.0708798,-9.77000045776367
342.0865048,-8.92000007629395
342.1021298,-8.72000026702881
342.1177548,-9.3100004196167
342.1333798,-10.3500003814697
342.1490048,-11.0900001525879
342.1646298,-10.7700004577637
342.1802548,-8.8100004196167
342.1958798,-4.84999990463257
342.2115048,0.920000016689301
342.2271298,7.57999992370605
342.2427548,13.7299995422363
342.2583798,18.2299995422363
342.2740048,20.8299999237061
342.2896298,22.2600002288818
342.3052548,23.5100002288818
342.3208798,25.0699996948242
342.3365048,26.6299991607666
342.3521298,27.3700008392334
342.3677548,26.4799995422363
342.3833798,23.5699996948242
342.3990048,19.0
342.4146298,13.5799999237061
342.4302548,8.13000011444092
342.4458798,3.0699999332428
342.4615048,-1.35000002384186
342.4771298,-4.8600001335144
342.4927548,-7.17999982833862
342.5083798,-8.23999977111816
342.5240048,-8.13000011444092
342.5396298,-7.17999982833862
342.5552548,-6.01999998092651
342.5708798,-5.48999977111816
342.5865048,-6.19999980926514
342.6021298,-8.19999980926514
342.6177548,-10.9399995803833
342.6333798,-13.539999961853
342.6490048,-15.3999996185303
342.6646298,-16.3400001525879
342.6802548,-16.4799995422363
342.6958798,-16.0200004577637
342.7115048,-15.210000038147
342.7271298,-14.5699996948242
342.7427548,-14.6300001144409
342.7583798,-15.4300003051758
342.7740048,-16.4500007629395
342.7896298,-17.0499992370605
342.8052548,-16.8999996185303
342.8208798,-15.9099998474121
342.8365048,-14.1499996185303
342.8521298,-11.6599998474121
342.8677548,-8.27999973297119
342.8833798,-3.69000005722046
342.8990048,2.30999994277954
342.9146298,9.39999961853027
342.9302548,16.5
342.9458798,22.3899993896484
342.9615048,26.4300003051758
342.9771298,28.5900001525879
342.9927548,29.2000007629395
343.0083798,28.7000007629395
343.0240048,27.5400009155273
343.0396298,25.9200000762939
343.0552548,23.7299995422363
343.0708798,20.7199993133545
343.0865048,16.8299999237061
343.1021298,12.3800001144409
343.1177548,8.03999996185303
343.1333798,4.44999980926514
343.1490048,1.80999994277954
343.1646298,-0.119999997317791
343.1802548,-1.8400000333786
343.1958798,-3.70000004768372
343.2115048,-5.76999998092651
343.2271298,-7.84999990463257
343.2427548,-9.76000022888184
343.2583798,-11.5
343.2740048,-13.0500001907349
343.2896298,-14.4499998092651
343.3052548,-15.8500003814697
343.3208798,-17.4400005340576
343.3365048,-19.0900001525879
343.3521298,-20.3299999237061
343.3677548,-20.7299995422363
343.3833798,-20.3099994659424
343.3990048,-19.4200000762939
343.4146298,-18.4200000762939
343.4302548,-17.5900001525879
343.4458798,-17.1499996185303
343.4615048,-17.1299991607666
343.4771298,-17.1800003051758
343.4927548,-16.7199993133545
343.5083798,-15.4099998474121
343.5240048,-13.4300003051758
343.5396298,-11.0
343.5552548,-7.8899998664856
343.5708798,-3.51999998092651
343.5865048,2.3199999332428
343.6021298,9.14999961853027
343.6177548,15.8400001525879
343.6333798,21.2999992370605
343.6490048,24.9400005340576
343.6646298,26.8400001525879
343.6802548,27.3099994659424
343.6958798,26.5300006866455
343.7115048,24.6499996185303
343.7271298,21.8299999237061
343.7427548,18.2399997711182
343.7583798,14.0
343.7740048,9.38000011444092
343.7896298,4.84999990463257
343.8052548,0.949999988079071
343.8208798,-1.9099999666214
343.8365048,-3.63000011444092
343.8521298,-4.42999982833862
343.8677548,-4.82999992370605
343.8833798,-5.42999982833862
343.8990048,-6.65000009536743
343.9146298,-8.55000019073486
343.9302548,-10.6499996185303
343.9458798,-12.1899995803833
343.9615048,-12.6400003433228
343.9771298,-12.0200004577637
343.9927548,-10.7299995422363
344.0083798,-9.5
344.0240048,-9.18000030517578
344.0396298,-10.3199996948242
344.0552548,-12.5500001907349
344.0708798,-14.7700004577637
344.0865048,-15.9300003051758
344.1021298,-15.6499996185303
344.1177548,-14.2200002670288
344.1333798,-12.289999961853
344.1490048,-10.4799995422363
344.1646298,-9.14999961853027
344.1802548,-8.27000045776367
344.1958798,-7.5
344.2115048,-6.40000009536743
344.2271298,-4.59999990463257
344.2427548,-1.87000000476837
344.2583798,1.89999997615814
344.2740048,6.78000020980835
344.2896298,12.4200000762939
344.3052548,18.0900001525879
344.3208798,23.1000003814697
344.3365048,27.25
344.3521298,30.6100006103516
344.3677548,33.0099983215332
344.3833798,33.7299995422363
344.3990048,32.0499992370605
344.4146298,27.9500007629395
344.4302548,22.2600002288818
344.4458798,16.2199993133545
344.4615048,10.8699998855591
344.4771298,6.80000019073486
344.4927548,4.13000011444092
344.5083798,2.60999989509583
344.5240048,1.66999995708466
344.5396298,0.730000019073486
344.5552548,-0.379999995231628
344.5708798,-1.26999998092651
344.5865048,-1.46000003814697
344.6021298,-1.12000000476837
344.6177548,-1.00999999046326
344.6333798,-1.73000001907349
344.6490048,-3.34999990463257
344.6646298,-5.6100001335144
344.6802548,-8.35999965667725
344.6958798,-11.5600004196167
344.7115048,-15.0100002288818
344.7271298,-18.3199996948242
344.7427548,-21.0900001525879
344.7583798,-23.0100002288818
344.7740048,-23.8600006103516
344.7896298,-23.7299995422363
344.8052548,-23.0499992370605
344.8208798,-22.2299995422363
344.8365048,-21.4699993133545
344.8521298,-20.6299991607666
344.8677548,-19.3199996948242
344.8833798,-16.8799991607666
344.8990048,-12.5600004196167
344.9146298,-5.8899998664856
344.9302548,2.84999990463257
344.9458798,12.539999961853
344.9615048,21.4300003051758
344.9771298,27.9799995422363
344.9927548,31.6200008392334
345.0083798,32.7900009155273
345.0240048,32.4500007629395
345.0396298,31.3999996185303
345.0552548,30.0599994659424
345.0708798,28.4099998474121
345.0865048,26.2000007629395
345.1021298,23.2900009155273
345.1177548,19.9200000762939
345.1333798,16.5
345.1490048,13.2200002670288
345.1646298,9.96000003814697
345.1802548,6.46000003814697
345.1958798,2.73000001907349
345.2115048,-0.879999995231628
345.2271298,-3.97000002861023
345.2427548,-6.34999990463257
345.2583798,-8.06999969482422
345.2740048,-9.14999961853027
345.2896298,-9.60999965667725
345.3052548,-9.65999984741211
345.3208798,-9.90999984741211
345.3365048,-10.9200000762939
345.3521298,-12.6199998855591
345.3677548,-14.3500003814697
345.3833798,-15.5299997329712
345.3990048,-15.9700002670288
345.4146298,-15.8100004196167
345.4302548,-15.2600002288818
345.4458798,-14.6099996566772
345.4615048,-14.0699996948242
345.4771298,-13.6999998092651
345.4927548,-13.4200000762939
345.5083798,-13.1800003051758
345.5240048,-13.039999961853
345.5396298,-13.1499996185303
345.5552548,-13.539999961853
345.5708798,-13.7399997711182
345.5865048,-12.710000038147
345.6021298,-9.35999965667725
345.6177548,-3.32999992370605
345.6333798,4.71999979019165
345.6490048,13.4700002670288
345.6646298,21.2199993133545
345.6802548,26.5300006866455
345.6958798,28.8299999237061
345.7115048,28.7399997711182
345.7271298,27.4300003051758
345.7427548,25.9799995422363
345.7583798,24.8999996185303
345.7740048,24.0300006866455
345.7896298,22.7399997711182
345.8052548,20.2900009155273
345.8208798,16.3199996948242
345.8365048,11.3000001907349
345.8521298,6.34999990463257
345.8677548,2.50999999046326
345.8833798,-0.0099999997764825
345.8990048,-1.82000005245209
345.9146298,-3.6800000667572
345.9302548,-6.07000017166138
345.9458798,-8.98999977111816
345.9615048,-12.1000003814697
345.9771298,-14.8500003814697
345.9927548,-16.6200008392334
346.0083798,-17.1700000762939
346.0240048,-16.8299999237061
346.0396298,-16.3600006103516
346.0552548,-16.4699993133545
346.0708798,-17.4200000762939
346.0865048,-19.0200004577637
346.1021298,-20.8600006103516
346.1177548,-22.4500007629395
346.1333798,-23.4899997711182
346.1490048,-24.0799999237061
346.1646298,-24.4899997711182
346.1802548,-24.7299995422363
346.1958798,-24.3600006103516
346.2115048,-22.7800006866455
346.2271298,-19.8400001525879
346.2427548,-16.0200004577637
346.2583798,-12.0500001907349
346.2740048,-8.06999969482422
346.2896298,-3.49000000953674
346.3052548,2.26999998092651
346.3208798,9.10999965667725
346.3365048,16.1399993896484
346.3521298,22.25
346.3677548,26.6800003051758
346.3833798,29.3299999237061
346.3990048,30.5799999237061
346.4146298,30.8199996948242
346.4302548,30.2900009155273
346.4458798,29.0200004577637
346.4615048,27.0
346.4771298,24.2099990844727
346.4927548,20.6200008392334
346.5083798,16.0599994659424
346.5240048,10.4499998092651
346.5396298,4.21000003814697
346.5552548,-1.57000005245209
346.5708798,-5.80999994277954
346.5865048,-8.14000034332275
346.6021298,-9.07999992370605
346.6177548,-9.35999965667725
346.6333798,-9.36999988555908
346.6490048,-9.34000015258789
346.6646298,-9.68000030517578
346.6802548,-10.8599996566772
346.6958798,-12.9700002670288
346.7115048,-15.460000038147
346.7271298,-17.5799999237061
346.7427548,-18.8199996948242
346.7583798,-19.1499996185303
346.7740048,-18.7800006866455
346.7896298,-17.9699993133545
346.8052548,-17.0699996948242
346.8208798,-16.4300003051758
346.8365048,-16.2000007629395
346.8521298,-16.1599998474121
346.8677548,-16.0
346.8833798,-15.5600004196167
346.8990048,-14.75
346.9146298,-13.3900003433228
346.9302548,-11.1899995803833
346.9458798,-7.8600001335144
346.9615048,-3.22000002861023
346.9771298,2.72000002861023
346.9927548,9.56999969482422
347.0083798,16.5200004577637
347.0240048,22.6100006103516
347.0396298,27.1800003051758
347.0552548,30.0400009155273
347.0708798,31.2600002288818
347.0865048,30.8799991607666
347.1021298,28.9899997711182
347.1177548,25.8899993896484
347.1333798,22.1499996185303
347.1490048,18.2600002288818
347.1646298,14.5500001907349
347.1802548,11.2399997711182
347.1958798,8.5
347.2115048,6.46000003814697
347.2271298,5.07000017166138
347.2427548,3.98000001907349
347.2583798,2.65000009536743
347.2740048,0.699999988079071
347.2896298,-1.8400000333786
347.3052548,-4.69999980926514
347.3208798,-7.55999994277954
347.3365048,-10.0900001525879
347.3521298,-12.0799999237061
347.3677548,-13.4899997711182
347.3833798,-14.539999961853
347.3990048,-15.3699998855591
347.4146298,-15.8299999237061
347.4302548,-15.6700000762939
347.4458798,-14.8900003433228
347.4615048,-13.8599996566772
347.4771298,-12.9499998092651
347.4927548,-12.3299999237061
347.5083798,-11.8900003433228
347.5240048,-11.3500003814697
347.5396298,-10.4099998474121
347.5552548,-9.14999961853027
347.5708798,-7.88000011444092
347.5865048,-6.90000009536743
347.6021298,-6.19999980926514
347.6177548,-5.30999994277954
347.6333798,-3.39000010490417
347.6490048,0.219999998807907
347.6646298,5.67000007629395
347.6802548,12.539999961853
347.6958798,20.1000003814697
