Time(s),Value(%)
337.0083798,-58.2299995422363
337.0240048,-58.9199981689453
337.0396298,-59.7900009155273
337.0552548,-60.75
337.0708798,-61.5099983215332
337.0865048,-61.7900009155273
337.1021298,-61.4799995422363
337.1177548,-60.5800018310547
337.1333798,-59.1399993896484
337.1490048,-56.9799995422363
337.1646298,-53.6100006103516
337.1802548,-48.0499992370605
337.1958798,-38.9900016784668
337.2115048,-25.2600002288818
337.2271298,-6.5
337.2427548,16.4799995422363
337.2583798,41.810001373291
337.2740048,66.5299987792969
337.2896298,86.9100036621094
337.3052548,99.8000030517578
337.3208798,103.959999084473
337.3365048,100.339996337891
337.3521298,91.2200012207031
337.3677548,78.9800033569336
337.3833798,65.25
337.3990048,50.75
337.4146298,35.7900009155273
337.4302548,20.7299995422363
337.4458798,6.23000001907349
337.4615048,-6.92000007629395
337.4771298,-17.9799995422363
337.4927548,-26.4500007629395
337.5083798,-32.2999992370605
337.5240048,-35.9700012207031
337.5396298,-38.1300010681152
337.5552548,-39.560001373291
337.5708798,-40.8699989318848
337.5865048,-42.3800010681152
337.6021298,-44.2200012207031
337.6177548,-46.439998626709
337.6333798,-48.8800010681152
337.6490048,-51.1199989318848
337.6646298,-52.6699981689453
337.6802548,-53.3699989318848
337.6958798,-53.3199996948242
337.7115048,-52.6500015258789
337.7271298,-51.4700012207031
337.7427548,-49.8800010681152
337.7583798,-48.0299987792969
337.7740048,-45.9199981689453
337.7896298,-43.4300003051758
337.8052548,-40.439998626709
337.8208798,-36.9000015258789
337.8365048,-32.6699981689453
337.8521298,-27.1599998474121
337.8677548,-19.2000007629395
337.8833798,-7.3600001335144
337.8990048,9.43000030517578
337.9146298,31.1299991607666
337.9302548,56.0
337.9458798,80.9000015258789
337.9615048,102.379997253418
337.9771298,117.769996643066
337.9927548,125.809997558594
338.0083798,126.620002746582
338.0240048,121.319999694824
338.0396298,111.470001220703
338.0552548,98.5
338.0708798,83.5400009155273
338.0865048,67.379997253418
338.1021298,50.6300010681152
338.1177548,33.8899993896484
338.1333798,17.9599990844727
338.1490048,3.95000004768372
338.1646298,-7.15999984741211
338.1802548,-15.0600004196167
338.1958798,-20.1399993896484
338.2115048,-23.2000007629395
338.2271298,-25.1000003814697
338.2427548,-26.5799999237061
338.2583798,-28.1700000762939
338.2740048,-30.1800003051758
338.2896298,-32.6100006103516
338.3052548,-35.2999992370605
338.3208798,-38.0200004577637
338.3365048,-40.6199989318848
338.3521298,-42.9799995422363
338.3677548,-45.0999984741211
338.3833798,-47.0
338.3990048,-48.6699981689453
338.4146298,-50.0400009155273
338.4302548,-51.0900001525879
338.4458798,-51.6599998474121
338.4615048,-51.5099983215332
338.4771298,-50.4500007629395
338.4927548,-48.4199981689453
338.5083798,-45.4099998474121
338.5240048,-41.2799987792969
338.5396298,-35.5699996948242
338.5552548,-27.4400005340576
338.5708798,-15.9099998474121
338.5865048,-0.430000007152557
338.6021298,18.6100006103516
338.6177548,39.7200012207031
338.6333798,60.3400001525879
338.6490048,77.3000030517578
338.6646298,87.9499969482422
338.6802548,91.2699966430664
338.6958798,87.9599990844727
338.7115048,79.870002746582
338.7271298,69.0500030517578
338.7427548,57.0
338.7583798,44.3600006103516
338.7740048,31.4799995422363
338.7896298,18.9200000762939
338.8052548,7.5
338.8208798,-2.10999989509583
338.8365048,-9.63000011444092
338.8521298,-15.0799999237061
338.8677548,-18.7199993133545
338.8833798,-21.0
338.8990048,-22.4500007629395
338.9146298,-23.5100002288818
338.9302548,-24.5400009155273
338.9458798,-25.7099990844727
338.9615048,-27.0
338.9771298,-28.3099994659424
338.9927548,-29.6299991607666
339.0083798,-31.1100006103516
339.0240048,-32.8499984741211
339.0396298,-34.6300010681152
339.0552548,-36.0
339.0708798,-36.5999984741211
339.0865048,-36.2599983215332
339.1021298,-35.0200004577637
339.1177548,-33.1800003051758
339.1333798,-31.0300006866455
339.1490048,-28.6499996185303
339.1646298,-25.7999992370605
339.1802548,-22.0499992370605
339.1958798,-16.7299995422363
339.2115048,-8.85999965667725
339.2271298,2.63000011444092
339.2427548,18.6200008392334
339.2583798,39.2099990844727
339.2740048,62.9500007629395
339.2896298,86.5
339.3052548,105.800003051758
339.3208798,117.819999694824
339.3365048,121.519996643066
339.3521298,117.709999084473
339.3677548,108.23999786377
339.3833798,95.1399993896484
339.3990048,79.9599990844727
339.4146298,63.5299987792969
339.4302548,46.3600006103516
339.4458798,29.1100006103516
339.4615048,12.6700000762939
339.4771298,-2.04999995231628
339.4927548,-14.4099998474121
339.5083798,-24.1200008392334
339.5240048,-31.1700000762939
339.5396298,-35.7900009155273
339.5552548,-38.4199981689453
339.5708798,-39.689998626709
339.5865048,-40.3800010681152
339.6021298,-41.2700004577637
339.6177548,-42.9300003051758
339.6333798,-45.5299987792969
339.6490048,-48.75
339.6646298,-51.9099998474121
339.6802548,-54.3300018310547
339.6958798,-55.5800018310547
339.7115048,-55.7099990844727
339.7271298,-55.1399993896484
339.7427548,-54.25
339.7583798,-53.1199989318848
339.7740048,-51.6699981689453
339.7896298,-49.9099998474121
339.8052548,-48.0299987792969
339.8208798,-46.1500015258789
339.8365048,-44.25
339.8521298,-42.1199989318848
339.8677548,-38.9799995422363
339.8833798,-33.2799987792969
339.8990048,-23.1599998474121
339.9146298,-7.48999977111816
339.9302548,13.460000038147
339.9458798,38.0
339.9615048,63.4300003051758
339.9771298,86.6699981689453
339.9927548,104.870002746582
340.0083798,116.199996948242
340.0240048,120.23999786377
340.0396298,117.639999389648
340.0552548,109.529998779297
340.0708798,97.3099975585938
340.0865048,82.4800033569336
340.1021298,66.5
340.1177548,50.3300018310547
340.1333798,34.3899993896484
340.1490048,18.9599990844727
340.1646298,4.55999994277954
340.1802548,-8.10000038146973
340.1958798,-18.5200004577637
340.2115048,-26.5
340.2271298,-32.2900009155273
340.2427548,-36.4500007629395
340.2583798,-39.6100006103516
340.2740048,-42.2299995422363
340.2896298,-44.75
340.3052548,-47.5699996948242
340.3208798,-50.8400001525879
340.3365048,-54.3800010681152
340.3521298,-57.810001373291
340.3677548,-60.7200012207031
340.3833798,-62.8699989318848
340.3990048,-64.2399978637695
340.4146298,-64.9400024414063
340.4302548,-65.0100021362305
340.4458798,-64.5400009155273
340.4615048,-63.7400016784668
340.4771298,-62.8199996948242
340.4927548,-61.7599983215332
340.5083798,-60.4300003051758
340.5240048,-58.6599998474121
340.5396298,-56.1599998474121
340.5552548,-52.2900009155273
340.5708798,-46.0099983215332
340.5865048,-36.0900001525879
340.6021298,-21.6200008392334
340.6177548,-2.50999999046326
340.6333798,20.1299991607666
340.6490048,44.25
340.6646298,67.0599975585938
340.6802548,85.5
340.6958798,97.25
340.7115048,101.559997558594
340.7271298,99.2200012207031
340.7427548,92.0
340.7583798,81.8199996948242
340.7740048,70.129997253418
340.7896298,57.6199989318848
340.8052548,44.5900001525879
340.8208798,31.4599990844727
340.8365048,18.9899997711182
340.8521298,8.06999969482422
340.8677548,-0.589999973773956
340.8833798,-6.8600001335144
340.8990048,-11.2200002670288
340.9146298,-14.4899997711182
340.9302548,-17.3500003814697
340.9458798,-20.0499992370605
340.9615048,-22.6399993896484
340.9771298,-25.1499996185303
340.9927548,-27.6499996185303
341.0083798,-30.2099990844727
341.0240048,-32.7999992370605
341.0396298,-35.4099998474121
341.0552548,-37.9500007629395
341.0708798,-40.3300018310547
341.0865048,-42.4000015258789
341.1021298,-43.9599990844727
341.1177548,-44.8899993896484
341.1333798,-45.2299995422363
341.1490048,-45.1399993896484
341.1646298,-44.7200012207031
341.1802548,-43.8899993896484
341.1958798,-42.439998626709
341.2115048,-40.2200012207031
341.2271298,-37.0200004577637
341.2427548,-32.3199996948242
341.2583798,-25.2999992370605
341.2740048,-14.9499998092651
341.2896298,-0.469999998807907
341.3052548,17.8400001525879
341.3208798,38.0099983215332
341.3365048,56.8800010681152
341.3521298,71.4599990844727
341.3677548,79.879997253418
341.3833798,81.8899993896484
341.3990048,78.5699996948242
341.4146298,71.5100021362305
341.4302548,62.0
341.4458798,50.8800010681152
341.4615048,38.7799987792969
341.4771298,26.3199996948242
341.4927548,14.1700000762939
341.5083798,3.04999995231628
341.5240048,-6.48000001907349
341.5396298,-14.3800001144409
341.5552548,-20.8999996185303
341.5708798,-26.2800006866455
341.5865048,-30.6399993896484
341.6021298,-34.0299987792969
341.6177548,-36.5
341.6333798,-38.2299995422363
341.6490048,-39.5
341.6646298,-40.4099998474121
341.6802548,-40.6300010681152
341.6958798,-39.5800018310547
341.7115048,-36.8499984741211
341.7271298,-32.3499984741211
341.7427548,-26.1700000762939
341.7583798,-18.5400009155273
341.7740048,-9.8100004196167
341.7896298,-0.490000009536743
341.8052548,8.76000022888184
341.8208798,17.3199996948242
341.8365048,24.7299995422363
341.8521298,30.7600002288818
341.8677548,35.3199996948242
341.8833798,38.6399993896484
341.8990048,41.4799995422363
341.9146298,45.1300010681152
341.9302548,51.1199989318848
341.9458798,60.4700012207031
341.9615048,73.1100006103516
341.9771298,87.7300033569336
341.9927548,102.269996643066
342.0083798,114.620002746582
342.0240048,123.26000213623
342.0396298,127.529998779297
342.0552548,127.430000305176
342.0708798,123.180000305176
342.0865048,115.180000305176
342.1021298,104.050003051758
342.1177548,90.5100021362305
342.1333798,75.4000015258789
342.1490048,59.5200004577637
342.1646298,43.6599998474121
342.1802548,28.5
342.1958798,14.5900001525879
342.2115048,2.21000003814697
342.2271298,-8.80000019073486
342.2427548,-18.8199996948242
342.2583798,-28.2000007629395
342.2740048,-37.0800018310547
342.2896298,-45.5
342.3052548,-53.4799995422363
342.3208798,-61.0099983215332
342.3365048,-68.1699981689453
342.3521298,-75.0500030517578
342.3677548,-81.6600036621094
342.3833798,-87.8399963378906
342.3990048,-93.4499969482422
342.4146298,-98.3199996948242
342.4302548,-102.139999389648
342.4458798,-104.699996948242
342.4615048,-106.050003051758
342.4771298,-106.610000610352
342.4927548,-106.720001220703
342.5083798,-106.389999389648
342.5240048,-105.419998168945
342.5396298,-103.650001525879
342.5552548,-100.879997253418
342.5708798,-96.5199966430664
342.5865048,-89.5599975585938
342.6021298,-78.9899978637695
342.6177548,-64.3099975585938
342.6333798,-45.9500007629395
342.6490048,-25.1299991607666
342.6646298,-3.79999995231628
342.6802548,15.6599998474121
342.6958798,31.1000003814697
342.7115048,41.2999992370605
342.7271298,46.1300010681152
342.7427548,46.4500007629395
342.7583798,43.5499992370605
342.7740048,38.5999984741211
342.7896298,32.2000007629395
342.8052548,24.6000003814697
342.8208798,16.1800003051758
342.8365048,7.65999984741211
342.8521298,-0.0900000035762787
342.8677548,-6.46000003814697
342.8833798,-11.2700004577637
342.8990048,-14.7799997329712
342.9146298,-17.4099998474121
342.9302548,-19.5699996948242
342.9458798,-21.5
342.9615048,-23.1499996185303
342.9771298,-24.2000007629395
342.9927548,-24.4899997711182
343.0083798,-24.3199996948242
343.0240048,-24.25
343.0396298,-24.4300003051758
343.0552548,-24.4500007629395
343.0708798,-23.8700008392334
343.0865048,-22.8299999237061
343.1021298,-21.8500003814697
343.1177548,-21.4599990844727
343.1333798,-21.7199993133545
343.1490048,-22.2900009155273
343.1646298,-22.6399993896484
343.1802548,-22.3899993896484
343.1958798,-21.3199996948242
343.2115048,-19.3700008392334
343.2271298,-16.6399993896484
343.2427548,-13.1499996185303
343.2583798,-8.53999996185303
343.2740048,-2.01999998092651
343.2896298,7.44000005722046
343.3052548,20.6499996185303
343.3208798,37.5900001525879
343.3365048,56.8899993896484
343.3521298,76.3099975585938
343.3677548,93.5800018310547
343.3833798,106.980003356934
343.3990048,115.580001831055
343.4146298,119.290000915527
343.4302548,118.660003662109
343.4458798,114.540000915527
343.4615048,107.73999786377
343.4771298,98.9300003051758
343.4927548,88.6500015258789
343.5083798,77.4400024414063
343.5240048,66.0400009155273
343.5396298,55.3499984741211
343.5552548,46.0999984741211
343.5708798,38.2700004577637
343.5865048,31.4099998474121
343.6021298,25.3199996948242
343.6177548,20.2099990844727
343.6333798,16.2099990844727
343.6490048,13.1800003051758
343.6646298,10.7299995422363
343.6802548,8.4399995803833
343.6958798,5.96999979019165
343.7115048,3.17000007629395
343.7271298,0.0799999982118607
343.7427548,-3.04999995231628
343.7583798,-6.0
343.7740048,-8.52000045776367
343.7896298,-10.4200000762939
343.8052548,-11.7200002670288
343.8208798,-12.6700000762939
343.8365048,-13.6499996185303
343.8521298,-14.8900003433228
343.8677548,-16.3400001525879
343.8833798,-17.8199996948242
343.8990048,-19.2700004577637
343.9146298,-20.6200008392334
343.9302548,-21.6900005340576
343.9458798,-21.9400005340576
343.9615048,-20.6399993896484
343.9771298,-16.9599990844727
343.9927548,-10.3400001525879
344.0083798,-0.670000016689301
344.0240048,11.4700002670288
344.0396298,24.7999992370605
344.0552548,37.6199989318848
344.0708798,48.2799987792969
344.0865048,55.4900016784668
344.1021298,58.4099998474121
344.1177548,56.8199996948242
344.1333798,51.1100006103516
344.1490048,42.1300010681152
344.1646298,30.8799991607666
344.1802548,18.1599998474121
344.1958798,4.71999979019165
344.2115048,-8.43000030517578
344.2271298,-20.2299995422363
344.2427548,-29.8700008392334
344.2583798,-37.1599998474121
344.2740048,-42.4900016784668
344.2896298,-46.5999984741211
344.3052548,-50.1199989318848
344.3208798,-53.3699989318848
344.3365048,-56.2700004577637
344.3521298,-58.5299987792969
344.3677548,-59.9500007629395
344.3833798,-60.7000007629395
344.3990048,-61.2200012207031
344.4146298,-62.0200004577637
344.4302548,-63.310001373291
344.4458798,-64.8199996948242
344.4615048,-65.9700012207031
344.4771298,-66.3600006103516
344.4927548,-66.0
344.5083798,-65.120002746582
344.5240048,-63.9700012207031
344.5396298,-62.6800003051758
344.5552548,-61.2700004577637
344.5708798,-59.75
344.5865048,-57.9199981689453
344.6021298,-55.2999992370605
344.6177548,-51.1699981689453
344.6333798,-44.75
344.6490048,-35.2900009155273
344.6646298,-22.3299999237061
344.6802548,-5.90000009536743
344.6958798,13.0100002288818
344.7115048,32.3400001525879
344.7271298,49.5800018310547
344.7427548,62.7099990844727
344.7583798,70.7799987792969
344.7740048,73.9100036621094
344.7896298,73.0
344.8052548,69.120002746582
344.8208798,63.060001373291
344.8365048,55.2799987792969
344.8521298,46.25
344.8677548,36.6199989318848
344.8833798,27.25
344.8990048,18.8999996185303
344.9146298,12.0500001907349
344.9302548,6.71999979019165
344.9458798,2.60999989509583
344.9615048,-0.660000026226044
344.9771298,-3.42000007629395
344.9927548,-5.90000009536743
345.0083798,-8.25
345.0240048,-10.6000003814697
345.0396298,-12.9799995422363
345.0552548,-15.3900003433228
345.0708798,-17.7999992370605
345.0865048,-20.1299991607666
345.1021298,-22.1800003051758
345.1177548,-23.8400001525879
345.1333798,-25.1800003051758
345.1490048,-26.3299999237061
345.1646298,-27.4500007629395
345.1802548,-28.6800003051758
345.1958798,-29.9899997711182
345.2115048,-31.0900001525879
345.2271298,-31.5599994659424
345.2427548,-31.0599994659424
345.2583798,-29.3600006103516
345.2740048,-26.2700004577637
345.2896298,-21.4099998474121
345.3052548,-14.0100002288818
345.3208798,-3.14000010490417
345.3365048,11.5
345.3521298,28.9599990844727
345.3677548,47.2200012207031
345.3833798,63.9799995422363
345.3990048,77.3300018310547
345.4146298,86.2399978637695
345.4302548,90.6900024414063
345.4458798,91.25
345.4615048,88.5299987792969
345.4771298,82.9000015258789
345.4927548,74.7200012207031
345.5083798,64.4700012207031
345.5240048,52.75
345.5396298,40.25
345.5552548,27.7299995422363
345.5708798,15.8999996185303
345.5865048,5.26999998092651
345.6021298,-3.75999999046326
345.6177548,-11.0299997329712
345.6333798,-16.5900001525879
345.6490048,-20.75
345.6646298,-23.9500007629395
345.6802548,-26.6800003051758
345.6958798,-29.3199996948242
345.7115048,-32.0400009155273
345.7271298,-34.7400016784668
345.7427548,-37.1800003051758
345.7583798,-39.1699981689453
345.7740048,-40.6599998474121
345.7896298,-41.7200012207031
345.8052548,-42.5800018310547
345.8208798,-43.5
345.8365048,-44.560001373291
345.8521298,-45.5800018310547
345.8677548,-46.2599983215332
345.8833798,-46.3899993896484
345.8990048,-45.939998626709
345.9146298,-44.9500007629395
345.9302548,-43.2900009155273
345.9458798,-40.4900016784668
345.9615048,-35.6599998474121
345.9771298,-27.7199993133545
345.9927548,-15.9200000762939
346.0083798,-0.200000002980232
346.0240048,18.3899993896484
346.0396298,37.939998626709
346.0552548,56.2799987792969
346.0708798,71.9100036621094
346.0865048,84.1399993896484
346.1021298,92.5500030517578
346.1177548,96.8600006103516
346.1333798,97.0199966430664
346.1490048,93.1699981689453
346.1646298,85.4899978637695
346.1802548,74.3199996948242
346.1958798,60.439998626709
346.2115048,45.1399993896484
346.2271298,29.8600006103516
346.2427548,15.7600002288818
346.2583798,3.52999997138977
346.2740048,-6.67000007629395
346.2896298,-15.039999961853
346.3052548,-21.9699993133545
346.3208798,-27.8299999237061
346.3365048,-32.8699989318848
346.3521298,-37.4099998474121
346.3677548,-41.8800010681152
346.3833798,-46.6699981689453
346.3990048,-51.9000015258789
346.4146298,-57.2200012207031
346.4302548,-62.0900001525879
346.4458798,-65.9000015258789
346.4615048,-68.1100006103516
346.4771298,-68.620002746582
346.4927548,-67.9400024414063
346.5083798,-66.879997253418
346.5240048,-66.0199966430664
346.5396298,-65.4400024414063
346.5552548,-64.6999969482422
346.5708798,-63.1199989318848
346.5865048,-60.2900009155273
346.6021298,-56.4099998474121
346.6177548,-52.0099983215332
346.6333798,-47.4300003051758
346.6490048,-42.3199996948242
346.6646298,-35.7200012207031
346.6802548,-26.3500003814697
346.6958798,-13.0799999237061
346.7115048,4.34000015258789
346.7271298,24.5699996948242
346.7427548,45.0
346.7583798,62.7700004577637
346.7740048,75.7600021362305
346.7896298,83.1999969482422
346.8052548,85.5
346.8208798,83.6699981689453
346.8365048,78.8000030517578
346.8521298,71.8000030517578
346.8677548,63.2900009155273
346.8833798,53.810001373291
346.8990048,43.8899993896484
346.9146298,34.0999984741211
346.9302548,24.9899997711182
346.9458798,17.0300006866455
346.9615048,10.460000038147
346.9771298,5.32000017166138
346.9927548,1.48000001907349
347.0083798,-1.27999997138977
347.0240048,-3.33999991416931
347.0396298,-5.09000015258789
347.0552548,-6.84999990463257
347.0708798,-8.69999980926514
347.0865048,-10.5299997329712
347.1021298,-12.3400001525879
347.1177548,-14.3199996948242
347.1333798,-16.6200008392334
347.1490048,-19.1800003051758
347.1646298,-21.6800003051758
347.1802548,-23.8600006103516
347.1958798,-25.5900001525879
347.2115048,-27.0200004577637
347.2271298,-28.3899993896484
347.2427548,-29.7199993133545
347.2583798,-30.75
347.2740048,-31.1700000762939
347.2896298,-30.8500003814697
347.3052548,-29.7600002288818
347.3208798,-27.8899993896484
347.3365048,-24.9899997711182
347.3521298,-20.3899993896484
347.3677548,-13.1400003433228
347.3833798,-2.5
347.3990048,11.5500001907349
347.4146298,28.1100006103516
347.4302548,45.4599990844727
347.4458798,61.6300010681152
347.4615048,74.9199981689453
347.4771298,84.120002746582
347.4927548,88.4700012207031
347.5083798,87.9300003051758
347.5240048,83.1500015258789
347.5396298,75.1399993896484
347.5552548,64.9199981689453
347.5708798,53.310001373291
347.5865048,41.0099983215332
347.6021298,28.6100006103516
347.6177548,16.7000007629395
347.6333798,5.92999982833862
347.6490048,-3.11999988555908
347.6646298,-10.2700004577637
347.6802548,-15.6599998474121
347.6958798,-19.7199993133545
347.7115048,-23.0499992370605
347.7271298,-26.1800003051758
347.7427548,-29.3999996185303
347.7583798,-32.6599998474121
347.7740048,-35.6800003051758
347.7896298,-38.2700004577637
347.8052548,-40.439998626709
347.8208798,-42.310001373291
347.8365048,-43.9799995422363
347.8521298,-45.5
