Time(s),Value(%)
175.0056241,-55.4700012207031
175.0212491,-57.9199981689453
175.0368741,-57.9599990844727
175.0524991,-55.9000015258789
175.0681241,-52.7799987792969
175.0837491,-49.6699981689453
175.0993741,-47.2000007629395
175.1149991,-45.3499984741211
175.1306241,-43.8400001525879
175.1462491,-42.3699989318848
175.1618741,-40.7900009155273
175.1774991,-39.3600006103516
175.1931241,-38.6300010681152
175.2087491,-38.9300003051758
175.2243741,-39.6500015258789
175.2399991,-38.8800010681152
175.2556241,-34.0699996948242
175.2712491,-23.6399993896484
175.2868741,-8.14999961853027
175.3024991,9.8100004196167
175.3181241,26.8500003814697
175.3337491,40.189998626709
175.3493741,48.6399993896484
175.3649991,52.5800018310547
175.3806241,53.2299995422363
175.3962491,51.7299995422363
175.4118741,48.5499992370605
175.4274991,43.6300010681152
175.4431241,36.7599983215332
175.4587491,27.9599990844727
175.4743741,17.6800003051758
175.4899991,6.90000009536743
175.5056241,-3.20000004768372
175.5212491,-11.8699998855591
175.5368741,-19.0100002288818
175.5524991,-25.0200004577637
175.5681241,-30.1700000762939
175.5837491,-34.2700004577637
175.5993741,-36.8199996948242
175.6149991,-37.5999984741211
175.6306241,-36.9199981689453
175.6462491,-35.6399993896484
175.6618741,-34.7900009155273
175.6774991,-35.0099983215332
175.6931241,-35.9700012207031
175.7087491,-36.7900009155273
175.7243741,-36.8899993896484
175.7399991,-36.0999984741211
175.7556241,-34.4300003051758
175.7712491,-32.0200004577637
175.7868741,-29.2299995422363
175.8024991,-26.6599998474121
175.8181241,-24.9599990844727
175.8337491,-24.4400005340576
175.8493741,-24.6399993896484
175.8649991,-24.2000007629395
175.8806241,-21.2299995422363
175.8962491,-14.1199998855591
175.9118741,-2.33999991416931
175.9274991,13.25
175.9431241,30.5599994659424
175.9587491,46.8400001525879
175.9743741,59.6699981689453
175.9899991,67.7399978637695
176.0056241,71.0299987792969
176.0212491,70.5400009155273
176.0368741,67.5999984741211
176.0524991,63.189998626709
176.0681241,57.7299995422363
176.0837491,51.3300018310547
176.0993741,44.0299987792969
176.1149991,35.8800010681152
176.1306241,26.9500007629395
176.1462491,17.6800003051758
176.1618741,8.90999984741211
176.1774991,1.42999994754791
176.1931241,-4.65000009536743
176.2087491,-9.77000045776367
176.2243741,-14.0799999237061
176.2399991,-17.3299999237061
176.2556241,-19.5200004577637
176.2712491,-21.1299991607666
176.2868741,-22.7399997711182
176.3024991,-24.5799999237061
176.3181241,-26.5100002288818
176.3337491,-28.2600002288818
176.3493741,-29.5
176.3649991,-30.0100002288818
176.3806241,-29.6499996185303
176.3962491,-28.5400009155273
176.4118741,-26.9099998474121
176.4274991,-24.9799995422363
176.4431241,-23.0
176.4587491,-21.2700004577637
176.4743741,-20.1499996185303
176.4899991,-19.9899997711182
176.5056241,-20.6299991607666
176.5212491,-21.0200004577637
176.5368741,-19.2000007629395
176.5524991,-12.960000038147
176.5681241,-1.02999997138977
176.5837491,15.7299995422363
176.5993741,34.3699989318848
176.6149991,51.1599998474121
176.6306241,63.4300003051758
176.6462491,70.2799987792969
176.6618741,72.1399993896484
176.6774991,69.9300003051758
176.6931241,64.7699966430664
176.7087491,58.0400009155273
176.7243741,51.0299987792969
176.7399991,44.189998626709
176.7556241,36.5800018310547
176.7712491,27.0300006866455
176.7868741,15.6000003814697
176.8024991,3.8199999332428
176.8181241,-6.21999979019165
176.8337491,-13.1000003814697
176.8493741,-16.5699996948242
176.8649991,-17.4200000762939
176.8806241,-16.9099998474121
176.8962491,-16.3099994659424
176.9118741,-16.3799991607666
176.9274991,-16.9699993133545
176.9431241,-17.2700004577637
176.9587491,-16.6100006103516
176.9743741,-15.25
176.9899991,-14.2200002670288
177.0056241,-14.3699998855591
177.0212491,-15.7700004577637
177.0368741,-17.8899993896484
177.0524991,-20.0
177.0681241,-21.4500007629395
177.0837491,-21.9400005340576
177.0993741,-21.6100006103516
177.1149991,-21.0200004577637
177.1306241,-20.8500003814697
177.1462491,-21.3799991607666
177.1618741,-22.0599994659424
177.1774991,-21.3099994659424
177.1931241,-16.75
177.2087491,-6.44999980926514
177.2243741,9.60999965667725
177.2399991,29.0100002288818
177.2556241,47.7400016784668
177.2712491,61.9799995422363
177.2868741,69.7399978637695
177.3024991,71.4000015258789
177.3181241,68.9800033569336
177.3337491,64.6999969482422
177.3493741,59.810001373291
177.3649991,54.2799987792969
177.3806241,47.4000015258789
177.3962491,38.6399993896484
177.4118741,28.0799999237061
177.4274991,16.2900009155273
177.4431241,4.32999992370605
177.4587491,-6.30999994277954
177.4743741,-14.2700004577637
177.4899991,-18.8199996948242
177.5056241,-20.0699996948242
177.5212491,-18.8500003814697
177.5368741,-16.6200008392334
177.5524991,-15.2600002288818
177.5681241,-16.2600002288818
177.5837491,-19.7399997711182
177.5993741,-24.1599998474121
177.6149991,-27.3199996948242
177.6306241,-28.0100002288818
177.6462491,-26.5400009155273
177.6618741,-24.1399993896484
177.6774991,-21.9599990844727
177.6931241,-20.8700008392334
177.7087491,-21.4500007629395
177.7243741,-23.6700000762939
177.7399991,-26.6499996185303
177.7556241,-28.9300003051758
177.7712491,-29.2900009155273
177.7868741,-27.5
177.8024991,-23.8600006103516
177.8181241,-17.9400005340576
177.8337491,-8.43000030517578
177.8493741,5.34999990463257
177.8649991,22.1700000762939
177.8806241,39.0999984741211
177.8962491,52.939998626709
177.9118741,61.5699996948242
177.9274991,64.6500015258789
177.9431241,63.4000015258789
177.9587491,59.4799995422363
177.9743741,54.1100006103516
177.9899991,48.0099983215332
178.0056241,41.8899993896484
178.0212491,36.25
178.0368741,30.7199993133545
178.0524991,24.1800003051758
178.0681241,15.8100004196167
178.0837491,5.88000011444092
178.0993741,-4.38000011444092
178.1149991,-13.539999961853
178.1306241,-20.6499996185303
178.1462491,-25.7000007629395
178.1618741,-29.3700008392334
178.1774991,-32.0900001525879
178.1931241,-33.9300003051758
178.2087491,-34.9500007629395
178.2243741,-35.4500007629395
178.2399991,-35.7200012207031
178.2556241,-35.8400001525879
178.2712491,-35.7799987792969
178.2868741,-35.6300010681152
178.3024991,-35.3400001525879
178.3181241,-34.4099998474121
178.3337491,-32.2000007629395
178.3493741,-28.7800006866455
178.3649991,-25.0599994659424
178.3806241,-22.0
178.3962491,-19.9200000762939
178.4118741,-18.7399997711182
178.4274991,-18.4099998474121
178.4431241,-18.7299995422363
178.4587491,-18.6000003814697
178.4743741,-15.7700004577637
178.4899991,-8.15999984741211
178.5056241,4.51000022888184
178.5212491,20.2999992370605
178.5368741,35.9199981689453
178.5524991,48.0299987792969
178.5681241,54.5699996948242
178.5837491,55.6100006103516
178.5993741,52.9799995422363
178.6149991,49.0900001525879
178.6306241,45.6500015258789
178.6462491,43.1500015258789
178.6618741,40.9300003051758
178.6774991,37.7900009155273
178.6931241,32.5699996948242
178.7087491,24.7999992370605
178.7243741,14.8800001144409
178.7399991,4.15999984741211
178.7556241,-5.57000017166138
178.7712491,-12.8100004196167
178.7868741,-17.1399993896484
178.8024991,-19.3600006103516
178.8181241,-20.7800006866455
178.8337491,-22.3400001525879
178.8493741,-24.2999992370605
178.8649991,-26.2800006866455
178.8806241,-27.6900005340576
178.8962491,-28.1200008392334
178.9118741,-27.7000007629395
178.9274991,-26.7800006866455
178.9431241,-25.7099990844727
178.9587491,-24.5699996948242
178.9743741,-23.3999996185303
178.9899991,-22.4500007629395
179.0056241,-22.2099990844727
179.0212491,-22.9300003051758
179.0368741,-24.1800003051758
179.0524991,-25.1700000762939
179.0681241,-25.2000007629395
179.0837491,-23.8700008392334
179.0993741,-20.9300003051758
179.1149991,-16.2900009155273
179.1306241,-9.90999984741211
179.1462491,-1.58000004291534
179.1618741,9.14000034332275
179.1774991,22.2800006866455
179.1931241,36.5900001525879
179.2087491,49.4500007629395
179.2243741,57.9599990844727
179.2399991,60.4099998474121
179.2556241,57.2599983215332
179.2712491,50.7299995422363
179.2868741,43.4500007629395
179.3024991,37.1399993896484
179.3181241,32.1699981689453
179.3337491,27.7399997711182
179.3493741,22.5200004577637
179.3649991,15.6400003433228
179.3806241,7.17000007629395
179.3962491,-2.09999990463257
179.4118741,-10.9499998092651
179.4274991,-18.0699996948242
179.4431241,-22.6700000762939
179.4587491,-25.1499996185303
179.4743741,-26.9099998474121
179.4899991,-29.1599998474121
179.5056241,-31.9200000762939
179.5212491,-34.189998626709
179.5368741,-35.2700004577637
179.5524991,-35.5
179.5681241,-35.8300018310547
179.5837491,-36.9000015258789
179.5993741,-38.560001373291
179.6149991,-40.1800003051758
179.6306241,-41.3300018310547
179.6462491,-42.1300010681152
179.6618741,-42.9099998474121
179.6774991,-43.6699981689453
179.6931241,-43.9799995422363
179.7087491,-42.9799995422363
179.7243741,-39.7299995422363
179.7399991,-33.9900016784668
179.7556241,-26.4899997711182
179.7712491,-18.0900001525879
179.7868741,-8.69999980926514
179.8024991,2.58999991416931
179.8181241,16.1800003051758
179.8337491,30.6399993896484
179.8493741,43.3199996948242
179.8649991,52.0299987792969
179.8806241,56.1500015258789
179.8962491,56.4500007629395
179.9118741,54.1199989318848
179.9274991,50.1100006103516
179.9431241,44.9599990844727
179.9587491,38.9700012207031
179.9743741,32.3699989318848
179.9899991,25.1100006103516
180.0056241,16.8099994659424
180.0212491,7.17000007629395
180.0368741,-3.35999989509583
180.0524991,-13.3299999237061
180.0681241,-20.8299999237061
180.0837491,-24.6000003814697
180.0993741,-24.7000007629395
180.1149991,-22.3400001525879
180.1306241,-19.1900005340576
180.1462491,-16.8799991607666
180.1618741,-16.2600002288818
180.1774991,-17.0200004577637
180.1931241,-17.9699993133545
180.2087491,-18.0200004577637
180.2243741,-16.9799995422363
180.2399991,-15.5600004196167
180.2556241,-14.7399997711182
180.2712491,-15.1800003051758
180.2868741,-16.7600002288818
180.3024991,-18.7000007629395
180.3181241,-20.0599994659424
180.3337491,-20.4599990844727
180.3493741,-20.1700000762939
180.3649991,-19.5100002288818
180.3806241,-18.3299999237061
180.3962491,-15.7399997711182
180.4118741,-10.4099998474121
180.4274991,-1.12999999523163
180.4431241,12.3800001144409
180.4587491,28.8999996185303
180.4743741,45.6500015258789
180.4899991,59.3800010681152
180.5056241,67.6399993896484
180.5212491,69.5800018310547
180.5368741,66.0500030517578
180.5524991,59.0400009155273
180.5681241,50.810001373291
180.5837491,42.8899993896484
180.5993741,35.75
180.6149991,28.9400005340576
180.6306241,21.7199993133545
180.6462491,13.6400003433228
180.6618741,4.94999980926514
180.6774991,-3.41000008583069
180.6931241,-10.3100004196167
180.7087491,-15.0200004577637
180.7243741,-17.5499992370605
180.7399991,-18.4400005340576
180.7556241,-18.2700004577637
180.7712491,-17.4599990844727
180.7868741,-16.4799995422363
180.8024991,-15.8800001144409
180.8181241,-15.9099998474121
180.8337491,-16.2800006866455
180.8493741,-16.4200000762939
180.8649991,-15.9399995803833
180.8806241,-14.8400001525879
180.8962491,-13.4700002670288
180.9118741,-12.4300003051758
180.9274991,-12.2299995422363
180.9431241,-12.960000038147
180.9587491,-14.1499996185303
180.9743741,-15.1899995803833
180.9899991,-15.5299997329712
181.0056241,-14.3999996185303
181.0212491,-10.6599998474121
181.0368741,-3.36999988555908
181.0524991,7.53000020980835
181.0681241,20.9300003051758
181.0837491,34.689998626709
181.0993741,46.25
181.1149991,53.5299987792969
181.1306241,55.6100006103516
181.1462491,53.0200004577637
181.1618741,47.4799995422363
181.1774991,41.1399993896484
181.1931241,35.439998626709
181.2087491,30.3700008392334
181.2243741,24.8199996948242
181.2399991,17.5599994659424
181.2556241,8.26000022888184
181.2712491,-2.10999989509583
181.2868741,-11.7299995422363
181.3024991,-18.7199993133545
181.3181241,-22.0599994659424
181.3337491,-22.2099990844727
181.3493741,-20.8799991607666
181.3649991,-19.9099998474121
181.3806241,-20.3299999237061
181.3962491,-22.1599998474121
181.4118741,-24.7600002288818
181.4274991,-27.2900009155273
181.4431241,-29.3199996948242
181.4587491,-30.8999996185303
181.4743741,-32.1100006103516
181.4899991,-32.7999992370605
181.5056241,-32.7900009155273
181.5212491,-32.1100006103516
181.5368741,-30.9300003051758
181.5524991,-29.4300003051758
181.5681241,-27.5499992370605
181.5837491,-24.8899993896484
181.5993741,-20.8400001525879
181.6149991,-14.5
181.6306241,-4.92000007629395
181.6462491,8.11999988555908
181.6618741,23.4500007629395
181.6774991,38.7299995422363
181.6931241,51.1599998474121
181.7087491,58.560001373291
181.7243741,60.3300018310547
181.7399991,57.7099990844727
181.7556241,52.810001373291
181.7712491,47.3199996948242
181.7868741,41.8499984741211
181.8024991,36.0999984741211
181.8181241,29.4699993133545
181.8337491,21.5
181.8493741,12.1700000762939
181.8649991,2.23000001907349
181.8806241,-6.84999990463257
181.8962491,-13.3900003433228
181.9118741,-16.4300003051758
181.9274991,-16.4599990844727
181.9431241,-15.1899995803833
181.9587491,-14.6099996566772
181.9743741,-16.0799999237061
181.9899991,-19.6499996185303
182.0056241,-24.3099994659424
182.0212491,-28.7999992370605
182.0368741,-32.3600006103516
182.0524991,-34.7099990844727
182.0681241,-35.5800018310547
182.0837491,-34.7099990844727
182.0993741,-32.3600006103516
182.1149991,-29.6000003814697
182.1306241,-27.8700008392334
182.1462491,-28.1000003814697
182.1618741,-30.0599994659424
182.1774991,-32.3800010681152
182.1931241,-33.2299995422363
182.2087491,-30.9200000762939
182.2243741,-24.0499992370605
182.2399991,-12.1099996566772
182.2556241,3.76999998092651
182.2712491,20.9599990844727
182.2868741,36.4799995422363
182.3024991,48.2799987792969
182.3181241,55.6100006103516
182.3337491,58.6500015258789
182.3493741,57.9799995422363
182.3649991,54.3699989318848
182.3806241,48.7400016784668
182.3962491,41.9199981689453
182.4118741,34.2599983215332
182.4274991,25.5100002288818
182.4431241,15.460000038147
182.4587491,4.55000019073486
182.4743741,-6.15000009536743
182.4899991,-15.4899997711182
182.5056241,-22.4099998474121
182.5212491,-26.2900009155273
182.5368741,-27.25
182.5524991,-26.3299999237061
182.5681241,-25.0400009155273
182.5837491,-24.5799999237061
182.5993741,-25.4200000762939
182.6149991,-27.2600002288818
182.6306241,-29.3899993896484
182.6462491,-31.0599994659424
182.6618741,-31.7800006866455
182.6774991,-31.6399993896484
182.6931241,-31.2700004577637
182.7087491,-31.8099994659424
182.7243741,-34.5499992370605
182.7399991,-40.4000015258789
182.7556241,-49.3300018310547
182.7712491,-60.0099983215332
182.7868741,-69.9400024414063
182.8024991,-75.620002746582
182.8181241,-73.4400024414063
182.8337491,-61.4099998474121
182.8493741,-40.4599990844727
182.8649991,-14.1499996185303
182.8806241,12.8800001144409
182.8962491,36.810001373291
182.9118741,55.5499992370605
182.9274991,68.7200012207031
182.9431241,76.8199996948242
182.9587491,80.5999984741211
182.9743741,80.7300033569336
182.9899991,77.7900009155273
183.0056241,72.2900009155273
183.0212491,64.7200012207031
183.0368741,55.4599990844727
183.0524991,44.8699989318848
183.0681241,33.5900001525879
183.0837491,22.6800003051758
183.0993741,13.1700000762939
183.1149991,5.65000009536743
183.1306241,0.100000001490116
183.1462491,-4.1399998664856
183.1618741,-8.09000015258789
183.1774991,-12.6400003433228
183.1931241,-18.3099994659424
183.2087491,-25.2299995422363
183.2243741,-32.9000015258789
183.2399991,-40.0999984741211
183.2556241,-45.3199996948242
183.2712491,-47.4599990844727
183.2868741,-46.189998626709
183.3024991,-41.7999992370605
183.3181241,-35.0099983215332
183.3337491,-26.8099994659424
183.3493741,-18.5900001525879
183.3649991,-11.960000038147
183.3806241,-8.02999973297119
183.3962491,-6.46999979019165
183.4118741,-5.0
183.4274991,-0.479999989271164
183.4431241,9.14000034332275
183.4587491,23.1599998474121
183.4743741,38.1800003051758
183.4899991,50.0999984741211
183.5056241,56.5099983215332
183.5212491,57.6300010681152
183.5368741,55.4599990844727
183.5524991,52.189998626709
183.5681241,49.0699996948242
183.5837491,46.2200012207031
183.5993741,43.0999984741211
183.6149991,38.7999992370605
183.6306241,32.2200012207031
183.6462491,22.6900005340576
183.6618741,10.8599996566772
183.6774991,-1.30999994277954
183.6931241,-11.5200004577637
183.7087491,-18.2800006866455
183.7243741,-21.5699996948242
183.7399991,-22.3999996185303
183.7556241,-22.0200004577637
183.7712491,-21.4200000762939
183.7868741,-21.2800006866455
183.8024991,-21.9500007629395
183.8181241,-23.4899997711182
183.8337491,-25.7000007629395
183.8493741,-28.3500003814697
183.8649991,-31.4400005340576
183.8806241,-34.8899993896484
183.8962491,-38.25
183.9118741,-40.7200012207031
183.9274991,-41.4700012207031
183.9431241,-39.9900016784668
183.9587491,-36.2400016784668
183.9743741,-30.5799999237061
183.9899991,-23.3199996948242
184.0056241,-14.3800001144409
184.0212491,-3.25999999046326
184.0368741,10.210000038147
184.0524991,24.9500007629395
184.0681241,38.7099990844727
184.0837491,49.2900009155273
184.0993741,55.5200004577637
184.1149991,57.2999992370605
184.1306241,55.2400016784668
184.1462491,50.6100006103516
184.1618741,45.2200012207031
184.1774991,40.5999984741211
184.1931241,37.0900001525879
184.2087491,33.6699981689453
184.2243741,28.6900005340576
184.2399991,21.0300006866455
184.2556241,10.8199996948242
184.2712491,-0.670000016689301
184.2868741,-11.5500001907349
184.3024991,-20.0200004577637
184.3181241,-24.9899997711182
184.3337491,-26.4599990844727
184.3493741,-25.5200004577637
184.3649991,-24.1100006103516
184.3806241,-24.1200008392334
184.3962491,-26.4200000762939
184.4118741,-30.5499992370605
184.4274991,-35.0099983215332
184.4431241,-38.0499992370605
184.4587491,-38.5999984741211
184.4743741,-36.7000007629395
184.4899991,-33.1100006103516
184.5056241,-28.8600006103516
184.5212491,-25.2999992370605
184.5368741,-23.8899993896484
184.5524991,-25.3099994659424
184.5681241,-28.5699996948242
184.5837491,-31.4599990844727
184.5993741,-31.3099994659424
184.6149991,-25.7299995422363
184.6306241,-13.6400003433228
184.6462491,3.65000009536743
184.6618741,22.5400009155273
184.6774991,38.7700004577637
184.6931241,49.689998626709
184.7087491,55.2200012207031
184.7243741,57.2299995422363
184.7399991,58.0099983215332
184.7556241,59.1399993896484
184.7712491,60.6800003051758
184.7868741,61.0999984741211
184.8024991,58.25
184.8181241,50.7299995422363
184.8337491,38.8600006103516
184.8493741,24.5499992370605
184.8649991,10.3100004196167
184.8806241,-1.66999995708466
184.8962491,-10.1899995803833
184.9118741,-15.1899995803833
184.9274991,-17.6100006103516
184.9431241,-18.9500007629395
184.9587491,-20.3400001525879
184.9743741,-22.1000003814697
184.9899991,-24.0300006866455
185.0056241,-26.0300006866455
185.0212491,-28.2600002288818
185.0368741,-30.9699993133545
185.0524991,-34.0499992370605
185.0681241,-36.8800010681152
185.0837491,-38.8600006103516
185.0993741,-39.9500007629395
185.1149991,-40.560001373291
185.1306241,-41.0400009155273
185.1462491,-41.4099998474121
185.1618741,-41.5800018310547
185.1774991,-41.5400009155273
185.1931241,-41.3699989318848
185.2087491,-41.0900001525879
185.2243741,-40.0299987792969
185.2399991,-36.2900009155273
185.2556241,-27.3600006103516
185.2712491,-12.039999961853
185.2868741,7.98999977111816
185.3024991,28.6499996185303
185.3181241,45.7599983215332
185.3337491,57.1300010681152
185.3493741,62.7999992370605
185.3649991,64.0199966430664
185.3806241,62.439998626709
185.3962491,59.6199989318848
185.4118741,56.5699996948242
185.4274991,53.3499984741211
185.4431241,48.9700012207031
185.4587491,42.0499992370605
185.4743741,31.9099998474121
185.4899991,19.1800003051758
185.5056241,5.78000020980835
185.5212491,-5.69999980926514
185.5368741,-13.210000038147
185.5524991,-16.3299999237061
185.5681241,-16.2900009155273
185.5837491,-15.0299997329712
185.5993741,-14.3900003433228
185.6149991,-15.6999998092651
185.6306241,-19.5699996948242
185.6462491,-25.6399993896484
