Time(s),Value(%)
717.0083602,-43.689998626709
717.0239852,-50.3600006103516
717.0396102,-56.310001373291
717.0552352,-62.3699989318848
717.0708602,-68.6600036621094
717.0864852,-74.370002746582
717.1021102,-78.5999984741211
717.1177352,-81.0100021362305
717.1333602,-81.9599990844727
717.1489852,-82.2900009155273
717.1646102,-83.0100021362305
717.1802352,-84.8099975585938
717.1958602,-87.8199996948242
717.2114852,-91.8000030517578
717.2271102,-96.5800018310547
717.2427352,-102.080001831055
717.2583602,-107.970001220703
717.2739852,-113.150001525879
717.2896102,-115.75
717.3052352,-114.110000610352
717.3208602,-107.860000610352
717.3364852,-97.9100036621094
717.3521102,-85.6699981689453
717.3677352,-72.9100036621094
717.3833602,-59.7000007629395
717.3989852,-46.5999984741211
717.4146102,-33.9799995422363
717.4302352,-22.3700008392334
717.4458602,-12.5900001525879
717.4614852,-5.38000011444092
717.4771102,-0.879999995231628
717.4927352,1.27999997138977
717.5083602,1.53999996185303
717.5239852,0.170000001788139
717.5396102,-2.3199999332428
717.5552352,-4.96999979019165
717.5708602,-6.3899998664856
717.5864852,-5.61999988555908
717.6021102,-2.88000011444092
717.6177352,0.889999985694885
717.6333602,5.13000011444092
717.6489852,9.85000038146973
717.6646102,15.3199996948242
717.6802352,21.5699996948242
717.6958602,28.2800006866455
717.7114852,34.8699989318848
717.7271102,40.6699981689453
717.7427352,45.2099990844727
717.7583602,48.4000015258789
717.7739852,50.189998626709
717.7896102,50.3199996948242
717.8052352,48.4700012207031
717.8208602,44.8400001525879
717.8364852,40.5499992370605
717.8521102,37.3300018310547
717.8677352,36.3800010681152
717.8833602,37.5099983215332
717.8989852,39.689998626709
717.9146102,42.25
717.9302352,45.310001373291
717.9458602,49.2400016784668
717.9614852,54.1300010681152
717.9771102,59.6599998474121
717.9927352,65.3000030517578
718.0083602,70.5699996948242
718.0239852,75.2200012207031
718.0396102,79.2200012207031
718.0552352,82.6600036621094
718.0708602,85.5800018310547
718.0864852,87.9700012207031
718.1021102,89.9400024414063
718.1177352,91.9899978637695
718.1333602,95.0500030517578
718.1489852,99.9400024414063
718.1646102,106.709999084473
718.1802352,114.690002441406
718.1958602,122.98999786377
718.2114852,130.929992675781
718.2271102,138.190002441406
718.2427352,144.75
718.2583602,150.660003662109
718.2739852,155.940002441406
718.2896102,160.419998168945
718.3052352,163.919998168945
718.3208602,166.369995117188
718.3364852,167.839996337891
718.3521102,168.369995117188
718.3677352,168.020004272461
718.3833602,166.949996948242
718.3989852,165.539993286133
718.4146102,164.330001831055
718.4302352,163.639999389648
718.4458602,163.320007324219
718.4614852,162.929992675781
718.4771102,162.199996948242
718.4927352,161.190002441406
718.5083602,160.100006103516
718.5239852,159.070007324219
718.5396102,158.070007324219
718.5552352,156.919998168945
718.5708602,155.320007324219
718.5864852,153.029998779297
718.6021102,149.979995727539
718.6177352,146.199996948242
718.6333602,141.630004882813
718.6489852,136.190002441406
718.6646102,130.009994506836
718.6802352,123.629997253418
718.6958602,117.819999694824
718.7114852,113.129997253418
718.7271102,109.440002441406
718.7427352,106.209999084473
718.7583602,103.040000915527
718.7739852,99.9300003051758
718.7896102,97.0299987792969
718.8052352,94.4499969482422
718.8208602,92.129997253418
718.8364852,89.9300003051758
718.8521102,87.7799987792969
718.8677352,85.6600036621094
718.8833602,83.5899963378906
718.8989852,81.5800018310547
718.9146102,79.6900024414063
718.9302352,77.9599990844727
718.9458602,76.3899993896484
718.9614852,75.0299987792969
718.9771102,74.0100021362305
718.9927352,73.4599990844727
719.0083602,73.3600006103516
719.0239852,73.4400024414063
719.0396102,73.2799987792969
719.0552352,72.5699996948242
719.0708602,71.1600036621094
719.0864852,69.1900024414063
719.1021102,66.8300018310547
719.1177352,64.2300033569336
719.1333602,61.3300018310547
719.1489852,58.0200004577637
719.1646102,54.2200012207031
719.1802352,49.939998626709
719.1958602,45.2299995422363
719.2114852,40.1399993896484
719.2271102,34.7700004577637
719.2427352,29.3700008392334
719.2583602,24.2199993133545
719.2739852,19.4899997711182
719.2896102,15.0600004196167
719.3052352,10.6800003051758
719.3208602,6.19000005722046
719.3364852,1.55999994277954
719.3521102,-3.29999995231628
719.3677352,-8.46000003814697
719.3833602,-13.9099998474121
719.3989852,-19.4300003051758
719.4146102,-24.6499996185303
719.4302352,-29.3299999237061
719.4458602,-33.5699996948242
719.4614852,-37.6100006103516
719.4771102,-41.5299987792969
719.4927352,-45.189998626709
719.5083602,-48.4000015258789
719.5239852,-51.1300010681152
719.5396102,-53.4900016784668
719.5552352,-55.6699981689453
719.5708602,-57.8499984741211
719.5864852,-60.1300010681152
719.6021102,-62.5099983215332
719.6177352,-64.9000015258789
719.6333602,-67.1600036621094
719.6489852,-69.1900024414063
719.6646102,-70.9599990844727
719.6802352,-72.370002746582
719.6958602,-73.2300033569336
719.7114852,-73.3199996948242
719.7271102,-72.5199966430664
719.7427352,-70.9499969482422
719.7583602,-68.9700012207031
719.7739852,-66.9800033569336
719.7896102,-65.2799987792969
719.8052352,-63.9700012207031
719.8208602,-63.0
719.8364852,-62.1800003051758
719.8521102,-61.3300018310547
719.8677352,-60.3400001525879
719.8833602,-59.1800003051758
719.8989852,-57.9599990844727
719.9146102,-56.810001373291
719.9302352,-55.8400001525879
719.9458602,-55.1199989318848
719.9614852,-54.7000007629395
719.9771102,-54.7599983215332
719.9927352,-55.4799995422363
720.0083602,-56.9799995422363
720.0239852,-59.1800003051758
720.0396102,-61.8199996948242
720.0552352,-64.5899963378906
720.0708602,-67.2099990844727
720.0864852,-69.5500030517578
720.1021102,-71.5800018310547
720.1177352,-73.25
720.1333602,-74.3399963378906
720.1489852,-74.6600036621094
720.1646102,-74.1900024414063
720.1802352,-73.1600036621094
720.1958602,-71.8899993896484
720.2114852,-70.6900024414063
720.2271102,-69.7300033569336
720.2427352,-69.0599975585938
720.2583602,-68.7300033569336
720.2739852,-68.7799987792969
720.2896102,-69.1399993896484
720.3052352,-69.6699981689453
720.3208602,-70.1900024414063
720.3364852,-70.5500030517578
720.3521102,-70.6800003051758
720.3677352,-70.2799987792969
720.3833602,-69.8300018310547
720.3989852,-69.3199996948242
720.4146102,-68.5199966430664
720.4302352,-67.2200012207031
720.4458602,-65.3099975585938
720.4614852,-62.810001373291
720.4771102,-59.6199989318848
720.4927352,-55.6399993896484
720.5083602,-50.9599990844727
720.5239852,-46.0299987792969
720.5396102,-41.4500007629395
720.5552352,-37.560001373291
720.5708602,-34.060001373291
720.5864852,-30.4699993133545
720.6021102,-26.7000007629395
720.6177352,-23.1499996185303
720.6333602,-20.2900009155273
720.6489852,-18.3099994659424
720.6646102,-17.0400009155273
720.6802352,-16.0200004577637
720.6958602,-14.6400003433228
720.7114852,-12.4700002670288
720.7271102,-9.40999984741211
720.7427352,-5.51999998092651
720.7583602,-0.740000009536743
720.7739852,5.03000020980835
720.7896102,11.6000003814697
720.8052352,18.1299991607666
720.8208602,23.2900009155273
720.8364852,26.0599994659424
720.8521102,26.3899993896484
720.8677352,24.9599990844727
720.8833602,22.4300003051758
720.8989852,19.1000003814697
720.9146102,15.1099996566772
720.9302352,10.6199998855591
720.9458602,5.90000009536743
720.9614852,1.08000004291534
720.9771102,-3.88000011444092
720.9927352,-9.17000007629395
721.0083602,-14.8400001525879
721.0239852,-20.8600006103516
721.0396102,-27.1700000762939
721.0552352,-33.689998626709
721.0708602,-40.310001373291
721.0864852,-46.8600006103516
721.1021102,-53.189998626709
721.1177352,-59.2999992370605
721.1333602,-65.3000030517578
721.1489852,-71.2799987792969
721.1646102,-77.0800018310547
721.1802352,-82.370002746582
721.1958602,-86.879997253418
721.2114852,-90.5800018310547
721.2271102,-93.6500015258789
721.2427352,-96.4700012207031
721.2583602,-99.5199966430664
721.2739852,-103.160003662109
721.2896102,-107.430000305176
721.3052352,-112.199996948242
721.3208602,-117.370002746582
721.3364852,-122.889999389648
721.3521102,-128.570007324219
721.3677352,-134.339996337891
721.3833602,-138.929992675781
721.3989852,-141.520004272461
721.4146102,-141.699996948242
721.4302352,-139.520004272461
721.4458602,-135.380004882813
721.4614852,-129.800003051758
721.4771102,-123.379997253418
721.4927352,-116.669998168945
721.5083602,-110.029998779297
721.5239852,-103.389999389648
721.5396102,-96.3000030517578
721.5552352,-88.1900024414063
721.5708602,-78.6600036621094
721.5864852,-66.6699981689453
721.6021102,-50.1199989318848
721.6177352,-27.0799999237061
721.6333602,2.32999992370605
721.6489852,35.4199981689453
721.6646102,68.1399993896484
721.6802352,97.3399963378906
721.6958602,121.98999786377
721.7114852,141.970001220703
721.7271102,156.339996337891
721.7427352,163.690002441406
721.7583602,163.809997558594
721.7739852,158.399993896484
721.7896102,150.169998168945
721.8052352,141.320007324219
721.8208602,132.539993286133
721.8364852,123.360000610352
721.8521102,113.199996948242
721.8677352,102.059997558594
721.8833602,90.629997253418
721.8989852,79.7699966430664
721.9146102,70.0699996948242
721.9302352,61.6100006103516
721.9458602,54.4799995422363
721.9614852,49.9799995422363
721.9771102,51.0800018310547
721.9927352,60.560001373291
722.0083602,78.5199966430664
722.0239852,102.040000915527
722.0396102,126.870002746582
722.0552352,149.580001831055
722.0708602,171.470001220703
722.0864852,206.949996948242
722.1021102,285.209991455078
722.1177352,327.670013427734
722.1333602,327.670013427734
722.1489852,327.670013427734
722.1646102,327.670013427734
722.1802352,327.670013427734
722.1958602,327.670013427734
722.2114852,327.670013427734
722.2271102,327.670013427734
722.2427352,327.670013427734
722.2583602,327.670013427734
722.2739852,327.670013427734
722.2896102,327.670013427734
722.3052352,327.670013427734
722.3208602,162.830001831055
722.3364852,-71.9599990844727
722.3521102,-268.450012207031
722.3677352,-327.679992675781
722.3833602,-327.679992675781
722.3989852,-327.679992675781
722.4146102,-327.679992675781
722.4302352,-327.679992675781
722.4458602,-327.679992675781
722.4614852,-327.679992675781
722.4771102,-327.679992675781
722.4927352,-327.679992675781
722.5083602,-327.679992675781
722.5239852,-327.679992675781
722.5396102,-327.679992675781
722.5552352,-327.679992675781
722.5708602,-327.679992675781
722.5864852,-327.679992675781
722.6021102,-327.679992675781
722.6177352,-327.679992675781
722.6333602,-327.679992675781
722.6489852,-327.679992675781
722.6646102,-327.679992675781
722.6802352,-327.679992675781
722.6958602,-327.679992675781
722.7114852,-327.679992675781
722.7271102,-327.679992675781
722.7427352,-327.679992675781
722.7583602,-327.679992675781
722.7739852,-327.679992675781
722.7896102,-327.679992675781
722.8052352,-327.679992675781
722.8208602,-327.679992675781
722.8364852,-327.679992675781
722.8521102,-327.679992675781
722.8677352,-327.679992675781
722.8833602,-327.679992675781
722.8989852,-327.679992675781
722.9146102,-327.679992675781
722.9302352,-327.679992675781
722.9458602,-327.679992675781
722.9614852,-327.679992675781
722.9771102,-327.679992675781
722.9927352,-327.679992675781
723.0083602,-327.679992675781
723.0239852,-327.679992675781
723.0396102,-327.679992675781
723.0552352,-327.679992675781
723.0708602,-312.140014648438
723.0864852,-280.420013427734
723.1021102,-250.850006103516
723.1177352,-223.789993286133
723.1333602,-199.350006103516
723.1489852,-177.240005493164
723.1646102,-157.039993286133
723.1802352,-138.360000610352
723.1958602,-120.809997558594
723.2114852,-104.110000610352
723.2271102,-88.0400009155273
723.2427352,-72.2799987792969
723.2583602,-56.1800003051758
723.2739852,-38.9000015258789
723.2896102,-19.8099994659424
723.3052352,1.08000004291534
723.3208602,23.1900005340576
723.3364852,45.5200004577637
723.3521102,67.3399963378906
723.3677352,90.2099990844727
723.3833602,114.309997558594
723.3989852,140.860000610352
723.4146102,170.259994506836
723.4302352,201.639999389648
723.4458602,233.399993896484
723.4614852,263.989990234375
723.4771102,292.350006103516
723.4927352,317.420013427734
723.5083602,327.670013427734
723.5239852,327.670013427734
723.5396102,327.670013427734
723.5552352,327.670013427734
723.5708602,327.670013427734
723.5864852,327.670013427734
723.6021102,327.670013427734
723.6177352,327.670013427734
723.6333602,327.670013427734
723.6489852,327.670013427734
723.6646102,327.670013427734
723.6802352,327.670013427734
723.6958602,327.670013427734
723.7114852,327.670013427734
723.7271102,327.670013427734
723.7427352,327.670013427734
723.7583602,327.670013427734
723.7739852,327.670013427734
723.7896102,327.670013427734
723.8052352,327.670013427734
723.8208602,327.670013427734
723.8364852,327.670013427734
723.8521102,327.670013427734
723.8677352,327.670013427734
723.8833602,327.670013427734
723.8989852,327.670013427734
723.9146102,327.670013427734
723.9302352,327.670013427734
723.9458602,327.670013427734
723.9614852,327.670013427734
723.9771102,327.670013427734
723.9927352,327.670013427734
724.0083602,327.670013427734
724.0239852,327.670013427734
724.0396102,327.670013427734
724.0552352,327.670013427734
724.0708602,327.670013427734
724.0864852,327.670013427734
724.1021102,327.670013427734
724.1177352,327.670013427734
724.1333602,327.670013427734
724.1489852,327.670013427734
724.1646102,327.670013427734
724.1802352,327.670013427734
724.1958602,327.670013427734
724.2114852,327.670013427734
724.2271102,327.670013427734
724.2427352,321.549987792969
724.2583602,296.760009765625
724.2739852,268.950012207031
724.2896102,239.300003051758
724.3052352,208.820007324219
724.3208602,178.490005493164
724.3364852,149.990005493164
724.3521102,125.819999694824
724.3677352,109.73999786377
724.3833602,101.300003051758
724.3989852,100.360000610352
724.4146102,105.529998779297
724.4302352,114.819999694824
724.4458602,126.089996337891
724.4614852,137.539993286133
724.4771102,148.300003051758
724.4927352,159.199996948242
724.5083602,172.830001831055
724.5239852,191.860000610352
724.5396102,217.050003051758
724.5552352,247.149993896484
724.5708602,280.299987792969
724.5864852,314.839996337891
724.6021102,327.670013427734
724.6177352,327.670013427734
724.6333602,327.670013427734
724.6489852,327.670013427734
724.6646102,327.670013427734
724.6802352,327.670013427734
724.6958602,327.670013427734
724.7114852,327.670013427734
724.7271102,327.670013427734
724.7427352,327.670013427734
724.7583602,326.760009765625
724.7739852,309.100006103516
724.7896102,291.769989013672
724.8052352,274.899993896484
724.8208602,258.489990234375
724.8364852,242.429992675781
724.8521102,226.559997558594
724.8677352,210.729995727539
724.8833602,194.860000610352
724.8989852,178.729995727539
724.9146102,161.789993286133
724.9302352,143.119995117188
724.9458602,121.699996948242
724.9614852,97.120002746582
724.9771102,69.879997253418
724.9927352,40.5999984741211
725.0083602,9.02000045776367
725.0239852,-25.5
725.0396102,-62.75
725.0552352,-100.849998474121
725.0708602,-137.020004272461
725.0864852,-169.529998779297
725.1021102,-199.029998779297
725.1177352,-227.080001831055
725.1333602,-253.779998779297
725.1489852,-277.549987792969
725.1646102,-296.799987792969
725.1802352,-311.279998779297
725.1958602,-321.989990234375
725.2114852,-327.679992675781
725.2271102,-327.679992675781
725.2427352,-327.679992675781
725.2583602,-327.679992675781
725.2739852,-327.679992675781
725.2896102,-327.679992675781
725.3052352,-327.679992675781
725.3208602,-327.679992675781
725.3364852,-327.679992675781
725.3521102,-327.679992675781
725.3677352,-327.679992675781
725.3833602,-327.679992675781
725.3989852,-323.279998779297
725.4146102,-314.630004882813
725.4302352,-306.480010986328
725.4458602,-298.790008544922
725.4614852,-291.200012207031
725.4771102,-283.529998779297
725.4927352,-276.200012207031
725.5083602,-270.290008544922
725.5239852,-266.869995117188
725.5396102,-266.329986572266
725.5552352,-268.670013427734
725.5708602,-274.140014648438
725.5864852,-283.059997558594
725.6021102,-294.799987792969
725.6177352,-307.170013427734
725.6333602,-317.0
725.6489852,-322.230010986328
725.6646102,-323.450012207031
725.6802352,-322.700012207031
725.6958602,-321.059997558594
725.7114852,-318.0
725.7271102,-312.559997558594
725.7427352,-304.489990234375
725.7583602,-294.470001220703
725.7739852,-283.890014648438
725.7896102,-274.25
725.8052352,-266.540008544922
725.8208602,-260.989990234375
725.8364852,-257.529998779297
725.8521102,-256.5
725.8677352,-258.359985351563
725.8833602,-262.679992675781
725.8989852,-267.299987792969
725.9146102,-268.769989013672
725.9302352,-264.420013427734
725.9458602,-254.309997558594
725.9614852,-240.479995727539
725.9771102,-224.740005493164
725.9927352,-207.759994506836
726.0083602,-189.600006103516
726.0239852,-170.419998168945
726.0396102,-150.679992675781
726.0552352,-130.759994506836
726.0708602,-110.610000610352
726.0864852,-89.9599990844727
726.1021102,-68.7600021362305
726.1177352,-47.4199981689453
726.1333602,-26.6800003051758
726.1489852,-7.21000003814697
726.1646102,10.6999998092651
726.1802352,27.3799991607666
726.1958602,43.5299987792969
726.2114852,59.6800003051758
726.2271102,75.7099990844727
726.2427352,91.0500030517578
726.2583602,105.26000213623
726.2739852,118.300003051758
726.2896102,130.419998168945
726.3052352,141.889999389648
726.3208602,152.850006103516
726.3364852,163.160003662109
726.3521102,172.449996948242
726.3677352,180.360000610352
726.3833602,186.800003051758
726.3989852,191.839996337891
726.4146102,195.600006103516
726.4302352,198.139999389648
726.4458602,199.699996948242
726.4614852,200.940002441406
726.4771102,202.839996337891
726.4927352,206.289993286133
726.5083602,211.440002441406
726.5239852,217.869995117188
726.5396102,224.940002441406
726.5552352,232.139999389648
726.5708602,239.130004882813
726.5864852,245.660003662109
726.6021102,251.619995117188
726.6177352,257.100006103516
726.6333602,262.440002441406
726.6489852,267.980010986328
726.6646102,273.850006103516
726.6802352,279.989990234375
726.6958602,286.359985351563
726.7114852,292.929992675781
726.7271102,299.529998779297
726.7427352,305.670013427734
726.7583602,310.799987792969
726.7739852,315.0
726.7896102,319.410003662109
726.8052352,325.339996337891
726.8208602,327.670013427734
726.8364852,327.670013427734
726.8521102,327.670013427734
726.8677352,327.670013427734
726.8833602,327.670013427734
726.8989852,327.670013427734
726.9146102,327.670013427734
726.9302352,327.670013427734
726.9458602,327.670013427734
726.9614852,327.670013427734
726.9771102,327.670013427734
726.9927352,327.670013427734
727.0083602,327.670013427734
727.0239852,327.670013427734
727.0396102,327.670013427734
727.0552352,327.670013427734
727.0708602,327.670013427734
727.0864852,327.670013427734
727.1021102,327.670013427734
727.1177352,327.670013427734
727.1333602,327.670013427734
727.1489852,318.880004882813
727.1646102,297.5
727.1802352,276.220001220703
727.1958602,254.820007324219
727.2114852,233.009994506836
727.2271102,210.679992675781
727.2427352,188.020004272461
727.2583602,165.330001831055
727.2739852,142.869995117188
727.2896102,120.849998474121
727.3052352,99.4499969482422
727.3208602,78.8300018310547
727.3364852,58.9700012207031
727.3521102,39.5999984741211
727.3677352,20.1599998474121
727.3833602,1.54999995231628
727.3989852,-16.0400009155273
727.4146102,-32.3899993896484
727.4302352,-47.4300003051758
727.4458602,-61.2700004577637
727.4614852,-74.2600021362305
727.4771102,-86.8399963378906
727.4927352,-99.379997253418
727.5083602,-112.0
727.5239852,-124.75
727.5396102,-137.820007324219
727.5552352,-151.419998168945
727.5708602,-165.399993896484
727.5864852,-179.080001831055
727.6021102,-191.529998779297
727.6177352,-202.360000610352
727.6333602,-212.240005493164
727.6489852,-222.220001220703
727.6646102,-232.729995727539
727.6802352,-243.720001220703
