Time(s),Value(%)
750.0099667,-29.2700004577637
750.0255917,-22.1399993896484
750.0412167,-4.73999977111816
750.0568417,24.1800003051758
750.0724667,60.2799987792969
750.0880917,94.3600006103516
750.1037167,116.660003662109
750.1193417,121.769996643066
750.1349667,110.720001220703
750.1505917,89.5599975585938
750.1662167,65.879997253418
750.1818417,45.5400009155273
750.1974667,30.8799991607666
750.2130917,21.0400009155273
750.2287167,13.4399995803833
750.2443417,5.46000003814697
750.2599667,-4.26000022888184
750.2755917,-15.3199996948242
750.2912167,-25.9099998474121
750.3068417,-33.8300018310547
750.3224667,-37.8400001525879
750.3380917,-38.3499984741211
750.3537167,-37.0099983215332
750.3693417,-35.6399993896484
750.3849667,-35.4000015258789
750.4005917,-36.560001373291
750.4162167,-38.8699989318848
750.4318417,-41.7799987792969
750.4474667,-44.689998626709
750.4630917,-47.2000007629395
750.4787167,-49.189998626709
750.4943417,-50.7400016784668
750.5099667,-51.8699989318848
750.5255917,-52.4300003051758
750.5412167,-52.3199996948242
750.5568417,-51.7200012207031
750.5724667,-51.1399993896484
750.5880917,-51.1500015258789
750.6037167,-51.939998626709
750.6193417,-53.25
750.6349667,-54.5
750.6505917,-54.9000015258789
750.6662167,-52.8899993896484
750.6818417,-45.4199981689453
750.6974667,-28.4099998474121
750.7130917,0.159999996423721
750.7287167,37.0299987792969
750.7443417,73.6100006103516
750.7599667,99.9400024414063
750.7755917,109.599998474121
750.7912167,102.419998168945
750.8068417,83.5899963378906
750.8224667,60.560001373291
750.8380917,39.6199989318848
750.8537167,24.0
750.8693417,13.6899995803833
750.8849667,6.57999992370605
750.9005917,0.0
750.9162167,-7.71000003814697
750.9318417,-16.5499992370605
750.9474667,-24.8899993896484
750.9630917,-30.6100006103516
750.9787167,-32.4000015258789
750.9943417,-30.5100002288818
751.0099667,-26.3799991607666
751.0255917,-21.8799991607666
751.0412167,-18.75
751.0568417,-18.0300006866455
751.0724667,-19.6200008392334
751.0880917,-22.4599990844727
751.1037167,-25.3500003814697
751.1193417,-27.6299991607666
751.1349667,-29.2099990844727
751.1505917,-30.1800003051758
751.1662167,-30.6200008392334
751.1818417,-30.7299995422363
751.1974667,-30.7999992370605
751.2130917,-30.9400005340576
751.2287167,-30.8799991607666
751.2443417,-30.3700008392334
751.2599667,-29.4500007629395
751.2755917,-28.4500007629395
751.2912167,-27.4500007629395
751.3068417,-25.5599994659424
751.3224667,-20.3500003814697
751.3380917,-8.22999954223633
751.3537167,13.1700000762939
751.3693417,42.1300010681152
751.3849667,72.0899963378906
751.4005917,94.6699981689453
751.4162167,104.040000915527
751.4318417,99.4800033569336
751.4474667,84.8399963378906
751.4630917,65.9800033569336
751.4787167,48.0099983215332
751.4943417,33.7400016784668
751.5099667,23.5100002288818
751.5255917,16.0400009155273
751.5412167,9.55000019073486
751.5568417,2.84999990463257
751.5724667,-3.85999989509583
751.5880917,-9.13000011444092
751.6037167,-11.4399995803833
751.6193417,-10.5299997329712
751.6349667,-7.65000009536743
751.6505917,-4.6399998664856
751.6662167,-3.05999994277954
751.6818417,-3.67000007629395
751.6974667,-6.32999992370605
751.7130917,-10.1899995803833
751.7287167,-14.1499996185303
751.7443417,-17.3700008392334
751.7599667,-19.4799995422363
751.7755917,-20.5499992370605
751.7912167,-20.8999996185303
751.8068417,-20.9099998474121
751.8224667,-20.8500003814697
751.8380917,-21.0
751.8537167,-21.5900001525879
751.8693417,-22.7399997711182
751.8849667,-24.2999992370605
751.9005917,-25.8700008392334
751.9162167,-26.9400005340576
751.9318417,-27.0599994659424
751.9474667,-25.6900005340576
751.9630917,-21.5200004577637
751.9787167,-11.710000038147
751.9943417,6.96000003814697
752.0099667,34.8899993896484
752.0255917,67.2399978637695
752.0412167,95.3000030517578
752.0568417,110.860000610352
752.0724667,110.379997253418
752.0880917,96.2200012207031
752.1037167,74.6600036621094
752.1193417,52.4599990844727
752.1349667,34.310001373291
752.1505917,21.9099998474121
752.1662167,14.4300003051758
752.1818417,9.53999996185303
752.1974667,4.69000005722046
752.2130917,-1.6599999666214
752.2287167,-9.38000011444092
752.2443417,-16.7099990844727
752.2599667,-21.4099998474121
752.2755917,-22.1700000762939
752.2912167,-19.4599990844727
752.3068417,-15.2600002288818
752.3224667,-11.9300003051758
752.3380917,-10.9399995803833
752.3537167,-12.3299999237061
752.3693417,-15.0600004196167
752.3849667,-17.9799995422363
752.4005917,-20.5300006866455
752.4162167,-22.6200008392334
752.4318417,-24.2299995422363
752.4474667,-25.25
752.4630917,-25.6200008392334
752.4787167,-25.4099998474121
752.4943417,-24.8700008392334
752.5099667,-24.5100002288818
752.5255917,-24.7999992370605
752.5412167,-25.6700000762939
752.5568417,-26.5499992370605
752.5724667,-26.8899993896484
752.5880917,-26.5699996948242
752.6037167,-25.7999992370605
752.6193417,-24.7000007629395
752.6349667,-22.3199996948242
752.6505917,-15.6899995803833
752.6662167,-0.610000014305115
752.6818417,24.9099998474121
752.6974667,57.5699996948242
752.7130917,89.0299987792969
752.7287167,109.980003356934
752.7443417,114.75
752.7599667,103.669998168945
752.7755917,82.1600036621094
752.7912167,57.6800003051758
752.8068417,36.3499984741211
752.8224667,20.8899993896484
752.8380917,10.8400001525879
752.8537167,4.07000017166138
752.8693417,-1.70000004768372
752.8849667,-8.09000015258789
752.9005917,-15.6300001144409
752.9162167,-23.4899997711182
752.9318417,-29.8299999237061
752.9474667,-32.9000015258789
752.9630917,-32.1399993896484
752.9787167,-28.5400009155273
752.9943417,-24.1100006103516
753.0099667,-20.8500003814697
753.0255917,-19.8400001525879
753.0412167,-21.0599994659424
753.0568417,-23.6200008392334
753.0724667,-26.3199996948242
753.0880917,-28.2700004577637
753.1037167,-29.2000007629395
753.1193417,-29.3799991607666
753.1349667,-29.3600006103516
753.1505917,-29.5900001525879
753.1662167,-30.3799991607666
753.1818417,-31.7700004577637
753.1974667,-33.6500015258789
753.2130917,-35.7299995422363
753.2287167,-37.6300010681152
753.2443417,-38.9199981689453
753.2599667,-39.2400016784668
753.2755917,-38.4099998474121
753.2912167,-36.4000015258789
753.3068417,-32.9199981689453
753.3224667,-26.3400001525879
753.3380917,-13.1499996185303
753.3537167,9.98999977111816
753.3693417,42.4000015258789
753.3849667,77.4100036621094
753.4005917,105.089996337891
753.4162167,117.430000305176
753.4318417,112.26000213623
753.4474667,93.629997253418
753.4630917,68.9199981689453
753.4787167,45.2000007629395
753.4943417,26.7199993133545
753.5099667,14.3800001144409
753.5255917,6.53000020980835
753.5412167,0.449999988079071
753.5568417,-6.15000009536743
753.5724667,-13.8100004196167
753.5880917,-21.0300006866455
753.6037167,-25.4300003051758
753.6193417,-25.5799999237061
753.6349667,-22.0799999237061
753.6505917,-17.2000007629395
753.6662167,-13.4399995803833
753.6818417,-12.3500003814697
753.6974667,-14.0900001525879
753.7130917,-17.7299995422363
753.7287167,-21.8500003814697
753.7443417,-25.2900009155273
753.7599667,-27.5699996948242
753.7755917,-28.75
753.7912167,-29.0699996948242
753.8068417,-28.7999992370605
753.8224667,-28.2099990844727
753.8380917,-27.6100006103516
753.8537167,-27.2700004577637
753.8693417,-27.3600006103516
753.8849667,-27.9899997711182
753.9005917,-29.1299991607666
753.9162167,-30.4699993133545
753.9318417,-31.3500003814697
753.9474667,-31.0599994659424
753.9630917,-28.6900005340576
753.9787167,-22.2900009155273
753.9943417,-8.68000030517578
754.0099667,14.4899997711182
754.0255917,45.4599990844727
754.0412167,77.4800033569336
754.0568417,101.699996948242
754.0724667,111.690002441406
754.0880917,106.230003356934
754.1037167,89.0800018310547
754.1193417,66.4599990844727
754.1349667,44.25
754.1505917,26.1100006103516
754.1662167,13.0299997329712
754.1818417,4.01999998092651
754.1974667,-2.91000008583069
754.2130917,-9.60999965667725
754.2287167,-16.6399993896484
754.2443417,-23.0
754.2599667,-26.9099998474121
754.2755917,-27.2800006866455
754.2912167,-24.4699993133545
754.3068417,-20.0799999237061
754.3224667,-16.0599994659424
754.3380917,-13.9200000762939
754.3537167,-14.2299995422363
754.3693417,-16.5699996948242
754.3849667,-19.9200000762939
754.4005917,-23.3199996948242
754.4162167,-26.2900009155273
754.4318417,-28.6599998474121
754.4474667,-30.4500007629395
754.4630917,-31.7800006866455
754.4787167,-32.7999992370605
754.4943417,-33.6100006103516
754.5099667,-34.310001373291
754.5255917,-35.0499992370605
754.5412167,-35.9900016784668
754.5568417,-37.2000007629395
754.5724667,-38.5900001525879
754.5880917,-39.8400001525879
754.6037167,-40.5400009155273
754.6193417,-39.7799987792969
754.6349667,-35.1599998474121
754.6505917,-22.5799999237061
754.6662167,1.48000001907349
754.6818417,35.9900016784668
754.6974667,73.7799987792969
754.7130917,104.410003662109
754.7287167,119.480003356934
754.7443417,116.519996643066
754.7599667,99.2799987792969
754.7755917,75.0699996948242
754.7912167,51.189998626709
754.8068417,32.3400001525879
754.8224667,19.75
754.8380917,11.8100004196167
754.8537167,5.65000009536743
754.8693417,-1.33000004291534
754.8849667,-10.2299995422363
754.9005917,-20.2700004577637
754.9162167,-29.1399993896484
754.9318417,-34.2999992370605
754.9474667,-34.6399993896484
754.9630917,-31.2399997711182
754.9787167,-26.6599998474121
754.9943417,-23.3199996948242
755.0099667,-22.25
755.0255917,-23.1599998474121
755.0412167,-25.2800006866455
755.0568417,-28.0200004577637
755.0724667,-31.0
755.0880917,-33.939998626709
755.1037167,-36.6199989318848
755.1193417,-38.8699989318848
755.1349667,-40.6100006103516
755.1505917,-41.7099990844727
755.1662167,-42.25
755.1818417,-42.560001373291
755.1974667,-43.0800018310547
755.2130917,-43.8699989318848
755.2287167,-44.439998626709
755.2443417,-44.0499992370605
755.2599667,-42.3499984741211
755.2755917,-39.7400016784668
755.2912167,-36.7000007629395
755.3068417,-32.1500015258789
755.3224667,-22.2900009155273
755.3380917,-2.44000005722046
755.3537167,28.6299991607666
755.3693417,65.7600021362305
755.3849667,99.2300033569336
755.4005917,119.75
755.4162167,122.910003662109
755.4318417,110.470001220703
755.4474667,88.5100021362305
755.4630917,64.3000030517578
755.4787167,43.3499984741211
755.4943417,28.0400009155273
755.5099667,17.9300003051758
755.5255917,11.0299997329712
755.5412167,5.1399998664856
755.5568417,-1.04999995231628
755.5724667,-7.44999980926514
755.5880917,-12.6899995803833
755.6037167,-15.1599998474121
755.6193417,-14.2200002670288
755.6349667,-10.6700000762939
755.6505917,-6.42000007629395
755.6662167,-3.59999990463257
755.6818417,-3.6800000667572
755.6974667,-6.98999977111816
755.7130917,-12.7700004577637
755.7287167,-19.7600002288818
755.7443417,-26.7800006866455
755.7599667,-33.0
755.7755917,-37.8199996948242
755.7912167,-40.8400001525879
755.8068417,-42.0400009155273
755.8224667,-41.9099998474121
755.8380917,-41.3300018310547
755.8537167,-41.1399993896484
755.8693417,-41.7099990844727
755.8849667,-42.8699989318848
755.9005917,-44.1800003051758
755.9162167,-45.0999984741211
755.9318417,-45.0499992370605
755.9474667,-43.4199981689453
755.9630917,-39.2000007629395
755.9787167,-30.1800003051758
755.9943417,-13.1800003051758
756.0099667,13.5299997329712
756.0255917,47.1199989318848
756.0412167,79.6900024414063
756.0568417,101.809997558594
756.0724667,107.5
756.0880917,96.9899978637695
756.1037167,75.8000030517578
756.1193417,51.5099983215332
756.1349667,30.3700008392334
756.1505917,15.4399995803833
756.1662167,6.48999977111816
756.1818417,1.14999997615814
756.1974667,-3.45000004768372
756.2130917,-9.0600004196167
756.2287167,-15.3199996948242
756.2443417,-20.2999992370605
756.2599667,-22.1599998474121
756.2755917,-20.5
756.2912167,-16.6499996185303
756.3068417,-12.6899995803833
756.3224667,-10.2600002288818
756.3380917,-9.96000003814697
756.3537167,-11.4200000762939
756.3693417,-13.8900003433228
756.3849667,-16.7399997711182
756.4005917,-19.6399993896484
756.4162167,-22.3999996185303
756.4318417,-24.8099994659424
756.4474667,-26.6000003814697
756.4630917,-27.6000003814697
756.4787167,-27.8400001525879
756.4943417,-27.6399993896484
756.5099667,-27.3799991607666
756.5255917,-27.2700004577637
756.5412167,-27.5100002288818
756.5568417,-28.2000007629395
756.5724667,-29.1700000762939
756.5880917,-29.7299995422363
756.6037167,-28.5599994659424
756.6193417,-23.0799999237061
756.6349667,-9.61999988555908
756.6505917,14.1999998092651
756.6662167,46.2000007629395
756.6818417,78.8199996948242
756.6974667,102.389999389648
756.7130917,110.190002441406
756.7287167,101.589996337891
756.7443417,81.6800003051758
756.7599667,57.9000015258789
756.7755917,36.4900016784668
756.7912167,20.3700008392334
756.8068417,9.35000038146973
756.8224667,1.52999997138977
756.8380917,-5.17000007629395
756.8537167,-11.9700002670288
756.8693417,-18.7199993133545
756.8849667,-23.9400005340576
756.9005917,-25.8799991607666
756.9162167,-23.9200000762939
756.9318417,-19.2299995422363
756.9474667,-14.1800003051758
756.9630917,-11.0699996948242
756.9787167,-11.1000003814697
756.9943417,-13.960000038147
757.0099667,-18.0799999237061
757.0255917,-21.6800003051758
757.0412167,-23.6599998474121
757.0568417,-24.0599994659424
757.0724667,-23.5799999237061
757.0880917,-22.9699993133545
757.1037167,-22.5200004577637
757.1193417,-22.1200008392334
757.1349667,-21.6399993896484
757.1505917,-21.3099994659424
757.1662167,-21.4799995422363
757.1818417,-22.2999992370605
757.1974667,-23.5200004577637
757.2130917,-24.6299991607666
757.2287167,-24.9699993133545
757.2443417,-23.9099998474121
757.2599667,-20.4200000762939
757.2755917,-12.25
757.2912167,3.89000010490417
757.3068417,29.9200000762939
757.3224667,63.0800018310547
757.3380917,95.4499969482422
757.3537167,117.529998779297
757.3693417,123.230003356934
757.3849667,112.76000213623
757.4005917,91.7200012207031
757.4162167,67.7600021362305
757.4318417,46.9599990844727
757.4474667,31.9599990844727
757.4630917,22.2000007629395
757.4787167,15.3599996566772
757.4943417,9.0600004196167
757.5099667,1.99000000953674
757.5255917,-5.65999984741211
757.5412167,-12.5100002288818
757.5568417,-16.8899993896484
757.5724667,-17.8500003814697
757.5880917,-15.7200002670288
757.6037167,-11.8900003433228
757.6193417,-8.21000003814697
757.6349667,-6.23999977111816
757.6505917,-6.73000001907349
757.6662167,-9.36999988555908
757.6818417,-13.1700000762939
757.6974667,-17.0300006866455
757.7130917,-20.2199993133545
757.7287167,-22.4400005340576
757.7443417,-23.6800003051758
757.7599667,-24.1800003051758
757.7755917,-24.2800006866455
757.7912167,-24.3899993896484
757.8068417,-24.8700008392334
757.8224667,-25.9500007629395
757.8380917,-27.6299991607666
757.8537167,-29.5900001525879
757.8693417,-31.2999992370605
757.8849667,-32.25
757.9005917,-31.8099994659424
757.9162167,-28.5900001525879
757.9318417,-19.6599998474121
757.9474667,-1.54999995231628
757.9630917,26.4500007629395
757.9787167,59.7299995422363
757.9943417,89.3499984741211
758.0099667,106.410003662109
758.0255917,106.580001831055
758.0412167,91.6699981689453
758.0568417,67.9199981689453
758.0724667,42.7599983215332
758.0880917,21.9699993133545
758.1037167,7.98999977111816
758.1193417,-0.129999995231628
758.1349667,-5.32000017166138
758.1505917,-10.289999961853
758.1662167,-15.8999996185303
758.1818417,-20.9200000762939
758.1974667,-23.2299995422363
758.2130917,-21.6000003814697
758.2287167,-16.7900009155273
758.2443417,-11.0699996948242
758.2599667,-6.98999977111816
758.2755917,-6.03000020980835
758.2912167,-8.10999965667725
758.3068417,-11.9700002670288
758.3224667,-16.1499996185303
758.3380917,-19.5699996948242
758.3537167,-21.8199996948242
758.3693417,-22.9799995422363
758.3849667,-23.4400005340576
758.4005917,-23.6700000762939
758.4162167,-24.0300006866455
758.4318417,-24.7600002288818
758.4474667,-26.0200004577637
758.4630917,-27.75
758.4787167,-29.6299991607666
758.4943417,-31.2700004577637
758.5099667,-32.2799987792969
758.5255917,-32.2400016784668
758.5412167,-30.2800006866455
758.5568417,-24.75
758.5724667,-13.25
758.5880917,6.13000011444092
758.6037167,32.5900001525879
758.6193417,61.3499984741211
758.6349667,85.0800018310547
758.6505917,97.1999969482422
758.6662167,95.0100021362305
758.6818417,80.5699996948242
758.6974667,59.1599998474121
758.7130917,36.7799987792969
758.7287167,17.9400005340576
758.7443417,4.59000015258789
758.7599667,-3.80999994277954
758.7755917,-9.34000015258789
758.7912167,-14.1099996566772
758.8068417,-19.0100002288818
758.8224667,-23.3199996948242
758.8380917,-25.5599994659424
758.8537167,-24.9099998474121
758.8693417,-21.9200000762939
758.8849667,-18.2299995422363
758.9005917,-15.7299995422363
758.9162167,-15.6899995803833
758.9318417,-18.0499992370605
758.9474667,-21.5799999237061
758.9630917,-24.8099994659424
758.9787167,-26.8799991607666
758.9943417,-27.7099990844727
759.0099667,-27.7600002288818
759.0255917,-27.5499992370605
759.0412167,-27.3299999237061
759.0568417,-27.0100002288818
759.0724667,-26.4899997711182
759.0880917,-25.9300003051758
759.1037167,-25.7099990844727
759.1193417,-26.1499996185303
759.1349667,-27.3299999237061
759.1505917,-28.9300003051758
759.1662167,-30.2700004577637
759.1818417,-30.3400001525879
759.1974667,-27.4099998474121
759.2130917,-18.8999996185303
759.2287167,-2.41000008583069
759.2443417,21.8600006103516
759.2599667,49.7999992370605
759.2755917,74.3499984741211
759.2912167,88.6999969482422
759.3068417,89.5
759.3224667,78.0899963378906
759.3380917,59.3899993896484
759.3537167,39.3499984741211
759.3693417,22.5
759.3849667,10.7200002670288
759.4005917,3.38000011444092
759.4162167,-1.75
759.4318417,-7.13000011444092
759.4474667,-14.0100002288818
759.4630917,-21.8500003814697
759.4787167,-28.7399997711182
759.4943417,-32.7200012207031
759.5099667,-33.0499992370605
759.5255917,-30.4400005340576
759.5412167,-26.5100002288818
759.5568417,-23.0200004577637
759.5724667,-21.2800006866455
759.5880917,-21.7000007629395
759.6037167,-23.8400001525879
759.6193417,-26.7399997711182
759.6349667,-29.3799991607666
759.6505917,-31.0699996948242
759.6662167,-31.6100006103516
759.6818417,-31.2199993133545
759.6974667,-30.4699993133545
759.7130917,-30.0499992370605
759.7287167,-30.3799991607666
759.7443417,-31.3999996185303
759.7599667,-32.6699981689453
759.7755917,-33.6800003051758
759.7912167,-34.0
759.8068417,-33.3499984741211
759.8224667,-31.6499996185303
759.8380917,-28.5799999237061
759.8537167,-22.75
759.8693417,-11.4899997711182
759.8849667,7.34000015258789
759.9005917,32.75
759.9162167,59.4599990844727
759.9318417,79.9400024414063
759.9474667,88.1800003051758
759.9630917,82.6900024414063
759.9787167,66.879997253418
759.9943417,46.9199981689453
760.0099667,28.7299995422363
760.0255917,15.75
760.0412167,8.23999977111816
760.0568417,4.09999990463257
760.0724667,0.46000000834465
760.0880917,-4.42999982833862
760.1037167,-10.3500003814697
760.1193417,-15.4399995803833
760.1349667,-17.7199993133545
760.1505917,-16.4099998474121
760.1662167,-12.460000038147
760.1818417,-7.94999980926514
760.1974667,-4.82000017166138
760.2130917,-3.94000005722046
760.2287167,-5.01999998092651
760.2443417,-7.17999982833862
760.2599667,-9.71000003814697
760.2755917,-12.2200002670288
760.2912167,-14.4799995422363
760.3068417,-16.3600006103516
760.3224667,-17.8299999237061
760.3380917,-18.9500007629395
760.3537167,-19.7700004577637
760.3693417,-20.2999992370605
760.3849667,-20.5599994659424
760.4005917,-20.5900001525879
760.4162167,-20.4899997711182
760.4318417,-20.4400005340576
760.4474667,-20.4799995422363
760.4630917,-20.2199993133545
760.4787167,-18.5900001525879
760.4943417,-13.6999998092651
760.5099667,-3.29999995231628
760.5255917,13.789999961853
760.5412167,35.9000015258789
760.5568417,57.9900016784668
760.5724667,73.6900024414063
760.5880917,78.5199966430664
760.6037167,71.9599990844727
760.6193417,57.189998626709
760.6349667,39.2200012207031
760.6505917,22.6299991607666
760.6662167,10.0500001907349
760.6818417,1.69000005722046
760.6974667,-4.01000022888184
