Time(s),Value(%)
215.0064631,-15.7700004577637
215.0220881,-15.2700004577637
215.0377131,-17.3799991607666
215.0533381,-21.4200000762939
215.0689631,-25.7099990844727
215.0845881,-28.5499992370605
215.1002131,-28.9099998474121
215.1158381,-26.9500007629395
215.1314631,-23.7299995422363
215.1470881,-20.6000003814697
215.1627131,-18.25
215.1783381,-16.4899997711182
215.1939631,-14.5
215.2095881,-11.5100002288818
215.2252131,-7.42999982833862
215.2408381,-3.14000010490417
215.2564631,0.0
215.2720881,0.970000028610229
215.2877131,-0.449999988079071
215.3033381,-3.52999997138977
215.3189631,-6.75
215.3345881,-8.52000045776367
215.3502131,-7.76999998092651
215.3658381,-4.01000022888184
215.3814631,2.72000002861023
215.3970881,11.4700002670288
215.4127131,20.3700008392334
215.4283381,27.5100002288818
215.4439631,31.7000007629395
215.4595881,32.9099998474121
215.4752131,32.0499992370605
215.4908381,30.4099998474121
215.5064631,28.8799991607666
215.5220881,27.6100006103516
215.5377131,26.4599990844727
215.5533381,25.2900009155273
215.5689631,23.7399997711182
215.5845881,21.0200004577637
215.6002131,16.5699996948242
215.6158381,10.8299999237061
215.6314631,4.96000003814697
215.6470881,-0.100000001490116
215.6627131,-4.19999980926514
215.6783381,-7.71000003814697
215.6939631,-10.9700002670288
215.7095881,-13.8800001144409
215.7252131,-16.0699996948242
215.7408381,-17.4300003051758
215.7564631,-18.4400005340576
215.7720881,-19.6700000762939
215.7877131,-21.1700000762939
215.8033381,-22.4099998474121
215.8189631,-22.8999996185303
215.8345881,-22.3700008392334
215.8502131,-20.7099990844727
215.8658381,-18.0699996948242
215.8814631,-15.2399997711182
215.8970881,-13.4200000762939
215.9127131,-13.4200000762939
215.9283381,-15.0299997329712
215.9439631,-17.2900009155273
215.9595881,-19.1900005340576
215.9752131,-20.2800006866455
215.9908381,-20.6599998474121
216.0064631,-20.8600006103516
216.0220881,-21.4400005340576
216.0377131,-22.7099990844727
216.0533381,-24.5400009155273
216.0689631,-26.5100002288818
216.0845881,-28.0900001525879
216.1002131,-28.6599998474121
216.1158381,-27.7399997711182
216.1314631,-25.1499996185303
216.1470881,-20.8099994659424
216.1627131,-14.4399995803833
216.1783381,-5.78000020980835
216.1939631,4.71000003814697
216.2095881,15.5500001907349
216.2252131,24.7600002288818
216.2408381,30.8299999237061
216.2564631,33.3400001525879
216.2720881,32.8499984741211
216.2877131,30.7000007629395
216.3033381,28.4300003051758
216.3189631,27.1299991607666
216.3345881,26.8899993896484
216.3502131,26.7000007629395
216.3658381,25.2199993133545
216.3814631,21.7800006866455
216.3970881,16.9799995422363
216.4127131,12.2799997329712
216.4283381,9.11999988555908
216.4439631,8.15999984741211
216.4595881,8.82999992370605
216.4752131,9.59000015258789
216.4908381,8.81999969482422
216.5064631,5.92000007629395
216.5220881,1.60000002384186
216.5377131,-2.66000008583069
216.5533381,-5.59000015258789
216.5689631,-6.88000011444092
216.5845881,-7.15999984741211
216.6002131,-7.34999990463257
216.6158381,-8.02000045776367
216.6314631,-9.36999988555908
216.6470881,-11.0600004196167
216.6627131,-12.1400003433228
216.6783381,-11.4799995422363
216.6939631,-8.73999977111816
216.7095881,-4.84999990463257
216.7252131,-1.32000005245209
216.7408381,0.819999992847443
216.7564631,1.5
216.7720881,1.00999999046326
216.7877131,-0.479999989271164
216.8033381,-2.73000001907349
216.8189631,-5.19999980926514
216.8345881,-7.30000019073486
216.8502131,-8.77999973297119
216.8658381,-9.72000026702881
216.8814631,-10.1800003051758
216.8970881,-9.63000011444092
216.9127131,-6.98000001907349
216.9283381,-1.35000002384186
216.9439631,7.09000015258789
216.9595881,17.1900005340576
216.9752131,27.2600002288818
216.9908381,35.6399993896484
217.0064631,41.0800018310547
217.0220881,43.2700004577637
217.0377131,43.0299987792969
217.0533381,41.8400001525879
217.0689631,40.5
217.0845881,38.5299987792969
217.1002131,34.9900016784668
217.1158381,29.5300006866455
217.1314631,22.8299999237061
217.1470881,16.0400009155273
217.1627131,9.98999977111816
217.1783381,4.82999992370605
217.1939631,0.569999992847443
217.2095881,-2.5
217.2252131,-4.3899998664856
217.2408381,-5.57999992370605
217.2564631,-6.55000019073486
217.2720881,-7.57000017166138
217.2877131,-9.03999996185303
217.3033381,-11.3500003814697
217.3189631,-14.289999961853
217.3345881,-16.9699993133545
217.3502131,-18.5100002288818
217.3658381,-18.6299991607666
217.3814631,-17.8099994659424
217.3970881,-16.9200000762939
217.4127131,-16.4500007629395
217.4283381,-16.3299999237061
217.4439631,-16.5
217.4595881,-17.0900001525879
217.4752131,-18.0699996948242
217.4908381,-19.1100006103516
217.5064631,-19.8700008392334
217.5220881,-20.0
217.5377131,-19.0799999237061
217.5533381,-16.8700008392334
217.5689631,-13.710000038147
217.5845881,-10.4300003051758
217.6002131,-7.78999996185303
217.6158381,-6.07000017166138
217.6314631,-5.07999992370605
217.6470881,-4.59000015258789
217.6627131,-4.3899998664856
217.6783381,-3.8199999332428
217.6939631,-1.36000001430511
217.7095881,4.78000020980835
217.7252131,15.25
217.7408381,28.1700000762939
217.7564631,39.7599983215332
217.7720881,46.4199981689453
217.7877131,46.810001373291
217.8033381,42.1699981689453
217.8189631,35.2400016784668
217.8345881,28.5200004577637
217.8502131,23.2999992370605
217.8658381,19.6499996185303
217.8814631,17.0699996948242
217.8970881,14.6199998855591
217.9127131,11.1000003814697
217.9283381,5.6100001335144
217.9439631,-1.5900000333786
217.9595881,-8.90999984741211
217.9752131,-14.3299999237061
217.9908381,-16.6399993896484
218.0064631,-16.1200008392334
218.0220881,-14.0500001907349
218.0377131,-11.8599996566772
218.0533381,-10.3199996948242
218.0689631,-9.64000034332275
218.0845881,-9.85999965667725
218.1002131,-11.1800003051758
218.1158381,-13.7700004577637
218.1314631,-17.2299995422363
218.1470881,-20.5699996948242
218.1627131,-22.8299999237061
218.1783381,-23.7600002288818
218.1939631,-23.9099998474121
218.2095881,-23.8600006103516
218.2252131,-23.5900001525879
218.2408381,-22.8400001525879
218.2564631,-21.5100002288818
218.2720881,-19.6000003814697
218.2877131,-17.2800006866455
218.3033381,-15.1999998092651
218.3189631,-14.1199998855591
218.3345881,-14.1800003051758
218.3502131,-14.6499996185303
218.3658381,-14.7299995422363
218.3814631,-14.3000001907349
218.3970881,-13.8199996948242
218.4127131,-13.5200004577637
218.4283381,-12.9700002670288
218.4439631,-11.0799999237061
218.4595881,-6.80000019073486
218.4752131,0.180000007152557
218.4908381,9.28999996185303
218.5064631,18.9899997711182
218.5220881,27.3600006103516
218.5377131,33.0499992370605
218.5533381,35.8199996948242
218.5689631,36.1800003051758
218.5845881,34.6800003051758
218.6002131,31.8299999237061
218.6158381,28.25
218.6314631,24.4400005340576
218.6470881,20.4400005340576
218.6627131,16.0900001525879
218.6783381,11.4300003051758
218.6939631,6.69000005722046
218.7095881,2.01999998092651
218.7252131,-2.5699999332428
218.7408381,-7.13000011444092
218.7564631,-11.2799997329712
218.7720881,-14.0699996948242
218.7877131,-14.3100004196167
218.8033381,-11.6999998092651
218.8189631,-7.46999979019165
218.8345881,-3.84999990463257
218.8502131,-2.74000000953674
218.8658381,-4.69999980926514
218.8814631,-8.89999961853027
218.8970881,-13.7299995422363
218.9127131,-17.5300006866455
218.9283381,-19.3299999237061
218.9439631,-19.2900009155273
218.9595881,-18.3600006103516
218.9752131,-17.3899993896484
218.9908381,-16.8600006103516
219.0064631,-17.0200004577637
219.0220881,-17.6499996185303
219.0377131,-18.0100002288818
219.0533381,-17.2700004577637
219.0689631,-15.3100004196167
219.0845881,-13.0100002288818
219.1002131,-11.5900001525879
219.1158381,-11.75
219.1314631,-13.5600004196167
219.1470881,-16.7299995422363
219.1627131,-20.3500003814697
219.1783381,-22.7199993133545
219.1939631,-21.9599990844727
219.2095881,-16.8400001525879
219.2252131,-7.30000019073486
219.2408381,5.63000011444092
219.2564631,20.0900001525879
219.2720881,33.7299995422363
219.2877131,44.4300003051758
219.3033381,51.0
219.3189631,53.2299995422363
219.3345881,51.5400009155273
219.3502131,46.7099990844727
219.3658381,40.0699996948242
219.3814631,33.6199989318848
219.3970881,29.2399997711182
219.4127131,27.2600002288818
219.4283381,26.2900009155273
219.4439631,24.5799999237061
219.4595881,21.2199993133545
219.4752131,16.3999996185303
219.4908381,11.1099996566772
219.5064631,6.51000022888184
219.5220881,2.97000002861023
219.5377131,-0.239999994635582
219.5533381,-4.21999979019165
219.5689631,-9.26000022888184
219.5845881,-14.4899997711182
219.6002131,-18.4400005340576
219.6158381,-20.0200004577637
219.6314631,-19.1700000762939
219.6470881,-17.0499992370605
219.6627131,-15.3400001525879
219.6783381,-15.0200004577637
219.6939631,-15.9099998474121
219.7095881,-17.2199993133545
219.7252131,-18.6299991607666
219.7408381,-20.3099994659424
219.7564631,-22.3199996948242
219.7720881,-24.1000003814697
219.7877131,-24.7700004577637
219.8033381,-23.75
219.8189631,-21.1200008392334
219.8345881,-17.5699996948242
219.8502131,-14.1400003433228
219.8658381,-11.960000038147
219.8814631,-11.8699998855591
219.8970881,-13.8999996185303
219.9127131,-16.9699993133545
219.9283381,-19.2900009155273
219.9439631,-19.2199993133545
219.9595881,-15.9200000762939
219.9752131,-9.52000045776367
219.9908381,-0.959999978542328
220.0064631,8.48999977111816
220.0220881,18.0200004577637
220.0377131,27.1800003051758
220.0533381,35.2900009155273
220.0689631,41.4199981689453
220.0845881,44.8899993896484
220.1002131,45.7400016784668
220.1158381,44.4000015258789
220.1314631,41.3300018310547
220.1470881,36.9599990844727
220.1627131,31.7800006866455
220.1783381,26.2999992370605
220.1939631,20.9099998474121
220.2095881,15.8199996948242
220.2252131,11.1800003051758
220.2408381,7.26000022888184
220.2564631,4.32999992370605
220.2720881,2.40000009536743
220.2877131,1.01999998092651
220.3033381,-0.219999998807907
220.3189631,-1.42999994754791
220.3345881,-2.65000009536743
220.3502131,-4.34000015258789
220.3658381,-7.13000011444092
220.3814631,-11.3599996566772
220.3970881,-16.8400001525879
220.4127131,-22.8500003814697
220.4283381,-28.2199993133545
220.4439631,-31.7700004577637
220.4595881,-32.939998626709
220.4752131,-31.9500007629395
220.4908381,-29.5300006866455
220.5064631,-26.7399997711182
220.5220881,-24.7199993133545
220.5377131,-24.0599994659424
220.5533381,-24.2399997711182
220.5689631,-24.0599994659424
220.5845881,-22.5400009155273
220.6002131,-19.5200004577637
220.6158381,-15.5900001525879
220.6314631,-11.6000003814697
220.6470881,-8.40999984741211
220.6627131,-6.67000007629395
220.6783381,-6.57000017166138
220.6939631,-7.55999994277954
220.7095881,-8.25
220.7252131,-6.69999980926514
220.7408381,-1.25
220.7564631,8.17000007629395
220.7720881,19.6200008392334
220.7877131,30.0699996948242
220.8033381,37.2000007629395
220.8189631,40.5400009155273
220.8345881,41.2700004577637
220.8502131,41.2099990844727
220.8658381,41.6399993896484
220.8814631,42.6300010681152
220.8970881,43.310001373291
220.9127131,42.5499992370605
220.9283381,39.5800018310547
220.9439631,34.2900009155273
220.9595881,27.1900005340576
220.9752131,19.0100002288818
220.9908381,10.5299997329712
221.0064631,2.71000003814697
221.0220881,-3.3199999332428
221.0377131,-6.96000003814697
221.0533381,-8.60999965667725
221.0689631,-9.46000003814697
221.0845881,-10.6700000762939
221.1002131,-12.7700004577637
221.1158381,-15.3599996566772
221.1314631,-17.3299999237061
221.1470881,-17.6499996185303
221.1627131,-16.2000007629395
221.1783381,-13.8400001525879
221.1939631,-11.8199996948242
221.2095881,-10.960000038147
221.2252131,-11.3699998855591
221.2408381,-12.5200004577637
221.2564631,-13.8900003433228
221.2720881,-15.5799999237061
221.2877131,-18.0400009155273
221.3033381,-21.2399997711182
221.3189631,-24.2700004577637
221.3345881,-25.9400005340576
221.3502131,-25.6299991607666
221.3658381,-23.6700000762939
221.3814631,-20.8899993896484
221.3970881,-18.0
221.4127131,-15.539999961853
221.4283381,-14.2299995422363
221.4439631,-14.6800003051758
221.4595881,-16.6900005340576
221.4752131,-18.9699993133545
221.4908381,-19.7099990844727
221.5064631,-17.6000003814697
221.5220881,-12.1899995803833
221.5377131,-3.71000003814697
221.5533381,7.01999998092651
221.5689631,18.6299991607666
221.5845881,29.5900001525879
221.6002131,38.6800003051758
221.6158381,45.0200004577637
221.6314631,48.1300010681152
221.6470881,48.189998626709
221.6627131,46.0200004577637
221.6783381,42.5299987792969
221.6939631,38.3899993896484
221.7095881,34.2099990844727
221.7252131,30.4799995422363
221.7408381,27.1299991607666
221.7564631,23.5
221.7720881,19.0400009155273
221.7877131,14.1700000762939
221.8033381,10.1999998092651
221.8189631,8.13000011444092
221.8345881,7.57999992370605
221.8502131,7.01000022888184
221.8658381,5.0
221.8814631,1.16999995708466
221.8970881,-3.95000004768372
221.9127131,-9.59000015258789
221.9283381,-15.0500001907349
221.9439631,-19.7999992370605
221.9595881,-23.3899993896484
221.9752131,-25.5499992370605
221.9908381,-26.4099998474121
222.0064631,-26.4899997711182
222.0220881,-26.4799995422363
222.0377131,-26.8899993896484
222.0533381,-27.9599990844727
222.0689631,-29.5
222.0845881,-30.8700008392334
222.1002131,-31.1499996185303
222.1158381,-29.8500003814697
222.1314631,-27.2000007629395
222.1470881,-23.8999996185303
222.1627131,-20.4699993133545
222.1783381,-17.1499996185303
222.1939631,-14.2799997329712
222.2095881,-12.4899997711182
222.2252131,-12.2700004577637
222.2408381,-13.4200000762939
222.2564631,-14.9899997711182
222.2720881,-15.7299995422363
222.2877131,-14.3599996566772
222.3033381,-9.78999996185303
222.3189631,-1.49000000953674
222.3345881,10.0299997329712
222.3502131,23.1200008392334
222.3658381,35.4700012207031
222.3814631,45.0200004577637
222.3970881,50.7099990844727
222.4127131,52.6399993896484
222.4283381,51.6599998474121
222.4439631,48.939998626709
222.4595881,45.5999984741211
222.4752131,42.1100006103516
222.4908381,38.3199996948242
222.5064631,33.8300018310547
222.5220881,28.3099994659424
222.5377131,21.6700000762939
222.5533381,14.1199998855591
222.5689631,6.32000017166138
222.5845881,-0.790000021457672
222.6002131,-6.3899998664856
222.6158381,-10.1599998474121
222.6314631,-12.4300003051758
222.6470881,-13.7299995422363
222.6627131,-14.3900003433228
222.6783381,-14.6099996566772
222.6939631,-14.4700002670288
222.7095881,-13.8599996566772
222.7252131,-12.7399997711182
222.7408381,-11.5
222.7564631,-10.8999996185303
222.7720881,-11.5799999237061
222.7877131,-13.5500001907349
222.8033381,-16.1200008392334
222.8189631,-18.3600006103516
222.8345881,-19.7099990844727
222.8502131,-20.2999992370605
222.8658381,-20.5300006866455
222.8814631,-20.4400005340576
222.8970881,-19.7399997711182
222.9127131,-18.4699993133545
222.9283381,-17.0599994659424
222.9439631,-15.8699998855591
222.9595881,-14.9700002670288
222.9752131,-14.25
222.9908381,-13.5799999237061
223.0064631,-12.8199996948242
223.0220881,-11.9799995422363
223.0377131,-11.2399997711182
223.0533381,-10.789999961853
223.0689631,-10.539999961853
223.0845881,-10.0900001525879
223.1002131,-8.81999969482422
223.1158381,-5.8600001335144
223.1314631,-0.430000007152557
223.1470881,7.57000017166138
223.1627131,17.1399993896484
223.1783381,26.5200004577637
223.1939631,34.060001373291
223.2095881,38.9700012207031
223.2252131,41.4300003051758
223.2408381,42.1800003051758
223.2564631,41.9300003051758
223.2720881,41.0099983215332
223.2877131,39.3699989318848
223.3033381,36.8600006103516
223.3189631,33.4900016784668
223.3345881,29.2700004577637
223.3502131,24.0300006866455
223.3658381,17.5100002288818
223.3814631,9.65999984741211
223.3970881,1.05999994277954
223.4127131,-7.05000019073486
223.4283381,-13.3900003433228
223.4439631,-17.2099990844727
223.4595881,-18.6700000762939
223.4752131,-18.6200008392334
223.4908381,-17.9500007629395
223.5064631,-17.0499992370605
223.5220881,-15.9200000762939
223.5377131,-14.789999961853
223.5533381,-14.289999961853
223.5689631,-15.0900001525879
223.5845881,-17.4500007629395
223.6002131,-20.9599990844727
223.6158381,-24.7099990844727
223.6314631,-27.6700000762939
223.6470881,-29.1399993896484
223.6627131,-29.0499992370605
223.6783381,-27.9899997711182
223.6939631,-26.8799991607666
223.7095881,-26.4899997711182
223.7252131,-27.0
223.7408381,-27.8700008392334
223.7564631,-28.2000007629395
223.7720881,-27.0200004577637
223.7877131,-23.7999992370605
223.8033381,-18.7399997711182
223.8189631,-12.9200000762939
223.8345881,-7.92000007629395
223.8502131,-4.96999979019165
223.8658381,-4.1399998664856
223.8814631,-4.23000001907349
223.8970881,-3.5
223.9127131,-0.400000005960464
223.9283381,6.01000022888184
223.9439631,15.8199996948242
223.9595881,27.9799995422363
223.9752131,40.1800003051758
223.9908381,49.4500007629395
224.0064631,53.5900001525879
224.0220881,52.3400001525879
224.0377131,47.1800003051758
224.0533381,40.4099998474121
224.0689631,34.1300010681152
224.0845881,29.5599994659424
224.1002131,26.7399997711182
224.1158381,24.8199996948242
224.1314631,22.7299995422363
224.1470881,19.8400001525879
224.1627131,16.2299995422363
224.1783381,12.1800003051758
224.1939631,7.67999982833862
224.2095881,2.47000002861023
224.2252131,-3.28999996185303
224.2408381,-8.64999961853027
224.2564631,-12.210000038147
224.2720881,-13.1300001144409
224.2877131,-11.8400001525879
224.3033381,-9.89000034332275
224.3189631,-9.14000034332275
224.3345881,-10.8100004196167
224.3502131,-14.8199996948242
224.3658381,-19.8899993896484
224.3814631,-24.3099994659424
224.3970881,-26.9099998474121
224.4127131,-27.5799999237061
224.4283381,-26.9300003051758
224.4439631,-25.5300006866455
224.4595881,-23.4599990844727
224.4752131,-20.5
224.4908381,-16.8400001525879
224.5064631,-13.1199998855591
224.5220881,-9.9399995803833
224.5377131,-7.5
224.5533381,-5.84999990463257
224.5689631,-4.96999979019165
224.5845881,-4.73999977111816
224.6002131,-4.82000017166138
224.6158381,-4.80000019073486
224.6314631,-4.59999990463257
224.6470881,-4.57000017166138
224.6627131,-5.11999988555908
224.6783381,-6.44000005722046
224.6939631,-8.30000019073486
224.7095881,-9.65999984741211
224.7252131,-8.76000022888184
224.7408381,-3.97000002861023
224.7564631,5.15999984741211
224.7720881,17.3899993896484
224.7877131,29.8700008392334
224.8033381,39.4300003051758
224.8189631,44.1500015258789
224.8345881,44.060001373291
224.8502131,40.7099990844727
224.8658381,36.1800003051758
224.8814631,32.1199989318848
224.8970881,29.0799999237061
224.9127131,26.4400005340576
224.9283381,23.0300006866455
224.9439631,18.2099990844727
224.9595881,12.6599998474121
224.9752131,8.02999973297119
224.9908381,5.3899998664856
225.0064631,4.19000005722046
225.0220881,2.91000008583069
225.0377131,0.629999995231628
225.0533381,-2.19000005722046
225.0689631,-4.40999984741211
225.0845881,-5.48999977111816
225.1002131,-6.17000007629395
225.1158381,-7.98000001907349
225.1314631,-11.7799997329712
225.1470881,-16.9099998474121
225.1627131,-21.5900001525879
225.1783381,-24.1200008392334
225.1939631,-23.9799995422363
225.2095881,-22.1900005340576
225.2252131,-20.4500007629395
225.2408381,-19.8899993896484
225.2564631,-20.5300006866455
225.2720881,-21.5599994659424
225.2877131,-21.8299999237061
225.3033381,-20.4699993133545
225.3189631,-17.3199996948242
225.3345881,-12.8800001144409
225.3502131,-7.98999977111816
225.3658381,-3.51999998092651
225.3814631,-0.0199999995529652
225.3970881,2.40000009536743
225.4127131,3.84999990463257
225.4283381,4.30000019073486
225.4439631,3.89000010490417
225.4595881,3.09999990463257
225.4752131,2.48000001907349
225.4908381,2.25999999046326
225.5064631,2.50999999046326
225.5220881,3.47000002861023
225.5377131,5.69000005722046
225.5533381,9.52999973297119
225.5689631,14.789999961853
225.5845881,20.5
225.6002131,25.3600006103516
225.6158381,28.0900001525879
225.6314631,27.9799995422363
225.6470881,25.3700008392334
225.6627131,21.5
225.6783381,17.75
225.6939631,15.1099996566772
225.7095881,13.8900003433228
