Time(s),Value(%)
215.0064631,-4.69000005722046
215.0220881,-1.46000003814697
215.0377131,1.50999999046326
215.0533381,4.13000011444092
215.0689631,6.34000015258789
215.0845881,8.1899995803833
215.1002131,9.6899995803833
215.1158381,10.8800001144409
215.1314631,11.8199996948242
215.1470881,12.5699996948242
215.1627131,13.2299995422363
215.1783381,13.8500003814697
215.1939631,14.4700002670288
215.2095881,15.1199998855591
215.2252131,15.8299999237061
215.2408381,16.6499996185303
215.2564631,17.5699996948242
215.2720881,18.4899997711182
215.2877131,19.2700004577637
215.3033381,19.7900009155273
215.3189631,20.0100002288818
215.3345881,19.9599990844727
215.3502131,19.7099990844727
215.3658381,19.2800006866455
215.3814631,18.6599998474121
215.3970881,17.8600006103516
215.4127131,16.9799995422363
215.4283381,16.1700000762939
215.4439631,15.5299997329712
215.4595881,15.0799999237061
215.4752131,14.8000001907349
215.4908381,14.7399997711182
215.5064631,15.1599998474121
215.5220881,16.3299999237061
215.5377131,18.2900009155273
215.5533381,20.8099994659424
215.5689631,23.5799999237061
215.5845881,26.2999992370605
215.6002131,28.7800006866455
215.6158381,30.8400001525879
215.6314631,32.2700004577637
215.6470881,32.9300003051758
215.6627131,32.939998626709
215.6783381,32.5900001525879
215.6939631,32.1399993896484
215.7095881,31.7299995422363
215.7252131,31.3400001525879
215.7408381,30.9099998474121
215.7564631,30.3899993896484
215.7720881,29.6900005340576
215.7877131,28.6900005340576
215.8033381,27.2800006866455
215.8189631,25.4899997711182
215.8345881,23.4400005340576
215.8502131,21.3199996948242
215.8658381,19.2700004577637
215.8814631,17.3400001525879
215.8970881,15.4899997711182
215.9127131,13.5600004196167
215.9283381,11.4099998474121
215.9439631,8.97000026702881
215.9595881,6.30999994277954
215.9752131,3.49000000953674
215.9908381,0.540000021457672
216.0064631,-2.4300000667572
216.0220881,-5.30000019073486
216.0377131,-7.80999994277954
216.0533381,-9.77000045776367
216.0689631,-11.1400003433228
216.0845881,-12.0
216.1002131,-12.5100002288818
216.1158381,-12.8299999237061
216.1314631,-13.1800003051758
216.1470881,-13.789999961853
216.1627131,-14.7399997711182
216.1783381,-15.9499998092651
216.1939631,-17.25
216.2095881,-18.4400005340576
216.2252131,-19.3700008392334
216.2408381,-19.8799991607666
216.2564631,-19.8700008392334
216.2720881,-19.3199996948242
216.2877131,-18.3199996948242
216.3033381,-17.0900001525879
216.3189631,-15.8000001907349
216.3345881,-14.5100002288818
216.3502131,-13.0799999237061
216.3658381,-11.3100004196167
216.3814631,-9.11999988555908
216.3970881,-6.61999988555908
216.4127131,-4.05000019073486
216.4283381,-1.60000002384186
216.4439631,0.560000002384186
216.4595881,2.3199999332428
216.4752131,3.45000004768372
216.4908381,3.76999998092651
216.5064631,3.3199999332428
216.5220881,2.29999995231628
216.5377131,1.03999996185303
216.5533381,-0.180000007152557
216.5689631,-1.25
216.5845881,-2.15000009536743
216.6002131,-2.94000005722046
216.6158381,-3.70000004768372
216.6314631,-4.51999998092651
216.6470881,-5.42000007629395
216.6627131,-6.3899998664856
216.6783381,-7.40999984741211
216.6939631,-8.46000003814697
216.7095881,-9.55000019073486
216.7252131,-10.6700000762939
216.7408381,-11.7600002288818
216.7564631,-12.7700004577637
216.7720881,-13.6000003814697
216.7877131,-14.1700000762939
216.8033381,-14.4300003051758
216.8189631,-14.3800001144409
216.8345881,-14.0900001525879
216.8502131,-13.6700000762939
216.8658381,-13.1999998092651
216.8814631,-12.7799997329712
216.8970881,-12.4799995422363
216.9127131,-12.3999996185303
216.9283381,-12.6099996566772
216.9439631,-13.0900001525879
216.9595881,-13.6800003051758
216.9752131,-14.1099996566772
216.9908381,-14.1599998474121
217.0064631,-13.7799997329712
217.0220881,-13.0500001907349
217.0377131,-12.1000003814697
217.0533381,-10.9499998092651
217.0689631,-9.46000003814697
217.0845881,-7.51999998092651
217.1002131,-5.23000001907349
217.1158381,-2.79999995231628
217.1314631,-0.370000004768372
217.1470881,2.05999994277954
217.1627131,4.55000019073486
217.1783381,6.94999980926514
217.1939631,8.97000026702881
217.2095881,10.3100004196167
217.2252131,10.9499998092651
217.2408381,11.0600004196167
217.2564631,10.7700004577637
217.2720881,10.1599998474121
217.2877131,9.26000022888184
217.3033381,8.14999961853027
217.3189631,6.92999982833862
217.3345881,5.6399998664856
217.3502131,4.21999979019165
217.3658381,2.58999991416931
217.3814631,0.720000028610229
217.3970881,-1.3400000333786
217.4127131,-3.51999998092651
217.4283381,-5.76000022888184
217.4439631,-7.98000001907349
217.4595881,-10.1000003814697
217.4752131,-12.0600004196167
217.4908381,-13.8299999237061
217.5064631,-15.4499998092651
217.5220881,-16.9899997711182
217.5377131,-18.4400005340576
217.5533381,-19.7600002288818
217.5689631,-20.8999996185303
217.5845881,-21.8500003814697
217.6002131,-22.6499996185303
217.6158381,-23.3500003814697
217.6314631,-24.0100002288818
217.6470881,-24.6499996185303
217.6627131,-25.2900009155273
217.6783381,-25.9899997711182
217.6939631,-26.8600006103516
217.7095881,-28.0200004577637
217.7252131,-29.4799995422363
217.7408381,-31.0799999237061
217.7564631,-32.560001373291
217.7720881,-33.6199989318848
217.7877131,-33.9500007629395
217.8033381,-33.3800010681152
217.8189631,-31.8700008392334
217.8345881,-29.5699996948242
217.8502131,-26.7900009155273
217.8658381,-23.8600006103516
217.8814631,-21.0699996948242
217.8970881,-18.6499996185303
217.9127131,-16.7800006866455
217.9283381,-15.5600004196167
217.9439631,-14.8999996185303
217.9595881,-14.5799999237061
217.9752131,-14.2600002288818
217.9908381,-13.6800003051758
218.0064631,-12.75
218.0220881,-11.5699996948242
218.0377131,-10.289999961853
218.0533381,-9.02000045776367
218.0689631,-7.76000022888184
218.0845881,-6.42999982833862
218.1002131,-5.07000017166138
218.1158381,-3.76999998092651
218.1314631,-2.66000008583069
218.1470881,-1.75
218.1627131,-1.04999995231628
218.1783381,-0.589999973773956
218.1939631,-0.560000002384186
218.2095881,-1.1599999666214
218.2252131,-2.4300000667572
218.2408381,-4.23000001907349
218.2564631,-6.3899998664856
218.2720881,-8.76000022888184
218.2877131,-11.1999998092651
218.3033381,-13.5200004577637
218.3189631,-15.4700002670288
218.3345881,-16.9200000762939
218.3502131,-17.9300003051758
218.3658381,-18.6700000762939
218.3814631,-19.2399997711182
218.3970881,-19.6100006103516
218.4127131,-19.7199993133545
218.4283381,-19.5799999237061
218.4439631,-19.2399997711182
218.4595881,-18.6800003051758
218.4752131,-17.8299999237061
218.4908381,-16.5699996948242
218.5064631,-14.8400001525879
218.5220881,-12.6199998855591
218.5377131,-9.81999969482422
218.5533381,-6.34000015258789
218.5689631,-2.26999998092651
218.5845881,2.08999991416931
218.6002131,6.40000009536743
218.6158381,10.5200004577637
218.6314631,14.6499996185303
218.6470881,19.0400009155273
218.6627131,23.6000003814697
218.6783381,27.8799991607666
218.6939631,31.4799995422363
218.7095881,34.25
218.7252131,36.310001373291
218.7408381,37.8699989318848
218.7564631,38.9900016784668
218.7720881,39.6699981689453
218.7877131,39.9000015258789
218.8033381,39.8199996948242
218.8189631,39.6699981689453
218.8345881,39.7000007629395
218.8502131,39.9700012207031
218.8658381,40.3300018310547
218.8814631,40.4199981689453
218.8970881,39.8800010681152
218.9127131,38.5800018310547
218.9283381,36.5900001525879
218.9439631,34.0999984741211
218.9595881,31.2900009155273
218.9752131,28.2700004577637
218.9908381,25.0900001525879
219.0064631,21.8299999237061
219.0220881,18.6100006103516
219.0377131,15.5500001907349
219.0533381,12.6499996185303
219.0689631,9.81999969482422
219.0845881,6.90999984741211
219.1002131,3.9300000667572
219.1158381,1.0
219.1314631,-1.70000004768372
219.1470881,-4.1100001335144
219.1627131,-6.23000001907349
219.1783381,-8.13000011444092
219.1939631,-9.89999961853027
219.2095881,-11.6199998855591
219.2252131,-13.3000001907349
219.2408381,-14.9099998474121
219.2564631,-16.4300003051758
219.2720881,-17.8400001525879
219.2877131,-19.1000003814697
219.3033381,-20.1399993896484
219.3189631,-20.7900009155273
219.3345881,-20.7999992370605
219.3502131,-19.9300003051758
219.3658381,-18.1100006103516
219.3814631,-15.5200004577637
219.3970881,-12.5299997329712
219.4127131,-9.52999973297119
219.4283381,-6.76999998092651
219.4439631,-4.34000015258789
219.4595881,-2.17000007629395
219.4752131,-0.119999997317791
219.4908381,1.92999994754791
219.5064631,4.05999994277954
219.5220881,6.32999992370605
219.5377131,8.86999988555908
219.5533381,11.8000001907349
219.5689631,15.0699996948242
219.5845881,18.3799991607666
219.6002131,21.2199993133545
219.6158381,23.3199996948242
219.6314631,24.8199996948242
219.6470881,26.1499996185303
219.6627131,27.5400009155273
219.6783381,28.8999996185303
219.6939631,30.0100002288818
219.7095881,30.7199993133545
219.7252131,31.0400009155273
219.7408381,31.0200004577637
219.7564631,30.7000007629395
219.7720881,30.0799999237061
219.7877131,29.1000003814697
219.8033381,27.5900001525879
219.8189631,25.1100006103516
219.8345881,21.25
219.8502131,16.0100002288818
219.8658381,9.77000045776367
219.8814631,2.9300000667572
219.8970881,-4.42999982833862
219.9127131,-12.6899995803833
219.9283381,-21.9899997711182
219.9439631,-31.7800006866455
219.9595881,-40.9500007629395
219.9752131,-48.5900001525879
219.9908381,-54.4500007629395
220.0064631,-58.8199996948242
220.0220881,-61.939998626709
220.0377131,-63.6100006103516
220.0533381,-63.4099998474121
220.0689631,-61.189998626709
220.0845881,-57.0699996948242
220.1002131,-51.1399993896484
220.1158381,-43.4599990844727
220.1314631,-34.4000015258789
220.1470881,-24.6599998474121
220.1627131,-15.0200004577637
220.1783381,-5.94000005722046
220.1939631,2.55999994277954
220.2095881,10.5500001907349
220.2252131,17.5799999237061
220.2408381,22.9799995422363
220.2564631,26.4099998474121
220.2720881,28.1299991607666
220.2877131,28.8199996948242
220.3033381,29.1599998474121
220.3189631,29.5400009155273
220.3345881,30.0100002288818
220.3502131,30.4300003051758
220.3658381,30.6000003814697
220.3814631,30.3400001525879
220.3970881,29.5499992370605
220.4127131,28.2700004577637
220.4283381,26.5499992370605
220.4439631,24.3600006103516
220.4595881,21.5900001525879
220.4752131,18.25
220.4908381,14.5799999237061
220.5064631,10.9899997711182
220.5220881,7.8600001335144
220.5377131,5.3600001335144
220.5533381,3.44000005722046
220.5689631,1.86000001430511
220.5845881,0.349999994039536
220.6002131,-1.30999994277954
220.6158381,-3.24000000953674
220.6314631,-5.42000007629395
220.6470881,-7.76000022888184
220.6627131,-10.1999998092651
220.6783381,-12.7200002670288
220.6939631,-15.289999961853
220.7095881,-17.7700004577637
220.7252131,-19.9500007629395
220.7408381,-21.6499996185303
220.7564631,-22.8799991607666
220.7720881,-23.75
220.7877131,-24.3500003814697
220.8033381,-24.7000007629395
220.8189631,-24.8199996948242
220.8345881,-24.7299995422363
220.8502131,-24.4599990844727
220.8658381,-23.8500003814697
220.8814631,-22.5100002288818
220.8970881,-20.0400009155273
220.9127131,-16.3500003814697
220.9283381,-11.6599998474121
220.9439631,-6.17000007629395
220.9595881,-0.0599999986588955
220.9752131,6.40000009536743
220.9908381,12.7200002670288
221.0064631,18.2000007629395
221.0220881,22.2999992370605
221.0377131,24.8899993896484
221.0533381,26.2299995422363
221.0689631,26.5499992370605
221.0845881,26.0
221.1002131,24.7299995422363
221.1158381,23.0100002288818
221.1314631,21.0900001525879
221.1470881,19.2000007629395
221.1627131,17.3700008392334
221.1783381,15.5699996948242
221.1939631,13.7299995422363
221.2095881,11.8400001525879
221.2252131,9.89999961853027
221.2408381,7.96999979019165
221.2564631,6.07999992370605
221.2720881,4.28000020980835
221.2877131,2.58999991416931
221.3033381,1.00999999046326
221.3189631,-0.469999998807907
221.3345881,-1.88999998569489
221.3502131,-3.25
221.3658381,-4.63000011444092
221.3814631,-6.19999980926514
221.3970881,-8.11999988555908
221.4127131,-10.4300003051758
221.4283381,-12.9700002670288
221.4439631,-15.5500001907349
221.4595881,-18.1100006103516
221.4752131,-20.7999992370605
221.4908381,-23.8299999237061
221.5064631,-27.1000003814697
221.5220881,-30.2800006866455
221.5377131,-33.0099983215332
221.5533381,-35.1300010681152
221.5689631,-36.7000007629395
221.5845881,-37.8199996948242
221.6002131,-38.5200004577637
221.6158381,-38.7900009155273
221.6314631,-38.5999984741211
221.6470881,-37.9900016784668
221.6627131,-36.9799995422363
221.6783381,-35.6100006103516
221.6939631,-33.9199981689453
221.7095881,-31.9699993133545
221.7252131,-29.7299995422363
221.7408381,-27.1000003814697
221.7564631,-24.0499992370605
221.7720881,-20.6599998474121
221.7877131,-17.2199993133545
221.8033381,-14.039999961853
221.8189631,-11.3299999237061
221.8345881,-9.07999992370605
221.8502131,-7.15999984741211
221.8658381,-5.46000003814697
221.8814631,-3.97000002861023
221.8970881,-2.76999998092651
221.9127131,-1.87999999523163
221.9283381,-1.24000000953674
221.9439631,-0.689999997615814
221.9595881,-0.0799999982118607
221.9752131,0.649999976158142
221.9908381,1.52999997138977
222.0064631,2.5
222.0220881,3.50999999046326
222.0377131,4.51999998092651
222.0533381,5.44999980926514
222.0689631,6.25
222.0845881,6.8899998664856
222.1002131,7.3899998664856
222.1158381,7.78000020980835
222.1314631,8.14999961853027
222.1470881,8.60999965667725
222.1627131,9.3100004196167
222.1783381,10.3900003433228
222.1939631,11.8900003433228
222.2095881,13.8000001907349
222.2252131,16.2099990844727
222.2408381,19.2399997711182
222.2564631,22.7999992370605
222.2720881,26.6000003814697
222.2877131,30.1800003051758
222.3033381,33.1800003051758
222.3189631,35.5099983215332
222.3345881,37.2000007629395
222.3502131,38.2200012207031
222.3658381,38.4900016784668
222.3814631,38.0299987792969
222.3970881,37.0200004577637
222.4127131,35.7999992370605
222.4283381,34.8699989318848
222.4439631,34.8499984741211
222.4595881,36.2099990844727
222.4752131,38.9500007629395
222.4908381,42.6300010681152
222.5064631,46.6699981689453
222.5220881,50.5999984741211
222.5377131,54.1199989318848
222.5533381,56.8800010681152
222.5689631,58.3800010681152
222.5845881,58.2299995422363
222.6002131,56.5
222.6158381,53.75
222.6314631,50.5999984741211
222.6470881,47.4799995422363
222.6627131,44.560001373291
222.6783381,41.8300018310547
222.6939631,39.2000007629395
222.7095881,36.6100006103516
222.7252131,34.060001373291
222.7408381,31.5699996948242
222.7564631,29.1700000762939
222.7720881,26.9200000762939
222.7877131,24.8400001525879
222.8033381,22.9500007629395
222.8189631,21.2399997711182
222.8345881,19.5900001525879
222.8502131,17.8199996948242
222.8658381,15.7799997329712
222.8814631,13.4099998474121
222.8970881,10.7600002288818
222.9127131,7.94000005722046
222.9283381,5.07000017166138
222.9439631,2.24000000953674
222.9595881,-0.469999998807907
222.9752131,-3.07999992370605
222.9908381,-5.6100001335144
223.0064631,-8.1899995803833
223.0220881,-10.9700002670288
223.0377131,-13.960000038147
223.0533381,-17.1499996185303
223.0689631,-20.5100002288818
223.0845881,-24.0499992370605
223.1002131,-27.6900005340576
223.1158381,-31.2299995422363
223.1314631,-34.4000015258789
223.1470881,-36.9599990844727
223.1627131,-38.8899993896484
223.1783381,-40.2599983215332
223.1939631,-41.1699981689453
223.2095881,-41.6500015258789
223.2252131,-41.7700004577637
223.2408381,-41.6100006103516
223.2564631,-41.2799987792969
223.2720881,-40.7900009155273
223.2877131,-39.9799995422363
223.3033381,-38.7000007629395
223.3189631,-36.9199981689453
223.3345881,-34.8499984741211
223.3502131,-32.8899993896484
223.3658381,-31.3700008392334
223.3814631,-30.4400005340576
223.3970881,-30.0599994659424
223.4127131,-30.1700000762939
223.4283381,-30.7000007629395
223.4439631,-31.6000003814697
223.4595881,-32.6800003051758
223.4752131,-33.6699981689453
223.4908381,-34.3600006103516
223.5064631,-34.7599983215332
223.5220881,-35.0999984741211
223.5377131,-35.5699996948242
223.5533381,-36.2099990844727
223.5689631,-36.9300003051758
223.5845881,-37.6399993896484
223.6002131,-38.4700012207031
223.6158381,-39.5499992370605
223.6314631,-40.8300018310547
223.6470881,-42.0699996948242
223.6627131,-42.9900016784668
223.6783381,-43.4700012207031
223.6939631,-43.5800018310547
223.7095881,-43.5099983215332
223.7252131,-43.5400009155273
223.7408381,-43.8699989318848
223.7564631,-44.5499992370605
223.7720881,-45.5800018310547
223.7877131,-47.0400009155273
223.8033381,-49.0299987792969
223.8189631,-51.4599990844727
223.8345881,-53.9099998474121
223.8502131,-55.7099990844727
223.8658381,-56.310001373291
223.8814631,-55.6599998474121
223.8970881,-54.0299987792969
223.9127131,-51.75
223.9283381,-48.9500007629395
223.9439631,-45.7200012207031
223.9595881,-42.2099990844727
223.9752131,-38.5800018310547
223.9908381,-34.9900016784668
224.0064631,-31.4899997711182
224.0220881,-28.1100006103516
224.0377131,-24.8099994659424
224.0533381,-21.5300006866455
224.0689631,-18.2399997711182
224.0845881,-14.9099998474121
224.1002131,-11.539999961853
224.1158381,-8.13000011444092
224.1314631,-4.65999984741211
224.1470881,-1.11000001430511
224.1627131,2.47000002861023
224.1783381,5.98999977111816
224.1939631,9.27999973297119
224.2095881,12.2399997711182
224.2252131,14.8500003814697
224.2408381,17.1900005340576
224.2564631,19.3299999237061
224.2720881,21.3299999237061
224.2877131,23.1299991607666
224.3033381,24.6599998474121
224.3189631,25.8799991607666
224.3345881,26.7800006866455
224.3502131,27.3700008392334
224.3658381,27.6399993896484
224.3814631,27.6499996185303
224.3970881,27.5499992370605
224.4127131,27.5499992370605
224.4283381,27.7399997711182
224.4439631,27.9799995422363
224.4595881,28.0599994659424
224.4752131,27.9099998474121
224.4908381,27.6299991607666
224.5064631,27.3999996185303
224.5220881,27.3299999237061
224.5377131,27.4400005340576
224.5533381,27.7000007629395
224.5689631,28.0699996948242
224.5845881,28.5599994659424
224.6002131,29.1299991607666
224.6158381,29.6900005340576
224.6314631,30.0300006866455
224.6470881,30.0
224.6627131,29.5499992370605
224.6783381,28.8799991607666
224.6939631,28.2299995422363
224.7095881,27.6499996185303
224.7252131,26.75
224.7408381,25.0499992370605
224.7564631,22.4400005340576
224.7720881,19.2600002288818
224.7877131,16.0699996948242
224.8033381,13.2700004577637
224.8189631,10.8599996566772
224.8345881,7.96999979019165
224.8502131,2.86999988555908
224.8658381,-6.0
224.8814631,-18.7800006866455
224.8970881,-33.7200012207031
224.9127131,-47.9599990844727
224.9283381,-59.0
224.9439631,-65.6699981689453
224.9595881,-67.6600036621094
224.9752131,-64.6999969482422
224.9908381,-57.3300018310547
225.0064631,-48.060001373291
225.0220881,-40.7999992370605
225.0377131,-38.7999992370605
225.0533381,-43.0800018310547
225.0689631,-52.2400016784668
225.0845881,-63.5400009155273
225.1002131,-74.5400009155273
225.1158381,-84.4899978637695
225.1314631,-94.5699996948242
225.1470881,-106.680000305176
225.1627131,-121.550003051758
225.1783381,-137.679992675781
225.1939631,-151.770004272461
225.2095881,-160.669998168945
225.2252131,-162.899993896484
225.2408381,-158.020004272461
225.2564631,-145.25
225.2720881,-123.860000610352
225.2877131,-94.8300018310547
225.3033381,-61.75
225.3189631,-29.8600006103516
225.3345881,-3.67000007629395
225.3502131,15.0500001907349
225.3658381,27.5699996948242
225.3814631,36.9000015258789
225.3970881,46.7000007629395
225.4127131,60.4000015258789
225.4283381,79.9800033569336
225.4439631,105.25
225.4595881,135.0
225.4752131,168.679992675781
225.4908381,206.320007324219
225.5064631,247.0
225.5220881,287.779998779297
225.5377131,324.380004882813
225.5533381,327.670013427734
225.5689631,327.670013427734
225.5845881,327.670013427734
225.6002131,327.670013427734
225.6158381,327.670013427734
225.6314631,327.670013427734
225.6470881,327.670013427734
225.6627131,327.670013427734
225.6783381,327.670013427734
225.6939631,327.670013427734
225.7095881,327.670013427734
225.7252131,327.670013427734
