Time(s),Value(℃)
899.0103744,66.0199966430664
899.0259994,65.9899978637695
899.0416244,65.9599990844727
899.0572494,65.9300003051758
899.0728744,65.9000015258789
899.0884994,65.870002746582
899.1041244,65.8399963378906
899.1197494,65.8199996948242
899.1353744,65.8000030517578
899.1509994,65.7799987792969
899.1666244,65.7600021362305
899.1822494,65.75
899.1978744,65.7399978637695
899.2134994,65.7300033569336
899.2291244,65.7200012207031
899.2447494,65.7099990844727
899.2603744,65.6999969482422
899.2759994,65.6900024414063
899.2916244,65.6800003051758
899.3072494,65.6800003051758
899.3228744,65.6699981689453
899.3384994,65.6600036621094
899.3541244,65.6399993896484
899.3697494,65.629997253418
899.3853744,65.620002746582
899.4009994,65.6100006103516
899.4166244,65.5999984741211
899.4322494,65.5800018310547
899.4478744,65.5599975585938
899.4634994,65.5400009155273
899.4791244,65.5100021362305
899.4947494,65.4899978637695
899.5103744,65.4599990844727
899.5259994,65.4199981689453
899.5416244,65.3899993896484
899.5572494,65.3499984741211
899.5728744,65.3099975585938
899.5884994,65.2699966430664
899.6041244,65.2300033569336
899.6197494,65.1800003051758
899.6353744,65.129997253418
899.6509994,65.0800018310547
899.6666244,65.0400009155273
899.6822494,64.9899978637695
899.6978744,64.9499969482422
899.7134994,64.9000015258789
899.7291244,64.8600006103516
899.7447494,64.8300018310547
899.7603744,64.8000030517578
899.7759994,64.7799987792969
899.7916244,64.75
899.8072494,64.7399978637695
899.8228744,64.7200012207031
899.8384994,64.7099990844727
899.8541244,64.6999969482422
899.8697494,64.6999969482422
899.8853744,64.6900024414063
899.9009994,64.6800003051758
899.9166244,64.6699981689453
899.9322494,64.6600036621094
899.9478744,64.6600036621094
899.9634994,64.6500015258789
899.9791244,64.6500015258789
899.9947494,64.6399993896484
900.0103744,64.6399993896484
900.0259994,64.6399993896484
900.0416244,64.6399993896484
900.0572494,64.6399993896484
900.0728744,64.629997253418
900.0884994,64.629997253418
900.1041244,64.629997253418
900.1197494,64.629997253418
900.1353744,64.620002746582
900.1509994,64.620002746582
900.1666244,64.620002746582
900.1822494,64.620002746582
900.1978744,64.620002746582
900.2134994,64.620002746582
900.2291244,64.620002746582
900.2447494,64.620002746582
900.2603744,64.6100006103516
900.2759994,64.6100006103516
900.2916244,64.5999984741211
900.3072494,64.5999984741211
900.3228744,64.5899963378906
900.3384994,64.5800018310547
900.3541244,64.5599975585938
900.3697494,64.5500030517578
900.3853744,64.5400009155273
900.4009994,64.5199966430664
900.4166244,64.5100021362305
900.4322494,64.4899978637695
900.4478744,64.4700012207031
900.4634994,64.4599990844727
900.4791244,64.4400024414063
900.4947494,64.4199981689453
900.5103744,64.4000015258789
900.5259994,64.3899993896484
900.5416244,64.370002746582
900.5572494,64.3600006103516
900.5728744,64.3499984741211
900.5884994,64.3399963378906
900.6041244,64.3300018310547
900.6197494,64.3199996948242
900.6353744,64.3099975585938
900.6509994,64.3000030517578
900.6666244,64.2900009155273
900.6822494,64.2799987792969
900.6978744,64.2699966430664
900.7134994,64.2600021362305
900.7291244,64.25
900.7447494,64.2399978637695
900.7603744,64.2300033569336
900.7759994,64.2200012207031
900.7916244,64.2099990844727
900.8072494,64.1999969482422
900.8228744,64.1900024414063
900.8384994,64.1800003051758
900.8541244,64.1699981689453
900.8697494,64.1600036621094
900.8853744,64.1500015258789
900.9009994,64.129997253418
900.9166244,64.120002746582
900.9322494,64.0999984741211
900.9478744,64.0800018310547
900.9634994,64.0599975585938
900.9791244,64.0400009155273
900.9947494,64.0199966430664
901.0103744,64.0
901.0259994,63.9900016784668
901.0416244,63.9700012207031
901.0572494,63.9599990844727
901.0728744,63.9500007629395
901.0884994,63.939998626709
901.1041244,63.9300003051758
901.1197494,63.9199981689453
901.1353744,63.9099998474121
901.1509994,63.8899993896484
901.1666244,63.8800010681152
901.1822494,63.8800010681152
901.1978744,63.8699989318848
901.2134994,63.8699989318848
901.2291244,63.8600006103516
901.2447494,63.8699989318848
901.2603744,63.8699989318848
901.2759994,63.8800010681152
901.2916244,63.8800010681152
901.3072494,63.8899993896484
901.3228744,63.9000015258789
901.3384994,63.9000015258789
901.3541244,63.9099998474121
901.3697494,63.9199981689453
901.3853744,63.9199981689453
901.4009994,63.9300003051758
901.4166244,63.9300003051758
901.4322494,63.9300003051758
901.4478744,63.939998626709
901.4634994,63.939998626709
901.4791244,63.939998626709
901.4947494,63.9500007629395
901.5103744,63.9500007629395
901.5259994,63.9500007629395
901.5416244,63.9500007629395
901.5572494,63.9500007629395
901.5728744,63.9599990844727
901.5884994,63.9599990844727
901.6041244,63.9700012207031
901.6197494,63.9799995422363
901.6353744,63.9900016784668
901.6509994,64.0
901.6666244,64.0100021362305
901.6822494,64.0199966430664
901.6978744,64.0299987792969
901.7134994,64.0400009155273
901.7291244,64.0500030517578
901.7447494,64.0599975585938
901.7603744,64.0699996948242
901.7759994,64.0699996948242
901.7916244,64.0800018310547
901.8072494,64.0800018310547
901.8228744,64.0899963378906
901.8384994,64.0999984741211
901.8541244,64.1100006103516
901.8697494,64.120002746582
901.8853744,64.1399993896484
901.9009994,64.1500015258789
901.9166244,64.1699981689453
901.9322494,64.1800003051758
901.9478744,64.1900024414063
901.9634994,64.1999969482422
901.9791244,64.2099990844727
901.9947494,64.2200012207031
902.0103744,64.2300033569336
902.0259994,64.2300033569336
902.0416244,64.2399978637695
902.0572494,64.2399978637695
902.0728744,64.2399978637695
902.0884994,64.25
902.1041244,64.25
902.1197494,64.25
902.1353744,64.2399978637695
902.1509994,64.2399978637695
902.1666244,64.2300033569336
902.1822494,64.2300033569336
902.1978744,64.2200012207031
902.2134994,64.2200012207031
902.2291244,64.2099990844727
902.2447494,64.2099990844727
902.2603744,64.2099990844727
902.2759994,64.2099990844727
902.2916244,64.2099990844727
902.3072494,64.2200012207031
902.3228744,64.2200012207031
902.3384994,64.2300033569336
902.3541244,64.2300033569336
902.3697494,64.2399978637695
902.3853744,64.25
902.4009994,64.2600021362305
902.4166244,64.2699966430664
902.4322494,64.2900009155273
902.4478744,64.3000030517578
902.4634994,64.3199996948242
902.4791244,64.3300018310547
902.4947494,64.3399963378906
902.5103744,64.3499984741211
902.5259994,64.3600006103516
902.5416244,64.370002746582
902.5572494,64.379997253418
902.5728744,64.3899993896484
902.5884994,64.3899993896484
902.6041244,64.4000015258789
902.6197494,64.4000015258789
902.6353744,64.4100036621094
902.6509994,64.4100036621094
902.6666244,64.4100036621094
902.6822494,64.4100036621094
902.6978744,64.4100036621094
902.7134994,64.4100036621094
902.7291244,64.4100036621094
902.7447494,64.4100036621094
902.7603744,64.4199981689453
902.7759994,64.4199981689453
902.7916244,64.4300003051758
902.8072494,64.4400024414063
902.8228744,64.4499969482422
902.8384994,64.4599990844727
902.8541244,64.4700012207031
902.8697494,64.4800033569336
902.8853744,64.4899978637695
902.9009994,64.5
902.9166244,64.5
902.9322494,64.5100021362305
902.9478744,64.5199966430664
902.9634994,64.5299987792969
902.9791244,64.5400009155273
902.9947494,64.5500030517578
903.0103744,64.5599975585938
903.0259994,64.5699996948242
903.0416244,64.5800018310547
903.0572494,64.5999984741211
903.0728744,64.6100006103516
903.0884994,64.620002746582
903.1041244,64.6399993896484
903.1197494,64.6500015258789
903.1353744,64.6600036621094
903.1509994,64.6699981689453
903.1666244,64.6699981689453
903.1822494,64.6800003051758
903.1978744,64.6800003051758
903.2134994,64.6900024414063
903.2291244,64.6900024414063
903.2447494,64.6900024414063
903.2603744,64.6999969482422
903.2759994,64.6999969482422
903.2916244,64.6999969482422
903.3072494,64.6999969482422
903.3228744,64.6999969482422
903.3384994,64.6999969482422
903.3541244,64.6900024414063
903.3697494,64.6900024414063
903.3853744,64.6900024414063
903.4009994,64.6900024414063
903.4166244,64.6900024414063
903.4322494,64.6900024414063
903.4478744,64.6900024414063
903.4634994,64.6999969482422
903.4791244,64.6999969482422
903.4947494,64.7099990844727
903.5103744,64.7200012207031
903.5259994,64.7300033569336
903.5416244,64.7399978637695
903.5572494,64.75
903.5728744,64.7600021362305
903.5884994,64.7799987792969
903.6041244,64.8000030517578
903.6197494,64.8099975585938
903.6353744,64.8300018310547
903.6509994,64.8499984741211
903.6666244,64.870002746582
903.6822494,64.8899993896484
903.6978744,64.9100036621094
903.7134994,64.9300003051758
903.7291244,64.9400024414063
903.7447494,64.9599990844727
903.7603744,64.9700012207031
903.7759994,64.9800033569336
903.7916244,64.9899978637695
903.8072494,65.0100021362305
903.8228744,65.0199966430664
903.8384994,65.0299987792969
903.8541244,65.0500030517578
903.8697494,65.0599975585938
903.8853744,65.0800018310547
903.9009994,65.0899963378906
903.9166244,65.1100006103516
903.9322494,65.129997253418
903.9478744,65.1399993896484
903.9634994,65.1600036621094
903.9791244,65.1800003051758
903.9947494,65.1900024414063
904.0103744,65.2099990844727
904.0259994,65.2200012207031
904.0416244,65.2399978637695
904.0572494,65.25
904.0728744,65.2699966430664
904.0884994,65.2799987792969
904.1041244,65.2900009155273
904.1197494,65.3000030517578
904.1353744,65.3099975585938
904.1509994,65.3199996948242
904.1666244,65.3300018310547
904.1822494,65.3399963378906
904.1978744,65.3499984741211
904.2134994,65.3600006103516
904.2291244,65.370002746582
904.2447494,65.379997253418
904.2603744,65.3899993896484
904.2759994,65.4000015258789
904.2916244,65.4100036621094
904.3072494,65.4100036621094
904.3228744,65.4199981689453
904.3384994,65.4300003051758
904.3541244,65.4300003051758
904.3697494,65.4300003051758
904.3853744,65.4300003051758
904.4009994,65.4199981689453
904.4166244,65.4199981689453
904.4322494,65.4100036621094
904.4478744,65.4100036621094
904.4634994,65.4000015258789
904.4791244,65.4000015258789
904.4947494,65.3899993896484
904.5103744,65.379997253418
904.5259994,65.370002746582
904.5416244,65.3600006103516
904.5572494,65.3600006103516
904.5728744,65.3499984741211
904.5884994,65.3399963378906
904.6041244,65.3300018310547
904.6197494,65.3199996948242
904.6353744,65.3099975585938
904.6509994,65.3000030517578
904.6666244,65.2900009155273
904.6822494,65.2799987792969
904.6978744,65.2699966430664
904.7134994,65.2600021362305
904.7291244,65.25
904.7447494,65.25
904.7603744,65.2399978637695
904.7759994,65.2300033569336
904.7916244,65.2300033569336
904.8072494,65.2200012207031
904.8228744,65.2200012207031
904.8384994,65.2099990844727
904.8541244,65.1999969482422
904.8697494,65.1900024414063
904.8853744,65.1800003051758
904.9009994,65.1800003051758
904.9166244,65.1699981689453
904.9322494,65.1600036621094
904.9478744,65.1500015258789
904.9634994,65.1399993896484
904.9791244,65.129997253418
904.9947494,65.1100006103516
905.0103744,65.0999984741211
905.0259994,65.0899963378906
905.0416244,65.0800018310547
905.0572494,65.0699996948242
905.0728744,65.0599975585938
905.0884994,65.0500030517578
905.1041244,65.0400009155273
905.1197494,65.0299987792969
905.1353744,65.0199966430664
905.1509994,65.0
905.1666244,64.9800033569336
905.1822494,64.9700012207031
905.1978744,64.9499969482422
905.2134994,64.9300003051758
905.2291244,64.9100036621094
905.2447494,64.8899993896484
905.2603744,64.879997253418
905.2759994,64.8600006103516
905.2916244,64.8399963378906
905.3072494,64.8300018310547
905.3228744,64.8199996948242
905.3384994,64.8000030517578
905.3541244,64.7900009155273
905.3697494,64.7799987792969
905.3853744,64.7699966430664
905.4009994,64.7600021362305
905.4166244,64.75
905.4322494,64.7399978637695
905.4478744,64.7300033569336
905.4634994,64.7200012207031
905.4791244,64.7099990844727
905.4947494,64.6999969482422
905.5103744,64.6999969482422
905.5259994,64.6900024414063
905.5416244,64.6800003051758
905.5572494,64.6800003051758
905.5728744,64.6699981689453
905.5884994,64.6699981689453
905.6041244,64.6600036621094
905.6197494,64.6600036621094
905.6353744,64.6600036621094
905.6509994,64.6600036621094
905.6666244,64.6500015258789
905.6822494,64.6500015258789
905.6978744,64.6600036621094
905.7134994,64.6600036621094
905.7291244,64.6600036621094
905.7447494,64.6500015258789
905.7603744,64.6500015258789
905.7759994,64.6399993896484
905.7916244,64.6399993896484
905.8072494,64.629997253418
905.8228744,64.6100006103516
905.8384994,64.5999984741211
905.8541244,64.5899963378906
905.8697494,64.5800018310547
905.8853744,64.5699996948242
905.9009994,64.5599975585938
905.9166244,64.5500030517578
905.9322494,64.5500030517578
905.9478744,64.5400009155273
905.9634994,64.5299987792969
905.9791244,64.5199966430664
905.9947494,64.5199966430664
906.0103744,64.5100021362305
906.0259994,64.5
906.0416244,64.5
906.0572494,64.4899978637695
906.0728744,64.4899978637695
906.0884994,64.4800033569336
906.1041244,64.4800033569336
906.1197494,64.4800033569336
906.1353744,64.4700012207031
906.1509994,64.4700012207031
906.1666244,64.4700012207031
906.1822494,64.4700012207031
906.1978744,64.4599990844727
906.2134994,64.4599990844727
906.2291244,64.4599990844727
906.2447494,64.4599990844727
906.2603744,64.4599990844727
906.2759994,64.4700012207031
906.2916244,64.4700012207031
906.3072494,64.4700012207031
906.3228744,64.4700012207031
906.3384994,64.4700012207031
906.3541244,64.4700012207031
906.3697494,64.4700012207031
906.3853744,64.4800033569336
906.4009994,64.4800033569336
906.4166244,64.4800033569336
906.4322494,64.4800033569336
906.4478744,64.4800033569336
906.4634994,64.4700012207031
906.4791244,64.4599990844727
906.4947494,64.4499969482422
906.5103744,64.4400024414063
906.5259994,64.4300003051758
906.5416244,64.4199981689453
906.5572494,64.4000015258789
906.5728744,64.3899993896484
906.5884994,64.379997253418
906.6041244,64.3600006103516
906.6197494,64.3499984741211
906.6353744,64.3399963378906
906.6509994,64.3199996948242
906.6666244,64.3099975585938
906.6822494,64.3000030517578
906.6978744,64.2900009155273
906.7134994,64.2799987792969
906.7291244,64.2799987792969
906.7447494,64.2799987792969
906.7603744,64.2699966430664
906.7759994,64.2699966430664
906.7916244,64.2699966430664
906.8072494,64.2699966430664
906.8228744,64.2699966430664
906.8384994,64.2699966430664
906.8541244,64.2699966430664
906.8697494,64.2699966430664
906.8853744,64.2699966430664
906.9009994,64.2799987792969
906.9166244,64.2799987792969
906.9322494,64.2900009155273
906.9478744,64.3000030517578
906.9634994,64.3099975585938
906.9791244,64.3199996948242
906.9947494,64.3300018310547
907.0103744,64.3399963378906
907.0259994,64.3499984741211
907.0416244,64.3600006103516
907.0572494,64.370002746582
907.0728744,64.379997253418
907.0884994,64.3899993896484
907.1041244,64.3899993896484
907.1197494,64.4000015258789
907.1353744,64.4000015258789
907.1509994,64.4100036621094
907.1666244,64.4100036621094
907.1822494,64.4100036621094
907.1978744,64.4100036621094
907.2134994,64.4199981689453
907.2291244,64.4199981689453
907.2447494,64.4199981689453
907.2603744,64.4199981689453
907.2759994,64.4199981689453
907.2916244,64.4199981689453
907.3072494,64.4199981689453
907.3228744,64.4199981689453
907.3384994,64.4199981689453
907.3541244,64.4199981689453
907.3697494,64.4300003051758
907.3853744,64.4300003051758
907.4009994,64.4400024414063
907.4166244,64.4400024414063
907.4322494,64.4499969482422
907.4478744,64.4599990844727
907.4634994,64.4700012207031
907.4791244,64.4700012207031
907.4947494,64.4800033569336
907.5103744,64.4899978637695
907.5259994,64.4899978637695
907.5416244,64.5
907.5572494,64.5
907.5728744,64.5100021362305
907.5884994,64.5100021362305
907.6041244,64.5100021362305
907.6197494,64.5100021362305
907.6353744,64.5199966430664
907.6509994,64.5199966430664
907.6666244,64.5199966430664
907.6822494,64.5199966430664
907.6978744,64.5199966430664
907.7134994,64.5299987792969
907.7291244,64.5299987792969
907.7447494,64.5299987792969
907.7603744,64.5299987792969
907.7759994,64.5299987792969
907.7916244,64.5299987792969
907.8072494,64.5299987792969
907.8228744,64.5299987792969
907.8384994,64.5299987792969
907.8541244,64.5299987792969
907.8697494,64.5299987792969
907.8853744,64.5299987792969
907.9009994,64.5400009155273
907.9166244,64.5400009155273
907.9322494,64.5400009155273
907.9478744,64.5500030517578
907.9634994,64.5500030517578
907.9791244,64.5599975585938
907.9947494,64.5599975585938
908.0103744,64.5699996948242
908.0259994,64.5699996948242
908.0416244,64.5800018310547
908.0572494,64.5800018310547
908.0728744,64.5899963378906
908.0884994,64.5899963378906
908.1041244,64.5899963378906
908.1197494,64.5899963378906
908.1353744,64.5899963378906
908.1509994,64.5899963378906
908.1666244,64.5800018310547
908.1822494,64.5800018310547
908.1978744,64.5800018310547
908.2134994,64.5699996948242
908.2291244,64.5699996948242
908.2447494,64.5599975585938
908.2603744,64.5599975585938
908.2759994,64.5599975585938
908.2916244,64.5500030517578
908.3072494,64.5500030517578
908.3228744,64.5500030517578
908.3384994,64.5500030517578
908.3541244,64.5599975585938
908.3697494,64.5599975585938
908.3853744,64.5699996948242
908.4009994,64.5699996948242
908.4166244,64.5800018310547
908.4322494,64.5899963378906
908.4478744,64.5999984741211
908.4634994,64.6100006103516
908.4791244,64.6100006103516
908.4947494,64.620002746582
908.5103744,64.620002746582
908.5259994,64.629997253418
908.5416244,64.629997253418
908.5572494,64.629997253418
908.5728744,64.629997253418
908.5884994,64.629997253418
908.6041244,64.620002746582
908.6197494,64.620002746582
908.6353744,64.6100006103516
908.6509994,64.6100006103516
908.6666244,64.5999984741211
908.6822494,64.5999984741211
908.6978744,64.5999984741211
908.7134994,64.5999984741211
908.7291244,64.5999984741211
908.7447494,64.5899963378906
908.7603744,64.5899963378906
908.7759994,64.5899963378906
908.7916244,64.5899963378906
908.8072494,64.5899963378906
908.8228744,64.5899963378906
908.8384994,64.5899963378906
908.8541244,64.5899963378906
908.8697494,64.5800018310547
908.8853744,64.5800018310547
908.9009994,64.5699996948242
908.9166244,64.5699996948242
908.9322494,64.5599975585938
908.9478744,64.5599975585938
908.9634994,64.5500030517578
908.9791244,64.5500030517578
908.9947494,64.5400009155273
909.0103744,64.5400009155273
909.0259994,64.5400009155273
909.0416244,64.5400009155273
909.0572494,64.5400009155273
909.0728744,64.5400009155273
909.0884994,64.5400009155273
909.1041244,64.5400009155273
909.1197494,64.5400009155273
909.1353744,64.5500030517578
909.1509994,64.5500030517578
909.1666244,64.5500030517578
909.1822494,64.5500030517578
909.1978744,64.5500030517578
909.2134994,64.5599975585938
909.2291244,64.5599975585938
909.2447494,64.5500030517578
909.2603744,64.5500030517578
909.2759994,64.5400009155273
909.2916244,64.5400009155273
909.3072494,64.5299987792969
909.3228744,64.5199966430664
909.3384994,64.5100021362305
909.3541244,64.5
909.3697494,64.4899978637695
909.3853744,64.4800033569336
909.4009994,64.4700012207031
909.4166244,64.4700012207031
909.4322494,64.4599990844727
909.4478744,64.4599990844727
909.4634994,64.4599990844727
909.4791244,64.4599990844727
909.4947494,64.4700012207031
909.5103744,64.4700012207031
909.5259994,64.4800033569336
909.5416244,64.4899978637695
909.5572494,64.5
909.5728744,64.5100021362305
909.5884994,64.5199966430664
909.6041244,64.5299987792969
909.6197494,64.5400009155273
909.6353744,64.5400009155273
909.6509994,64.5500030517578
909.6666244,64.5599975585938
909.6822494,64.5699996948242
909.6978744,64.5699996948242
909.7134994,64.5800018310547
909.7291244,64.5800018310547
909.7447494,64.5899963378906
909.7603744,64.5899963378906
909.7759994,64.5999984741211
909.7916244,64.5999984741211
909.8072494,64.5999984741211
909.8228744,64.6100006103516
909.8384994,64.6100006103516
909.8541244,64.6100006103516
909.8697494,64.620002746582
909.8853744,64.620002746582
909.9009994,64.629997253418
909.9166244,64.629997253418
