Time(s),Value(%)
899.0103744,-66.9400024414063
899.0259994,-73.370002746582
899.0416244,-76.8600006103516
899.0572494,-78.1800003051758
899.0728744,-78.4100036621094
899.0884994,-78.0599975585938
899.1041244,-76.9700012207031
899.1197494,-74.9800033569336
899.1353744,-72.2900009155273
899.1509994,-69.5
899.1666244,-67.2600021362305
899.1822494,-65.8600006103516
899.1978744,-65.0500030517578
899.2134994,-64.4000015258789
899.2291244,-63.5900001525879
899.2447494,-62.3899993896484
899.2603744,-60.6199989318848
899.2759994,-58.1599998474121
899.2916244,-55.060001373291
899.3072494,-51.7200012207031
899.3228744,-48.6500015258789
899.3384994,-46.0299987792969
899.3541244,-43.4900016784668
899.3697494,-40.0999984741211
899.3853744,-34.4900016784668
899.4009994,-25.1399993896484
899.4166244,-10.7200002670288
899.4322494,9.46000003814697
899.4478744,35.189998626709
899.4634994,65.3199996948242
899.4791244,97.9800033569336
899.4947494,130.199996948242
899.5103744,157.669998168945
899.5259994,176.199996948242
899.5416244,183.460006713867
899.5572494,179.460006713867
899.5728744,166.070007324219
899.5884994,145.889999389648
899.6041244,121.319999694824
899.6197494,93.9000015258789
899.6353744,64.6500015258789
899.6509994,34.7200012207031
899.6666244,5.67999982833862
899.6822494,-20.8600006103516
899.6978744,-43.5800018310547
899.7134994,-61.7099990844727
899.7291244,-75.2200012207031
899.7447494,-84.6800003051758
899.7603744,-90.9899978637695
899.7759994,-95.0800018310547
899.7916244,-97.8000030517578
899.8072494,-99.7699966430664
899.8228744,-101.319999694824
899.8384994,-102.440002441406
899.8541244,-102.76000213623
899.8697494,-101.849998474121
899.8853744,-99.9100036621094
899.9009994,-97.6100006103516
899.9166244,-95.4700012207031
899.9322494,-93.5400009155273
899.9478744,-91.5199966430664
899.9634994,-89.0599975585938
899.9791244,-85.8899993896484
899.9947494,-82.0800018310547
900.0103744,-77.8600006103516
900.0259994,-73.2699966430664
900.0416244,-68.25
900.0572494,-62.8199996948242
900.0728744,-57.0900001525879
900.0884994,-51.1699981689453
900.1041244,-45.1300010681152
900.1197494,-39.0499992370605
900.1353744,-32.9599990844727
900.1509994,-26.5300006866455
900.1666244,-18.8799991607666
900.1822494,-8.69999980926514
900.1978744,5.21000003814697
900.2134994,23.6900005340576
900.2291244,47.5900001525879
900.2447494,77.8000030517578
900.2603744,113.800003051758
900.2759994,152.330001831055
900.2916244,188.399993896484
900.3072494,217.389999389648
900.3228744,236.270004272461
900.3384994,244.029998779297
900.3541244,241.369995117188
900.3697494,229.929992675781
900.3853744,211.460006713867
900.4009994,187.460006713867
900.4166244,159.25
900.4322494,128.339996337891
900.4478744,96.4700012207031
900.4634994,65.4400024414063
900.4791244,36.7700004577637
900.4947494,11.3599996566772
900.5103744,-10.539999961853
900.5259994,-28.9500007629395
900.5416244,-44.0999984741211
900.5572494,-56.4700012207031
900.5728744,-66.629997253418
900.5884994,-75.0199966430664
900.6041244,-81.870002746582
900.6197494,-87.4100036621094
900.6353744,-91.9899978637695
900.6509994,-95.8499984741211
900.6666244,-99.0299987792969
900.6822494,-101.470001220703
900.6978744,-103.099998474121
900.7134994,-103.779998779297
900.7291244,-103.410003662109
900.7447494,-102.120002746582
900.7603744,-100.099998474121
900.7759994,-97.3499984741211
900.7916244,-93.6900024414063
900.8072494,-89.0899963378906
900.8228744,-83.6500015258789
900.8384994,-77.5599975585938
900.8541244,-71.0599975585938
900.8697494,-64.4100036621094
900.8853744,-57.8600006103516
900.9009994,-51.3699989318848
900.9166244,-44.4000015258789
900.9322494,-36.0499992370605
900.9478744,-25.0900001525879
900.9634994,-10.039999961853
900.9791244,10.8400001525879
900.9947494,39.189998626709
901.0103744,74.7099990844727
901.0259994,113.949996948242
901.0416244,151.410003662109
901.0572494,181.740005493164
901.0728744,201.479995727539
901.0884994,209.490005493164
901.1041244,206.630004882813
901.1197494,194.960006713867
901.1353744,176.860000610352
901.1509994,154.449996948242
901.1666244,129.330001831055
901.1822494,102.599998474121
901.1978744,75.129997253418
901.2134994,47.7900009155273
901.2291244,21.4599990844727
901.2447494,-3.19000005722046
901.2603744,-25.6800003051758
901.2759994,-45.3699989318848
901.2916244,-61.6500015258789
901.3072494,-74.3000030517578
901.3228744,-83.6100006103516
901.3384994,-90.3399963378906
901.3541244,-95.370002746582
901.3697494,-99.4000015258789
901.3853744,-102.779998779297
901.4009994,-105.5
901.4166244,-107.23999786377
901.4322494,-107.650001525879
901.4478744,-106.599998474121
901.4634994,-104.23999786377
901.4791244,-100.940002441406
901.4947494,-97.2200012207031
901.5103744,-93.4000015258789
901.5259994,-89.3600006103516
901.5416244,-84.8099975585938
901.5572494,-79.6600036621094
901.5728744,-74.1399993896484
901.5884994,-68.6600036621094
901.6041244,-63.5800018310547
901.6197494,-58.9900016784668
901.6353744,-54.7900009155273
901.6509994,-50.7000007629395
901.6666244,-46.189998626709
901.6822494,-40.5499992370605
901.6978744,-32.9799995422363
901.7134994,-22.7600002288818
901.7291244,-9.27999973297119
901.7447494,8.30000019073486
901.7603744,30.8400001525879
901.7759994,58.4500007629395
901.7916244,89.9000015258789
901.8072494,122.529998779297
901.8228744,152.809997558594
901.8384994,177.240005493164
901.8541244,193.190002441406
901.8697494,199.470001220703
901.8853744,196.369995117188
901.9009994,185.229995727539
901.9166244,167.679992675781
901.9322494,145.210006713867
901.9478744,119.190002441406
901.9634994,91.1100006103516
901.9791244,62.4199981689453
901.9947494,34.2200012207031
902.0103744,7.57000017166138
902.0259994,-16.2399997711182
902.0416244,-36.0099983215332
902.0572494,-51.1800003051758
902.0728744,-62.0099983215332
902.0884994,-69.3099975585938
902.1041244,-74.0699996948242
902.1197494,-77.2799987792969
902.1353744,-79.7600021362305
902.1509994,-82.0500030517578
902.1666244,-84.1399993896484
902.1822494,-85.7200012207031
902.1978744,-86.5199966430664
902.2134994,-86.4100036621094
902.2291244,-85.4199981689453
902.2447494,-83.6800003051758
902.2603744,-81.2900009155273
902.2759994,-78.0800018310547
902.2916244,-73.7799987792969
902.3072494,-68.4100036621094
902.3228744,-62.2900009155273
902.3384994,-55.8699989318848
902.3541244,-49.5299987792969
902.3697494,-43.560001373291
902.3853744,-38.1100006103516
902.4009994,-33.1399993896484
902.4166244,-28.3600006103516
902.4322494,-23.4599990844727
902.4478744,-18.1900005340576
902.4634994,-12.3199996948242
902.4791244,-5.40000009536743
902.4947494,3.40000009536743
902.5103744,15.039999961853
902.5259994,30.0599994659424
902.5416244,48.2400016784668
902.5572494,68.7200012207031
902.5728744,90.3000030517578
902.5884994,111.709999084473
902.6041244,131.580001831055
902.6197494,148.199996948242
902.6353744,159.570007324219
902.6509994,164.110000610352
902.6666244,161.600006103516
902.6822494,153.210006713867
902.6978744,140.539993286133
902.7134994,124.779998779297
902.7291244,106.480003356934
902.7447494,85.870002746582
902.7603744,63.2400016784668
902.7759994,39.560001373291
902.7916244,16.4699993133545
902.8072494,-4.3600001335144
902.8228744,-21.9300003051758
902.8384994,-36.060001373291
902.8541244,-47.1500015258789
902.8697494,-55.8899993896484
902.8853744,-62.939998626709
902.9009994,-68.8199996948242
902.9166244,-73.8099975585938
902.9322494,-77.9199981689453
902.9478744,-81.0199966430664
902.9634994,-83.0999984741211
902.9791244,-84.370002746582
902.9947494,-85.1699981689453
903.0103744,-86.0
903.0259994,-87.0999984741211
903.0416244,-88.1999969482422
903.0572494,-88.6800003051758
903.0728744,-88.0100021362305
903.0884994,-85.9700012207031
903.1041244,-82.6500015258789
903.1197494,-78.2799987792969
903.1353744,-73.0
903.1509994,-66.9400024414063
903.1666244,-60.5299987792969
903.1822494,-54.4900016784668
903.1978744,-49.3499984741211
903.2134994,-45.0699996948242
903.2291244,-41.2200012207031
903.2447494,-37.2400016784668
903.2603744,-32.7099990844727
903.2759994,-27.1299991607666
903.2916244,-19.75
903.3072494,-9.67000007629395
903.3228744,3.73000001907349
903.3384994,20.4400005340576
903.3541244,39.7799987792969
903.3697494,60.6500015258789
903.3853744,82.0
903.4009994,103.139999389648
903.4166244,123.629997253418
903.4322494,142.410003662109
903.4478744,157.360000610352
903.4634994,166.149993896484
903.4791244,167.429992675781
903.4947494,161.279998779297
903.5103744,148.910003662109
903.5259994,131.970001220703
903.5416244,112.050003051758
903.5572494,90.4100036621094
903.5728744,68.0199966430664
903.5884994,45.7900009155273
903.6041244,24.6000003814697
903.6197494,5.21999979019165
903.6353744,-11.8400001525879
903.6509994,-26.4300003051758
903.6666244,-38.7200012207031
903.6822494,-49.0999984741211
903.6978744,-57.8300018310547
903.7134994,-64.9599990844727
903.7291244,-70.4800033569336
903.7447494,-74.4100036621094
903.7603744,-76.9000015258789
903.7759994,-78.25
903.7916244,-78.6600036621094
903.8072494,-78.0100021362305
903.8228744,-76.0599975585938
903.8384994,-72.7900009155273
903.8541244,-68.5199966430664
903.8697494,-63.7799987792969
903.8853744,-58.9700012207031
903.9009994,-54.2900009155273
903.9166244,-49.8600006103516
903.9322494,-45.939998626709
903.9478744,-42.7900009155273
903.9634994,-40.4099998474121
903.9791244,-38.5499992370605
903.9947494,-36.7900009155273
904.0103744,-34.7599983215332
904.0259994,-32.0499992370605
904.0416244,-27.7999992370605
904.0572494,-20.5100002288818
904.0728744,-8.51000022888184
904.0884994,9.31999969482422
904.1041244,33.0499992370605
904.1197494,61.3300018310547
904.1353744,91.5199966430664
904.1509994,120.220001220703
904.1666244,144.139999389648
904.1822494,160.580001831055
904.1978744,167.610000610352
904.2134994,164.660003662109
904.2291244,152.899993896484
904.2447494,134.690002441406
904.2603744,112.48999786377
904.2759994,87.9400024414063
904.2916244,61.8899993896484
904.3072494,35.1500015258789
904.3228744,8.73999977111816
904.3384994,-16.2000007629395
904.3541244,-38.7000007629395
904.3697494,-57.9300003051758
904.3853744,-73.4400024414063
904.4009994,-85.2099990844727
904.4166244,-93.6600036621094
904.4322494,-99.3199996948242
904.4478744,-102.650001525879
904.4634994,-103.98999786377
904.4791244,-103.790000915527
904.4947494,-102.620002746582
904.5103744,-101.040000915527
904.5259994,-99.4000015258789
904.5416244,-97.6800003051758
904.5572494,-95.4599990844727
904.5728744,-92.3199996948242
904.5884994,-88.129997253418
904.6041244,-83.0299987792969
904.6197494,-77.4000015258789
904.6353744,-71.6500015258789
904.6509994,-66.129997253418
904.6666244,-61.060001373291
904.6822494,-56.4500007629395
904.6978744,-52.1199989318848
904.7134994,-47.8800010681152
904.7291244,-43.560001373291
904.7447494,-39.060001373291
904.7603744,-34.4199981689453
904.7759994,-29.7600002288818
904.7916244,-24.9799995422363
904.8072494,-19.4899997711182
904.8228744,-12.0
904.8384994,-0.829999983310699
904.8541244,15.3699998855591
904.8697494,36.9900016784668
904.8853744,63.2799987792969
904.9009994,92.7200012207031
904.9166244,123.470001220703
904.9322494,152.729995727539
904.9478744,176.559997558594
904.9634994,191.369995117188
904.9791244,195.470001220703
904.9947494,189.580001831055
905.0103744,175.970001220703
905.0259994,157.240005493164
905.0416244,135.429992675781
905.0572494,111.779998779297
905.0728744,87.1500015258789
905.0884994,62.4700012207031
905.1041244,38.7099990844727
905.1197494,16.7000007629395
905.1353744,-2.91000008583069
905.1509994,-19.7299995422363
905.1666244,-33.5400009155273
905.1822494,-44.3199996948242
905.1978744,-52.1699981689453
905.2134994,-57.439998626709
905.2291244,-60.75
905.2447494,-62.8199996948242
905.2603744,-64.2300033569336
905.2759994,-65.379997253418
905.2916244,-66.3899993896484
905.3072494,-67.1500015258789
905.3228744,-67.4499969482422
905.3384994,-67.1600036621094
905.3541244,-66.2699966430664
905.3697494,-64.75
905.3853744,-62.5400009155273
905.4009994,-59.6699981689453
905.4166244,-56.3499984741211
905.4322494,-52.8400001525879
905.4478744,-49.2999992370605
905.4634994,-45.9099998474121
905.4791244,-42.7400016784668
905.4947494,-39.6699981689453
905.5103744,-36.3800010681152
905.5259994,-32.6100006103516
905.5416244,-28.4200000762939
905.5572494,-23.9599990844727
905.5728744,-19.1000003814697
905.5884994,-13.1099996566772
905.6041244,-4.78000020980835
905.6197494,7.3600001335144
905.6353744,24.6100006103516
905.6509994,47.8199996948242
905.6666244,77.1699981689453
905.6822494,110.949996948242
905.6978744,144.940002441406
905.7134994,173.919998168945
905.7291244,193.970001220703
905.7447494,203.490005493164
905.7603744,202.970001220703
905.7759994,194.039993286133
905.7916244,178.470001220703
905.8072494,157.429992675781
905.8228744,131.779998779297
905.8384994,102.690002441406
905.8541244,71.8199996948242
905.8697494,41.0699996948242
905.8853744,12.0799999237061
905.9009994,-14.0
905.9166244,-36.5400009155273
905.9322494,-55.310001373291
905.9478744,-70.6500015258789
905.9634994,-83.3000030517578
905.9791244,-93.9700012207031
905.9947494,-103.059997558594
906.0103744,-110.599998474121
906.0259994,-116.620002746582
906.0416244,-121.410003662109
906.0572494,-125.349998474121
906.0728744,-128.600006103516
906.0884994,-131.020004272461
906.1041244,-132.399993896484
906.1197494,-132.800003051758
906.1353744,-132.449996948242
906.1509994,-131.440002441406
906.1666244,-129.789993286133
906.1822494,-127.639999389648
906.1978744,-125.25
906.2134994,-122.610000610352
906.2291244,-119.419998168945
906.2447494,-115.290000915527
906.2603744,-110.040000915527
906.2759994,-104.0
906.2916244,-97.9100036621094
906.3072494,-92.5500030517578
906.3228744,-88.1699981689453
906.3384994,-84.4700012207031
906.3541244,-80.6600036621094
906.3697494,-75.5800018310547
906.3853744,-67.870002746582
906.4009994,-56.3400001525879
906.4166244,-40.75
906.4322494,-21.5599994659424
906.4478744,1.28999996185303
906.4634994,28.7700004577637
906.4791244,61.5299987792969
906.4947494,98.5400009155273
906.5103744,136.460006713867
906.5259994,170.460006713867
906.5416244,196.210006713867
906.5572494,211.320007324219
906.5728744,215.570007324219
906.5884994,210.080001831055
906.6041244,196.800003051758
906.6197494,178.0
906.6353744,155.779998779297
906.6509994,131.830001831055
906.6666244,107.459999084473
906.6822494,83.6800003051758
906.6978744,61.2799987792969
906.7134994,41.0400009155273
906.7291244,23.75
906.7447494,9.89000034332275
906.7603744,-0.660000026226044
906.7759994,-8.40999984741211
906.7916244,-14.0
906.8072494,-18.1700000762939
906.8228744,-21.6800003051758
906.8384994,-25.0499992370605
906.8541244,-28.5400009155273
906.8697494,-32.1699981689453
906.8853744,-35.7999992370605
906.9009994,-39.2000007629395
906.9166244,-42.2099990844727
906.9322494,-44.7900009155273
906.9478744,-47.0200004577637
906.9634994,-48.9099998474121
906.9791244,-50.2200012207031
906.9947494,-50.560001373291
907.0103744,-49.7099990844727
907.0259994,-47.7299995422363
907.0416244,-44.9900016784668
907.0572494,-42.1199989318848
907.0728744,-39.689998626709
907.0884994,-37.9799995422363
907.1041244,-36.8199996948242
907.1197494,-35.75
907.1353744,-34.1199989318848
907.1509994,-31.0
907.1666244,-25.0900001525879
907.1822494,-14.539999961853
907.1978744,2.85999989509583
907.2134994,28.2399997711182
907.2291244,60.2000007629395
907.2447494,94.7699966430664
907.2603744,126.720001220703
907.2759994,151.25
907.2916244,165.429992675781
907.3072494,168.770004272461
907.3228744,162.75
907.3384994,149.779998779297
907.3541244,132.229995727539
907.3697494,111.949996948242
907.3853744,90.1800003051758
907.4009994,67.7399978637695
907.4166244,45.1599998474121
907.4322494,22.8500003814697
907.4478744,1.25999999046326
907.4634994,-18.8799991607666
907.4791244,-36.4799995422363
907.4947494,-50.5200004577637
907.5103744,-60.5400009155273
907.5259994,-66.8499984741211
907.5416244,-70.3600006103516
907.5572494,-72.2799987792969
907.5728744,-73.5299987792969
907.5884994,-74.4899978637695
907.6041244,-75.1600036621094
907.6197494,-75.5699996948242
907.6353744,-75.7099990844727
907.6509994,-75.5699996948242
907.6666244,-75.1500015258789
907.6822494,-74.5500030517578
907.6978744,-73.9700012207031
907.7134994,-73.4000015258789
907.7291244,-72.5999984741211
907.7447494,-71.2399978637695
907.7603744,-69.1999969482422
907.7759994,-66.5
907.7916244,-63.2900009155273
907.8072494,-59.8199996948242
907.8228744,-56.3400001525879
907.8384994,-52.9300003051758
907.8541244,-49.5099983215332
907.8697494,-45.9900016784668
907.8853744,-42.3600006103516
907.9009994,-38.7200012207031
907.9166244,-35.0699996948242
907.9322494,-31.0200004577637
907.9478744,-25.5200004577637
907.9634994,-16.9400005340576
907.9791244,-3.24000000953674
907.9947494,17.2099990844727
908.0103744,44.75
908.0259994,77.7200012207031
908.0416244,112.610000610352
908.0572494,144.990005493164
908.0728744,170.440002441406
908.0884994,185.419998168945
908.1041244,188.449996948242
908.1197494,180.630004882813
908.1353744,164.869995117188
908.1509994,144.460006713867
908.1666244,121.930000305176
908.1822494,98.5800018310547
908.1978744,74.6600036621094
908.2134994,50.2999992370605
908.2291244,26.1599998474121
908.2447494,3.48000001907349
908.2603744,-16.4400005340576
908.2759994,-32.7400016784668
908.2916244,-45.2000007629395
908.3072494,-54.3400001525879
908.3228744,-60.9900016784668
908.3384994,-65.8099975585938
908.3541244,-69.2200012207031
908.3697494,-71.4800033569336
908.3853744,-72.8199996948242
908.4009994,-73.3899993896484
908.4166244,-73.4199981689453
908.4322494,-73.2900009155273
908.4478744,-73.3399963378906
908.4634994,-73.5599975585938
908.4791244,-73.5500030517578
908.4947494,-73.0
908.5103744,-71.8099975585938
908.5259994,-70.0100021362305
908.5416244,-67.6100006103516
908.5572494,-64.8000030517578
908.5728744,-61.8300018310547
908.5884994,-58.8199996948242
908.6041244,-55.7700004577637
908.6197494,-52.6800003051758
908.6353744,-49.6800003051758
908.6509994,-46.939998626709
908.6666244,-44.5099983215332
908.6822494,-42.3199996948242
908.6978744,-40.2000007629395
908.7134994,-37.7700004577637
908.7291244,-34.1100006103516
908.7447494,-27.6900005340576
908.7603744,-16.7900009155273
908.7759994,-0.0099999997764825
908.7916244,23.2999992370605
908.8072494,52.6699981689453
908.8228744,85.6100006103516
908.8384994,117.449996948242
908.8541244,142.949996948242
908.8697494,158.449996948242
908.8853744,162.929992675781
908.9009994,157.770004272461
908.9166244,145.699996948242
908.9322494,129.470001220703
908.9478744,110.940002441406
908.9634994,91.0599975585938
908.9791244,70.3600006103516
908.9947494,49.4300003051758
909.0103744,29.0400009155273
909.0259994,10.0200004577637
909.0416244,-6.94000005722046
909.0572494,-21.5100002288818
909.0728744,-33.5299987792969
909.0884994,-42.8400001525879
909.1041244,-49.3499984741211
909.1197494,-53.2999992370605
909.1353744,-55.2400016784668
909.1509994,-55.8800010681152
909.1666244,-55.9000015258789
909.1822494,-55.8499984741211
909.1978744,-56.1100006103516
909.2134994,-56.75
909.2291244,-57.4799995422363
909.2447494,-57.8800010681152
909.2603744,-57.5900001525879
909.2759994,-56.5099983215332
909.2916244,-54.7900009155273
909.3072494,-52.7700004577637
909.3228744,-50.7200012207031
909.3384994,-48.6300010681152
909.3541244,-46.2900009155273
909.3697494,-43.4599990844727
909.3853744,-40.1100006103516
909.4009994,-36.4799995422363
909.4166244,-32.8899993896484
909.4322494,-29.5300006866455
909.4478744,-26.2399997711182
909.4634994,-22.5699996948242
909.4791244,-18.25
909.4947494,-13.3400001525879
909.5103744,-7.96999979019165
909.5259994,-1.70000004768372
909.5416244,6.71999979019165
909.5572494,18.9899997711182
909.5728744,36.4700012207031
909.5884994,58.9700012207031
909.6041244,83.8899993896484
909.6197494,107.139999389648
909.6353744,124.930000305176
909.6509994,135.130004882813
909.6666244,137.529998779297
909.6822494,133.300003051758
909.6978744,124.169998168945
