Time(s),Value(%)
321.012673,40.4300003051758
321.028298,36.7999992370605
321.043923,33.4199981689453
321.059548,29.4099998474121
321.075173,23.9099998474121
321.090798,17.0499992370605
321.106423,10.1099996566772
321.122048,4.65999984741211
321.137673,1.3400000333786
321.153298,-0.419999986886978
321.168923,-1.79999995231628
321.184548,-3.82999992370605
321.200173,-6.8899998664856
321.215798,-10.4700002670288
321.231423,-13.5
321.247048,-15.1499996185303
321.262673,-15.4499998092651
321.278298,-15.2299995422363
321.293923,-15.5
321.309548,-16.7800006866455
321.325173,-18.7800006866455
321.340798,-20.6200008392334
321.356423,-21.7299995422363
321.372048,-22.2800006866455
321.387673,-22.9500007629395
321.403298,-24.1000003814697
321.418923,-25.4200000762939
321.434548,-26.2299995422363
321.450173,-26.0799999237061
321.465798,-24.9500007629395
321.481423,-22.9400005340576
321.497048,-20.1299991607666
321.512673,-16.7700004577637
321.528298,-13.4499998092651
321.543923,-10.8400001525879
321.559548,-9.42000007629395
321.575173,-9.06999969482422
321.590798,-9.14999961853027
321.606423,-8.88000011444092
321.622048,-7.92000007629395
321.637673,-6.48000001907349
321.653298,-4.90999984741211
321.668923,-3.48000001907349
321.684548,-2.1800000667572
321.700173,-0.670000016689301
321.715798,1.69000005722046
321.731423,5.71999979019165
321.747048,11.8100004196167
321.762673,19.4099998474121
321.778298,26.9400005340576
321.793923,32.5200004577637
321.809548,35.0
321.825173,34.5999984741211
321.840798,32.7099990844727
321.856423,31.1200008392334
321.872048,30.9200000762939
321.887673,31.9500007629395
321.903298,33.2099990844727
321.918923,33.7000007629395
321.934548,32.8199996948242
321.950173,30.2399997711182
321.965798,25.7000007629395
321.981423,19.2700004577637
321.997048,11.789999961853
322.012673,4.86999988555908
322.028298,0.209999993443489
322.043923,-1.44000005722046
322.059548,-0.910000026226044
322.075173,-0.219999998807907
322.090798,-1.38999998569489
322.106423,-5.1100001335144
322.122048,-10.4099998474121
322.137673,-15.3500003814697
322.153298,-18.2299995422363
322.168923,-18.5100002288818
322.184548,-16.8500003814697
322.200173,-14.6199998855591
322.215798,-13.2700004577637
322.231423,-13.6599998474121
322.247048,-15.6999998092651
322.262673,-18.4599990844727
322.278298,-20.8299999237061
322.293923,-22.1599998474121
322.309548,-22.4400005340576
322.325173,-22.2000007629395
322.340798,-21.9899997711182
322.356423,-22.0300006866455
322.372048,-22.1000003814697
322.387673,-21.8199996948242
322.403298,-21.0100002288818
322.418923,-19.8199996948242
322.434548,-18.4099998474121
322.450173,-16.6800003051758
322.465798,-14.3500003814697
322.481423,-11.4399995803833
322.497048,-8.39000034332275
322.512673,-5.94999980926514
322.528298,-4.76999998092651
322.543923,-5.0
322.559548,-5.94999980926514
322.575173,-6.19999980926514
322.590798,-4.13000011444092
322.606423,1.41999995708466
322.622048,10.3699998855591
322.637673,21.2999992370605
322.653298,32.0699996948242
322.668923,40.6399993896484
322.684548,45.8300018310547
322.700173,47.5699996948242
322.715798,46.7700004577637
322.731423,44.6199989318848
322.747048,42.0999984741211
322.762673,39.6199989318848
322.778298,37.0400009155273
322.793923,33.9599990844727
322.809548,30.0900001525879
322.825173,25.3400001525879
322.840798,19.9799995422363
322.856423,14.3900003433228
322.872048,8.82999992370605
322.887673,3.32999992370605
322.903298,-1.82000005245209
322.918923,-6.03000020980835
322.934548,-8.85000038146973
322.950173,-10.4700002670288
322.965798,-11.539999961853
322.981423,-12.6099996566772
322.997048,-13.8900003433228
323.012673,-15.3599996566772
323.028298,-16.8299999237061
323.043923,-18.0400009155273
323.059548,-18.5400009155273
323.075173,-17.9899997711182
323.090798,-16.4599990844727
323.106423,-14.6099996566772
323.122048,-13.3900003433228
323.137673,-13.4099998474121
323.153298,-14.6099996566772
323.168923,-16.4400005340576
323.184548,-18.2700004577637
323.200173,-19.6499996185303
323.215798,-20.4599990844727
323.231423,-20.8799991607666
323.247048,-21.2099990844727
323.262673,-21.5900001525879
323.278298,-22.0499992370605
323.293923,-22.5400009155273
323.309548,-22.7700004577637
323.325173,-22.3299999237061
323.340798,-21.0
323.356423,-19.0400009155273
323.372048,-17.0
323.387673,-15.1499996185303
323.403298,-13.0799999237061
323.418923,-9.78999996185303
323.434548,-4.1399998664856
323.450173,4.42000007629395
323.465798,15.3100004196167
323.481423,26.7299995422363
323.497048,36.4799995422363
323.512673,43.060001373291
323.528298,46.3199996948242
323.543923,47.2599983215332
323.559548,47.0200004577637
323.575173,46.2099990844727
323.590798,44.6300010681152
323.606423,41.7200012207031
323.622048,37.1500015258789
323.637673,31.2900009155273
323.653298,25.0400009155273
323.668923,19.0900001525879
323.684548,13.5900001525879
323.700173,8.35000038146973
323.715798,3.1800000667572
323.731423,-1.9099999666214
323.747048,-6.76999998092651
323.762673,-11.1199998855591
323.778298,-14.6599998474121
323.793923,-17.1299991607666
323.809548,-18.4500007629395
323.825173,-18.7299995422363
323.840798,-18.1100006103516
323.856423,-16.7399997711182
323.872048,-14.9300003051758
323.887673,-13.2299995422363
323.903298,-12.1499996185303
323.918923,-11.9099998474121
323.934548,-12.4899997711182
323.950173,-13.789999961853
323.965798,-15.6599998474121
323.981423,-17.9400005340576
323.997048,-20.3899993896484
324.012673,-22.6499996185303
324.028298,-24.3799991607666
324.043923,-25.3799991607666
324.059548,-25.6299991607666
324.075173,-25.1599998474121
324.090798,-23.9500007629395
324.106423,-22.0400009155273
324.122048,-19.6599998474121
324.137673,-17.2600002288818
324.153298,-15.2299995422363
324.168923,-13.6999998092651
324.184548,-12.6000003814697
324.200173,-11.8199996948242
324.215798,-11.2799997329712
324.231423,-10.8199996948242
324.247048,-9.90999984741211
324.262673,-7.6399998664856
324.278298,-2.97000002861023
324.293923,4.59000015258789
324.309548,14.3599996566772
324.325173,24.5100002288818
324.340798,32.810001373291
324.356423,37.8400001525879
324.372048,39.5900001525879
324.387673,39.2299995422363
324.403298,38.1399993896484
324.418923,37.1399993896484
324.434548,36.3300018310547
324.450173,35.3199996948242
324.465798,33.5400009155273
324.481423,30.4200000762939
324.497048,25.5100002288818
324.512673,18.8999996185303
324.528298,11.4899997711182
324.543923,4.84000015258789
324.559548,0.159999996423721
324.575173,-2.44000005722046
324.590798,-3.95000004768372
324.606423,-5.48000001907349
324.622048,-7.59999990463257
324.637673,-10.3100004196167
324.653298,-13.3599996566772
324.668923,-16.4599990844727
324.684548,-19.2999992370605
324.700173,-21.5900001525879
324.715798,-23.0900001525879
324.731423,-23.7099990844727
324.747048,-23.7099990844727
324.762673,-23.7900009155273
324.778298,-24.5699996948242
324.793923,-26.1299991607666
324.809548,-27.9099998474121
324.825173,-28.9699993133545
324.840798,-28.3999996185303
324.856423,-25.8500003814697
324.872048,-21.8899993896484
324.887673,-17.7900009155273
324.903298,-14.8100004196167
324.918923,-13.5200004577637
324.934548,-13.5200004577637
324.950173,-13.8199996948242
324.965798,-13.5200004577637
324.981423,-12.2700004577637
324.997048,-10.3199996948242
325.012673,-8.36999988555908
325.028298,-7.09000015258789
325.043923,-6.73000001907349
325.059548,-7.03000020980835
325.075173,-7.46999979019165
325.090798,-7.42999982833862
325.106423,-6.30000019073486
325.122048,-3.34999990463257
325.137673,2.15000009536743
325.153298,10.4799995422363
325.168923,20.8600006103516
325.184548,31.5
325.200173,40.2900009155273
325.215798,45.689998626709
325.231423,47.3499984741211
325.247048,46.0699996948242
325.262673,43.25
325.278298,40.189998626709
325.293923,37.6599998474121
325.309548,35.7900009155273
325.325173,34.1399993896484
325.340798,31.8199996948242
325.356423,28.0599994659424
325.372048,22.8299999237061
325.387673,16.9699993133545
325.403298,11.6999998092651
325.418923,7.82000017166138
325.434548,5.23999977111816
325.450173,3.11999988555908
325.465798,0.649999976158142
325.481423,-2.23000001907349
325.497048,-4.92999982833862
325.512673,-6.84000015258789
325.528298,-7.78000020980835
325.543923,-7.92000007629395
325.559548,-7.55999994277954
325.575173,-7.09000015258789
325.590798,-6.8899998664856
325.606423,-7.19000005722046
325.622048,-8.01000022888184
325.637673,-9.27000045776367
325.653298,-10.9799995422363
325.668923,-13.1999998092651
325.684548,-15.8599996566772
325.700173,-18.7600002288818
325.715798,-21.5799999237061
325.731423,-23.8700008392334
325.747048,-24.9899997711182
325.762673,-24.3299999237061
325.778298,-21.8400001525879
325.793923,-18.2999992370605
325.809548,-14.9200000762939
325.825173,-12.5299997329712
325.840798,-11.1999998092651
325.856423,-10.5799999237061
325.872048,-10.3999996185303
325.887673,-10.6499996185303
325.903298,-11.2299995422363
325.918923,-11.5200004577637
325.934548,-10.4799995422363
325.950173,-7.1399998664856
325.965798,-1.26999998092651
325.981423,6.46999979019165
325.997048,14.9799995422363
326.012673,23.1299991607666
326.028298,29.9500007629395
326.043923,34.8400001525879
326.059548,37.5200004577637
326.075173,38.1399993896484
326.090798,37.2400016784668
326.106423,35.7099990844727
326.122048,34.310001373291
326.137673,33.2799987792969
326.153298,32.1300010681152
326.168923,29.8700008392334
326.184548,25.6000003814697
326.200173,19.1200008392334
326.215798,11.210000038147
326.231423,3.13000011444092
326.247048,-3.98000001907349
326.262673,-9.52000045776367
326.278298,-13.539999961853
326.293923,-16.4099998474121
326.309548,-18.4500007629395
326.325173,-19.7399997711182
326.340798,-20.2399997711182
326.356423,-20.0100002288818
326.372048,-19.1299991607666
326.387673,-17.7299995422363
326.403298,-16.0100002288818
326.418923,-14.3699998855591
326.434548,-13.25
326.450173,-12.8800001144409
326.465798,-13.210000038147
326.481423,-14.1099996566772
326.497048,-15.5200004577637
326.512673,-17.3199996948242
326.528298,-19.1900005340576
326.543923,-20.5699996948242
326.559548,-21.0
326.575173,-20.4400005340576
326.590798,-19.2399997711182
326.606423,-17.8899993896484
326.622048,-16.5799999237061
326.637673,-15.3500003814697
326.653298,-14.25
326.668923,-13.3999996185303
326.684548,-12.6499996185303
326.700173,-11.7299995422363
326.715798,-10.6000003814697
326.731423,-9.51000022888184
326.747048,-8.52999973297119
326.762673,-7.21000003814697
326.778298,-4.48000001907349
326.793923,0.860000014305115
326.809548,9.27999973297119
326.825173,19.7900009155273
326.840798,30.1599998474121
326.856423,37.9500007629395
326.872048,41.7099990844727
326.887673,41.6599998474121
326.903298,39.3699989318848
326.918923,36.75
326.934548,34.9000015258789
326.950173,33.7700004577637
326.965798,32.6100006103516
326.981423,30.7399997711182
326.997048,27.8099994659424
327.012673,23.6800003051758
327.028298,18.3999996185303
327.043923,12.25
327.059548,5.8899998664856
327.075173,0.100000001490116
327.090798,-4.55000019073486
327.106423,-7.92999982833862
327.122048,-10.2299995422363
327.137673,-11.6999998092651
327.153298,-12.4899997711182
327.168923,-12.7600002288818
327.184548,-12.8699998855591
327.200173,-13.3199996948242
327.215798,-14.4099998474121
327.231423,-16.0100002288818
327.247048,-17.5
327.262673,-18.0799999237061
327.278298,-17.3199996948242
327.293923,-15.6199998855591
327.309548,-14.0500001907349
327.325173,-13.5200004577637
327.340798,-14.0500001907349
327.356423,-15.0299997329712
327.372048,-15.9300003051758
327.387673,-16.5799999237061
327.403298,-17.1000003814697
327.418923,-17.7900009155273
327.434548,-18.9400005340576
327.450173,-20.5499992370605
327.465798,-22.1900005340576
327.481423,-23.0300006866455
327.497048,-22.4500007629395
327.512673,-20.4200000762939
327.528298,-17.5699996948242
327.543923,-14.8299999237061
327.559548,-12.960000038147
327.575173,-12.2399997711182
327.590798,-12.1899995803833
327.606423,-11.5699996948242
327.622048,-8.67000007629395
327.637673,-2.3199999332428
327.653298,7.26999998092651
327.668923,18.4500007629395
327.684548,29.0100002288818
327.700173,37.1800003051758
327.715798,42.1699981689453
327.731423,44.1399993896484
327.747048,43.8800010681152
327.762673,42.3199996948242
327.778298,40.2400016784668
327.793923,38.2799987792969
327.809548,36.7799987792969
327.825173,35.5999984741211
327.840798,33.8699989318848
327.856423,30.4099998474121
327.872048,24.5400009155273
327.887673,16.7399997711182
327.903298,8.39999961853027
327.918923,1.05999994277954
327.934548,-4.25
327.950173,-7.51000022888184
327.965798,-9.55000019073486
327.981423,-11.5299997329712
327.997048,-13.960000038147
328.012673,-16.3899993896484
328.028298,-18.1700000762939
328.043923,-19.1399993896484
328.059548,-19.6000003814697
328.075173,-19.8899993896484
328.090798,-20.25
328.106423,-20.7299995422363
328.122048,-21.1299991607666
328.137673,-21.1900005340576
328.153298,-20.8899993896484
328.168923,-20.5
328.184548,-20.3400001525879
328.200173,-20.4799995422363
328.215798,-20.7099990844727
328.231423,-20.6900005340576
328.247048,-20.1499996185303
328.262673,-18.9400005340576
328.278298,-17.0900001525879
328.293923,-14.9499998092651
328.309548,-13.0600004196167
328.325173,-11.8800001144409
328.340798,-11.5699996948242
328.356423,-11.8699998855591
328.372048,-12.0600004196167
328.387673,-11.1599998474121
328.403298,-8.35999965667725
328.418923,-3.36999988555908
328.434548,3.60999989509583
328.450173,11.9899997711182
328.465798,20.6599998474121
328.481423,28.1200008392334
328.497048,33.0900001525879
328.512673,35.2000007629395
328.528298,35.0699996948242
328.543923,33.6599998474121
328.559548,31.7099990844727
328.575173,29.6599998474121
328.590798,27.9500007629395
328.606423,26.8999996185303
328.622048,26.3199996948242
328.637673,25.2399997711182
328.653298,22.4400005340576
328.668923,17.2900009155273
328.684548,10.4099998474121
328.700173,3.5
328.715798,-1.61000001430511
328.731423,-4.01999998092651
328.747048,-4.09999990463257
328.762673,-3.1800000667572
328.778298,-2.69000005722046
328.793923,-3.38000011444092
328.809548,-5.03999996185303
328.825173,-6.8600001335144
328.840798,-8.25
328.856423,-9.44999980926514
328.872048,-11.1199998855591
328.887673,-13.6700000762939
328.903298,-16.8999996185303
328.918923,-20.0499992370605
328.934548,-22.2600002288818
328.950173,-23.0799999237061
328.965798,-22.7600002288818
328.981423,-22.0499992370605
328.997048,-21.9400005340576
329.012673,-22.8899993896484
329.028298,-24.3400001525879
329.043923,-24.9599990844727
329.059548,-23.7099990844727
329.075173,-20.5200004577637
329.090798,-16.3099994659424
329.106423,-12.3400001525879
329.122048,-9.53999996185303
329.137673,-8.10000038146973
329.153298,-7.57000017166138
329.168923,-7.30000019073486
329.184548,-6.65000009536743
329.200173,-4.94000005722046
329.215798,-1.39999997615814
329.231423,4.44999980926514
329.247048,12.3699998855591
329.262673,21.1900005340576
329.278298,29.4500007629395
329.293923,36.0200004577637
329.309548,40.4099998474121
329.325173,42.689998626709
329.340798,43.3199996948242
329.356423,42.8800010681152
329.372048,41.75
329.387673,40.0099983215332
329.403298,37.6500015258789
329.418923,34.5900001525879
329.434548,30.5300006866455
329.450173,25.1100006103516
329.465798,18.2700004577637
329.481423,10.6599998474121
329.497048,3.36999988555908
329.512673,-2.63000011444092
329.528298,-7.03000020980835
329.543923,-9.98999977111816
329.559548,-11.8699998855591
329.575173,-12.9300003051758
329.590798,-13.3500003814697
329.606423,-13.3400001525879
329.622048,-13.2200002670288
329.637673,-13.3699998855591
329.653298,-14.039999961853
329.668923,-15.1700000762939
329.684548,-16.5599994659424
329.700173,-18.0900001525879
329.715798,-19.7299995422363
329.731423,-21.5300006866455
329.747048,-23.4099998474121
329.762673,-25.0
329.778298,-25.75
329.793923,-25.2700004577637
329.809548,-23.8500003814697
329.825173,-22.2900009155273
329.840798,-21.3500003814697
329.856423,-21.2000007629395
329.872048,-21.4099998474121
329.887673,-21.2000007629395
329.903298,-19.7800006866455
329.918923,-16.8999996185303
329.934548,-13.3599996566772
329.950173,-10.6099996566772
329.965798,-9.73999977111816
329.981423,-10.5
329.997048,-11.2700004577637
330.012673,-9.82999992370605
330.028298,-4.71000003814697
330.043923,4.07000017166138
330.059548,15.0500001907349
330.075173,26.0
330.090798,34.75
330.106423,39.8300018310547
330.122048,41.2299995422363
330.137673,40.3300018310547
330.153298,38.939998626709
330.168923,38.1199989318848
330.184548,37.8899993896484
330.200173,37.6699981689453
330.215798,36.7700004577637
330.231423,34.560001373291
330.247048,30.5100002288818
330.262673,24.5799999237061
330.278298,17.75
330.293923,11.4499998092651
330.309548,6.55000019073486
330.325173,2.85999989509583
330.340798,-0.419999986886978
330.356423,-3.96000003814697
330.372048,-7.75
330.387673,-11.3400001525879
330.403298,-14.2299995422363
330.418923,-16.2399997711182
330.434548,-17.6499996185303
330.450173,-18.9699993133545
330.465798,-20.5300006866455
330.481423,-22.2600002288818
330.497048,-23.7000007629395
330.512673,-24.5
330.528298,-24.6599998474121
330.543923,-24.4099998474121
330.559548,-23.8299999237061
330.575173,-22.8099994659424
330.590798,-21.3199996948242
330.606423,-19.6599998474121
330.622048,-18.3299999237061
330.637673,-17.7399997711182
330.653298,-17.9699993133545
330.668923,-18.6800003051758
330.684548,-19.2199993133545
330.700173,-19.0499992370605
330.715798,-18.0400009155273
330.731423,-16.4500007629395
330.747048,-14.8500003814697
330.762673,-13.7600002288818
330.778298,-13.2700004577637
330.793923,-12.5200004577637
330.809548,-9.96000003814697
330.825173,-4.15999984741211
330.840798,4.8600001335144
330.856423,15.4200000762939
330.872048,25.1000003814697
330.887673,32.060001373291
330.903298,35.6699981689453
330.918923,36.5499992370605
330.934548,35.9500007629395
330.950173,35.1500015258789
330.965798,34.9300003051758
330.981423,35.4799995422363
330.997048,36.3899993896484
331.012673,36.5999984741211
331.028298,34.6699981689453
331.043923,29.7199993133545
331.059548,22.1000003814697
331.075173,13.3000001907349
331.090798,5.25
331.106423,-0.519999980926514
331.122048,-3.5699999332428
331.137673,-4.65000009536743
331.153298,-5.1100001335144
331.168923,-5.98999977111816
331.184548,-7.73999977111816
331.200173,-10.3299999237061
331.215798,-13.3800001144409
331.231423,-16.1399993896484
331.247048,-17.8299999237061
331.262673,-18.0699996948242
331.278298,-17.0100002288818
331.293923,-15.0200004577637
331.309548,-12.6300001144409
331.325173,-10.6000003814697
331.340798,-9.63000011444092
331.356423,-10.0299997329712
331.372048,-11.5100002288818
331.387673,-13.3199996948242
331.403298,-14.6599998474121
331.418923,-14.9499998092651
331.434548,-14.0
331.450173,-11.960000038147
331.465798,-9.32999992370605
331.481423,-6.76999998092651
331.497048,-4.90999984741211
331.512673,-4.15999984741211
331.528298,-4.51999998092651
331.543923,-5.30999994277954
331.559548,-5.1399998664856
331.575173,-2.5
331.590798,3.39000010490417
331.606423,12.1400003433228
331.622048,22.3099994659424
331.637673,31.8400001525879
331.653298,38.7400016784668
331.668923,41.8600006103516
331.684548,41.1800003051758
331.700173,37.6199989318848
331.715798,32.6300010681152
331.731423,27.7900009155273
331.747048,24.3500003814697
331.762673,22.8600006103516
331.778298,22.8099994659424
331.793923,22.7199993133545
331.809548,20.9599990844727
331.825173,16.7299995422363
331.840798,10.4300003051758
331.856423,3.40000009536743
331.872048,-2.84999990463257
331.887673,-7.30000019073486
331.903298,-9.85000038146973
331.918923,-11.289999961853
331.934548,-12.7600002288818
331.950173,-14.9700002670288
331.965798,-17.9400005340576
331.981423,-21.3700008392334
331.997048,-25.0799999237061
332.012673,-29.0100002288818
332.028298,-32.8600006103516
332.043923,-35.8800010681152
332.059548,-37.2700004577637
332.075173,-36.7099990844727
332.090798,-34.689998626709
332.106423,-32.3400001525879
