Time(s),Value(%)
321.012673,-57.8499984741211
321.028298,-55.8499984741211
321.043923,-52.6199989318848
321.059548,-47.75
321.075173,-41.2599983215332
321.090798,-33.6599998474121
321.106423,-25.5499992370605
321.122048,-17.2099990844727
321.137673,-8.4399995803833
321.153298,0.860000014305115
321.168923,10.2200002670288
321.184548,18.7700004577637
321.200173,26.1000003814697
321.215798,32.4000015258789
321.231423,38.1300010681152
321.247048,43.439998626709
321.262673,47.8899993896484
321.278298,50.9300003051758
321.293923,52.4300003051758
321.309548,52.689998626709
321.325173,52.1300010681152
321.340798,50.9799995422363
321.356423,49.4099998474121
321.372048,47.560001373291
321.387673,45.5800018310547
321.403298,43.5299987792969
321.418923,41.3400001525879
321.434548,38.8899993896484
321.450173,36.1500015258789
321.465798,33.1399993896484
321.481423,29.8999996185303
321.497048,26.4899997711182
321.512673,22.9699993133545
321.528298,19.4500007629395
321.543923,16.0100002288818
321.559548,12.5900001525879
321.575173,9.02000045776367
321.590798,5.15999984741211
321.606423,1.11000001430511
321.622048,-2.82999992370605
321.637673,-6.40999984741211
321.653298,-9.47999954223633
321.668923,-12.1000003814697
321.684548,-14.4799995422363
321.700173,-16.9400005340576
321.715798,-19.7399997711182
321.731423,-22.9500007629395
321.747048,-26.5400009155273
321.762673,-30.6000003814697
321.778298,-35.2099990844727
321.793923,-40.2599983215332
321.809548,-45.2599983215332
321.825173,-49.4599990844727
321.840798,-52.1699981689453
321.856423,-53.1500015258789
321.872048,-52.5400009155273
321.887673,-50.6100006103516
321.903298,-47.6500015258789
321.918923,-43.9599990844727
321.934548,-39.9099998474121
321.950173,-35.75
321.965798,-31.25
321.981423,-25.6700000762939
321.997048,-18.2000007629395
322.012673,-8.65999984741211
322.028298,2.5
322.043923,14.6599998474121
322.059548,27.2600002288818
322.075173,39.7900009155273
322.090798,51.3899993896484
322.106423,60.9199981689453
322.122048,67.4499969482422
322.137673,70.9599990844727
322.153298,72.1399993896484
322.168923,71.8300018310547
322.184548,70.5800018310547
322.200173,68.7300033569336
322.215798,66.5299987792969
322.231423,64.1699981689453
322.247048,61.75
322.262673,59.2599983215332
322.278298,56.6100006103516
322.293923,53.75
322.309548,50.6800003051758
322.325173,47.3899993896484
322.340798,43.8800010681152
322.356423,40.2000007629395
322.372048,36.4599990844727
322.387673,32.75
322.403298,29.0599994659424
322.418923,25.1800003051758
322.434548,20.9599990844727
322.450173,16.4899997711182
322.465798,12.0799999237061
322.481423,8.01000022888184
322.497048,4.44999980926514
322.512673,1.35000002384186
322.528298,-1.50999999046326
322.543923,-4.51000022888184
322.559548,-7.90999984741211
322.575173,-11.7799997329712
322.590798,-16.1000003814697
322.606423,-20.9300003051758
322.622048,-26.3299999237061
322.637673,-32.1800003051758
322.653298,-37.9599990844727
322.668923,-42.8899993896484
322.684548,-46.4099998474121
322.700173,-48.5900001525879
322.715798,-49.9099998474121
322.731423,-50.7200012207031
322.747048,-51.0400009155273
322.762673,-50.7799987792969
322.778298,-49.9500007629395
322.793923,-48.6100006103516
322.809548,-46.5
322.825173,-42.8800010681152
322.840798,-36.9900016784668
322.856423,-28.7199993133545
322.872048,-18.5799999237061
322.887673,-7.30000019073486
322.903298,4.51000022888184
322.918923,16.3400001525879
322.934548,27.4599990844727
322.950173,36.9799995422363
322.965798,44.25
322.981423,49.2999992370605
322.997048,52.6699981689453
323.012673,54.8600006103516
323.028298,56.0999984741211
323.043923,56.5
323.059548,56.25
323.075173,55.5999984741211
323.090798,54.7400016784668
323.106423,53.6800003051758
323.122048,52.3600006103516
323.137673,50.7099990844727
323.153298,48.7400016784668
323.168923,46.4700012207031
323.184548,43.9099998474121
323.200173,41.1599998474121
323.215798,38.2900009155273
323.231423,35.3800010681152
323.247048,32.3800010681152
323.262673,29.1200008392334
323.278298,25.5300006866455
323.293923,21.7099990844727
323.309548,17.9599990844727
323.325173,14.5299997329712
323.340798,11.539999961853
323.356423,8.92000007629395
323.372048,6.40000009536743
323.387673,3.59999990463257
323.403298,0.200000002980232
323.418923,-3.85999989509583
323.434548,-8.51000022888184
323.450173,-13.710000038147
323.465798,-19.4699993133545
323.481423,-25.6100006103516
323.497048,-31.6200008392334
323.512673,-36.7400016784668
323.528298,-40.3600006103516
323.543923,-42.4700012207031
323.559548,-43.4799995422363
323.575173,-43.7000007629395
323.590798,-43.0
323.606423,-40.9799995422363
323.622048,-37.2999992370605
323.637673,-32.0900001525879
323.653298,-25.8600006103516
323.668923,-19.1299991607666
323.684548,-12.0200004577637
323.700173,-4.28999996185303
323.715798,4.17999982833862
323.731423,12.9300003051758
323.747048,21.0400009155273
323.762673,27.8099994659424
323.778298,33.060001373291
323.793923,37.1100006103516
323.809548,40.4000015258789
323.825173,43.1800003051758
323.840798,45.4799995422363
323.856423,47.2599983215332
323.872048,48.5900001525879
323.887673,49.6300010681152
323.903298,50.5800018310547
323.918923,51.5200004577637
323.934548,52.2700004577637
323.950173,52.4099998474121
323.965798,51.5200004577637
323.981423,49.3899993896484
323.997048,46.2099990844727
324.012673,42.3699989318848
324.028298,38.310001373291
324.043923,34.3499984741211
324.059548,30.6499996185303
324.075173,27.1900005340576
324.090798,23.7800006866455
324.106423,20.0900001525879
324.122048,15.8199996948242
324.137673,10.9200000762939
324.153298,5.44000005722046
324.168923,-0.569999992847443
324.184548,-7.11999988555908
324.200173,-14.0500001907349
324.215798,-20.8999996185303
324.231423,-27.0200004577637
324.247048,-32.0200004577637
324.262673,-36.0900001525879
324.278298,-39.7099990844727
324.293923,-43.1199989318848
324.309548,-46.2000007629395
324.325173,-48.6699981689453
324.340798,-50.439998626709
324.356423,-51.6300010681152
324.372048,-52.5400009155273
324.387673,-53.5400009155273
324.403298,-54.8800010681152
324.418923,-56.5699996948242
324.434548,-58.25
324.450173,-59.3199996948242
324.465798,-59.2700004577637
324.481423,-57.9199981689453
324.497048,-55.3199996948242
324.512673,-51.4300003051758
324.528298,-46.0499992370605
324.543923,-39.0200004577637
324.559548,-30.6599998474121
324.575173,-21.8299999237061
324.590798,-13.6099996566772
324.606423,-6.69999980926514
324.622048,-1.21000003814697
324.637673,3.21000003814697
324.653298,6.98999977111816
324.668923,10.2799997329712
324.684548,13.0200004577637
324.700173,15.1499996185303
324.715798,16.6700000762939
324.731423,17.6700000762939
324.747048,18.2800006866455
324.762673,18.6000003814697
324.778298,18.6900005340576
324.793923,18.4899997711182
324.809548,17.8199996948242
324.825173,16.5100002288818
324.840798,14.5699996948242
324.856423,12.210000038147
324.872048,9.81999969482422
324.887673,7.69000005722046
324.903298,5.94999980926514
324.918923,4.51000022888184
324.934548,3.09999990463257
324.950173,1.29999995231628
324.965798,-1.20000004768372
324.981423,-4.5
324.997048,-8.47000026702881
325.012673,-13.0900001525879
325.028298,-18.3299999237061
325.043923,-24.0300006866455
325.059548,-29.6599998474121
325.075173,-34.439998626709
325.090798,-37.8800010681152
325.106423,-40.1599998474121
325.122048,-41.8300018310547
325.137673,-43.2700004577637
325.153298,-44.4000015258789
325.168923,-45.0200004577637
325.184548,-45.0200004577637
325.200173,-44.5400009155273
325.215798,-43.8699989318848
325.231423,-43.4300003051758
325.247048,-43.5
325.262673,-44.1199989318848
325.278298,-45.0800018310547
325.293923,-46.0900001525879
325.309548,-46.8800010681152
325.325173,-47.25
325.340798,-46.6399993896484
325.356423,-44.0200004577637
325.372048,-38.4599990844727
325.387673,-29.8700008392334
325.403298,-19.0599994659424
325.418923,-7.11999988555908
325.434548,5.07000017166138
325.450173,16.9799995422363
325.465798,28.1200008392334
325.481423,37.8800010681152
325.497048,45.689998626709
325.512673,51.4300003051758
325.528298,55.3899993896484
325.543923,57.939998626709
325.559548,59.4000015258789
325.575173,60.0
325.590798,59.9300003051758
325.606423,59.4199981689453
325.622048,58.7000007629395
325.637673,57.9199981689453
325.653298,57.0900001525879
325.668923,56.1199989318848
325.684548,54.8499984741211
325.700173,53.2299995422363
325.715798,51.25
325.731423,48.9000015258789
325.747048,46.1800003051758
325.762673,43.1500015258789
325.778298,40.0099983215332
325.793923,36.9599990844727
325.809548,34.0999984741211
325.825173,31.25
325.840798,28.2299995422363
325.856423,25.0300006866455
325.872048,21.8799991607666
325.887673,19.0200004577637
325.903298,16.5799999237061
325.918923,14.4899997711182
325.934548,12.5100002288818
325.950173,10.25
325.965798,7.44999980926514
325.981423,4.03000020980835
325.997048,0.0599999986588955
326.012673,-4.46000003814697
326.028298,-9.55000019073486
326.043923,-15.0699996948242
326.059548,-20.5100002288818
326.075173,-25.0499992370605
326.090798,-27.8600006103516
326.106423,-28.4699993133545
326.122048,-26.8799991607666
326.137673,-23.4099998474121
326.153298,-18.6000003814697
326.168923,-13.1000003814697
326.184548,-7.51000022888184
326.200173,-2.20000004768372
326.215798,2.89000010490417
326.231423,8.30000019073486
326.247048,14.5799999237061
326.262673,21.8899993896484
326.278298,29.8700008392334
326.293923,37.9099998474121
326.309548,45.4099998474121
326.325173,52.0400009155273
326.340798,57.5
326.356423,61.439998626709
326.372048,63.5699996948242
326.387673,63.9799995422363
326.403298,63.1800003051758
326.418923,61.8699989318848
326.434548,60.6500015258789
326.450173,59.7400016784668
326.465798,58.9799995422363
326.481423,57.9300003051758
326.497048,56.0999984741211
326.512673,53.3199996948242
326.528298,49.7200012207031
326.543923,45.5999984741211
326.559548,41.2299995422363
326.575173,36.6699981689453
326.590798,31.8700008392334
326.606423,26.8299999237061
326.622048,21.6700000762939
326.637673,16.6100006103516
326.653298,11.6999998092651
326.668923,6.78999996185303
326.684548,1.64999997615814
326.700173,-3.64000010490417
326.715798,-8.8100004196167
326.731423,-13.5200004577637
326.747048,-17.6200008392334
326.762673,-21.1800003051758
326.778298,-24.4400005340576
326.793923,-27.7199993133545
326.809548,-31.2600002288818
326.825173,-35.1199989318848
326.840798,-39.2799987792969
326.856423,-43.810001373291
326.872048,-48.7900009155273
326.887673,-54.1199989318848
326.903298,-59.3400001525879
326.918923,-63.6500015258789
326.934548,-66.2300033569336
326.950173,-66.5100021362305
326.965798,-64.3899993896484
326.981423,-60.2000007629395
326.997048,-54.5499992370605
327.012673,-48.189998626709
327.028298,-41.810001373291
327.043923,-35.7799987792969
327.059548,-30.0200004577637
327.075173,-23.9500007629395
327.090798,-16.9699993133545
327.106423,-8.85000038146973
327.122048,0.159999996423721
327.137673,9.72999954223633
327.153298,19.5400009155273
327.168923,29.2099990844727
327.184548,38.0099983215332
327.200173,44.8300018310547
327.215798,48.8300018310547
327.231423,49.9900016784668
327.247048,49.0900001525879
327.262673,47.0499992370605
327.278298,44.5
327.293923,41.7599983215332
327.309548,38.939998626709
327.325173,36.0900001525879
327.340798,33.1800003051758
327.356423,30.1299991607666
327.372048,26.8700008392334
327.387673,23.3999996185303
327.403298,19.7399997711182
327.418923,15.9200000762939
327.434548,11.960000038147
327.450173,7.8899998664856
327.465798,3.79999995231628
327.481423,-0.270000010728836
327.497048,-4.36999988555908
327.512673,-8.64999961853027
327.528298,-13.210000038147
327.543923,-17.9300003051758
327.559548,-22.5300006866455
327.575173,-26.7299995422363
327.590798,-30.4200000762939
327.606423,-33.6599998474121
327.622048,-36.7000007629395
327.637673,-39.9099998474121
327.653298,-43.5800018310547
327.668923,-47.7799987792969
327.684548,-52.4099998474121
327.700173,-57.4000015258789
327.715798,-62.7200012207031
327.731423,-68.2099990844727
327.747048,-73.4499969482422
327.762673,-77.6900024414063
327.778298,-80.0999984741211
327.793923,-80.1100006103516
327.809548,-77.5599975585938
327.825173,-72.7399978637695
327.840798,-66.0
327.856423,-57.5999984741211
327.872048,-47.7000007629395
327.887673,-36.7599983215332
327.903298,-25.6499996185303
327.918923,-15.4499998092651
327.934548,-6.84000015258789
327.950173,0.28999999165535
327.965798,6.48999977111816
327.981423,11.9099998474121
327.997048,16.3099994659424
328.012673,19.4099998474121
328.028298,21.2800006866455
328.043923,22.2900009155273
328.059548,22.7600002288818
328.075173,22.8199996948242
328.090798,22.3500003814697
328.106423,21.3099994659424
328.122048,19.7800006866455
328.137673,17.9899997711182
328.153298,16.1499996185303
328.168923,14.3900003433228
328.184548,12.6800003051758
328.200173,10.8199996948242
328.215798,8.55000019073486
328.231423,5.73000001907349
328.247048,2.38000011444092
328.262673,-1.24000000953674
328.278298,-4.86999988555908
328.293923,-8.27000045776367
328.309548,-11.3199996948242
328.325173,-14.0799999237061
328.340798,-16.7099990844727
328.356423,-19.5400009155273
328.372048,-22.7999992370605
328.387673,-26.5499992370605
328.403298,-30.7099990844727
328.418923,-35.2400016784668
328.434548,-40.1100006103516
328.450173,-45.2000007629395
328.465798,-50.1300010681152
328.481423,-54.3499984741211
328.497048,-57.5099983215332
328.512673,-59.6800003051758
328.528298,-61.25
328.543923,-62.4500007629395
328.559548,-63.2799987792969
328.575173,-63.6399993896484
328.590798,-63.5
328.606423,-62.8600006103516
328.622048,-61.3499984741211
328.637673,-58.0499992370605
328.653298,-52.0699996948242
328.668923,-43.2700004577637
328.684548,-32.2400016784668
328.700173,-19.7900009155273
328.715798,-6.57000017166138
328.731423,6.78999996185303
328.747048,19.4099998474121
328.762673,30.0900001525879
328.778298,37.9500007629395
328.793923,43.0099983215332
328.809548,45.9599990844727
328.825173,47.439998626709
328.840798,47.7999992370605
328.856423,47.2000007629395
328.872048,45.9099998474121
328.887673,44.2299995422363
328.903298,42.4000015258789
328.918923,40.5
328.934548,38.4700012207031
328.950173,36.2400016784668
328.965798,33.8199996948242
328.981423,31.2299995422363
328.997048,28.5200004577637
329.012673,25.75
329.028298,22.9599990844727
329.043923,20.0900001525879
329.059548,16.9699993133545
329.075173,13.3999996185303
329.090798,9.25
329.106423,4.69000005722046
329.122048,0.0500000007450581
329.137673,-4.30999994277954
329.153298,-8.1899995803833
329.168923,-11.6099996566772
329.184548,-14.7700004577637
329.200173,-18.0
329.215798,-21.5699996948242
329.231423,-25.5599994659424
329.247048,-29.9599990844727
329.262673,-34.8199996948242
329.278298,-40.189998626709
329.293923,-45.9599990844727
329.309548,-51.6199989318848
329.325173,-56.3600006103516
329.340798,-59.4300003051758
329.356423,-60.4799995422363
329.372048,-59.5699996948242
329.387673,-57.0
329.403298,-53.189998626709
329.418923,-48.6100006103516
329.434548,-43.7400016784668
329.450173,-38.8800010681152
329.465798,-33.8300018310547
329.481423,-27.7999992370605
329.497048,-19.9699993133545
329.512673,-10.1400003433228
329.528298,1.25999999046326
329.543923,13.6300001144409
329.559548,26.4300003051758
329.575173,39.1199989318848
329.590798,50.8199996948242
329.606423,60.2799987792969
329.622048,66.5
329.637673,69.4700012207031
329.653298,70.0
329.668923,69.0100021362305
329.684548,67.1699981689453
329.700173,64.8199996948242
329.715798,62.189998626709
329.731423,59.4500007629395
329.747048,56.6500015258789
329.762673,53.7400016784668
329.778298,50.6500015258789
329.793923,47.3300018310547
329.809548,43.7999992370605
329.825173,40.0699996948242
329.840798,36.1699981689453
329.856423,32.1500015258789
329.872048,28.1100006103516
329.887673,24.1200008392334
329.903298,20.1299991607666
329.918923,15.960000038147
329.934548,11.4700002670288
329.950173,6.73999977111816
329.965798,2.07999992370605
329.981423,-2.20000004768372
329.997048,-5.94999980926514
330.012673,-9.22000026702881
330.028298,-12.25
330.043923,-15.3599996566772
330.059548,-18.8199996948242
330.075173,-22.6900005340576
330.090798,-26.8400001525879
330.106423,-31.0900001525879
330.122048,-35.3400001525879
330.137673,-39.4300003051758
330.153298,-43.060001373291
330.168923,-45.6500015258789
330.184548,-46.5099983215332
330.200173,-45.0299987792969
330.215798,-41.060001373291
330.231423,-34.939998626709
330.247048,-27.1900005340576
330.262673,-18.0900001525879
330.278298,-7.75
330.293923,3.49000000953674
330.309548,14.8500003814697
330.325173,25.1700000762939
330.340798,33.6399993896484
330.356423,40.3199996948242
330.372048,45.7000007629395
330.387673,50.0200004577637
330.403298,53.1100006103516
330.418923,54.810001373291
330.434548,55.2700004577637
330.450173,54.9000015258789
330.465798,54.0499992370605
330.481423,52.7900009155273
330.497048,50.9599990844727
330.512673,48.4700012207031
330.528298,45.4199981689453
330.543923,41.9900016784668
330.559548,38.3899993896484
330.575173,34.7700004577637
330.590798,31.2000007629395
330.606423,27.6200008392334
330.622048,23.8400001525879
330.637673,19.6700000762939
330.653298,15.039999961853
330.668923,10.1199998855591
330.684548,5.26000022888184
330.700173,0.769999980926514
330.715798,-3.21000003814697
330.731423,-6.76000022888184
330.747048,-10.1199998855591
330.762673,-13.6700000762939
330.778298,-17.7399997711182
330.793923,-22.3899993896484
330.809548,-27.5599994659424
330.825173,-33.2400016784668
330.840798,-39.4799995422363
330.856423,-46.1100006103516
330.872048,-52.5999984741211
330.887673,-58.1599998474121
330.903298,-62.1599998474121
330.918923,-64.5100021362305
330.934548,-65.5299987792969
330.950173,-65.5500030517578
330.965798,-64.7300033569336
330.981423,-63.189998626709
330.997048,-61.1300010681152
331.012673,-58.7000007629395
331.028298,-55.5900001525879
331.043923,-50.9199981689453
331.059548,-43.7900009155273
331.075173,-34.0
331.090798,-22.1700000762939
331.106423,-9.11999988555908
331.122048,4.40000009536743
331.137673,17.7900009155273
331.153298,30.1700000762939
331.168923,40.3600006103516
331.184548,47.4300003051758
331.200173,51.2700004577637
331.215798,52.5400009155273
331.231423,52.0699996948242
331.247048,50.4500007629395
331.262673,48.1100006103516
331.278298,45.4199981689453
331.293923,42.6199989318848
331.309548,39.8600006103516
331.325173,37.0999984741211
331.340798,34.2400016784668
331.356423,31.2000007629395
331.372048,27.9200000762939
331.387673,24.2700004577637
331.403298,20.1900005340576
331.418923,15.7200002670288
331.434548,11.1000003814697
331.450173,6.6100001335144
331.465798,2.33999991416931
331.481423,-1.88999998569489
331.497048,-6.34999990463257
331.512673,-10.9799995422363
331.528298,-15.4200000762939
331.543923,-19.3099994659424
331.559548,-22.5
331.575173,-25.1000003814697
331.590798,-27.4300003051758
331.606423,-29.9300003051758
331.622048,-32.9099998474121
331.637673,-36.439998626709
331.653298,-40.439998626709
331.668923,-44.8199996948242
331.684548,-49.5499992370605
331.700173,-54.4900016784668
331.715798,-59.1199989318848
331.731423,-62.5900001525879
331.747048,-63.939998626709
331.762673,-62.5400009155273
331.778298,-58.3199996948242
331.793923,-51.7400016784668
331.809548,-43.6300010681152
331.825173,-34.9199981689453
331.840798,-26.3799991607666
331.856423,-18.4200000762939
331.872048,-10.9899997711182
331.887673,-3.60999989509583
331.903298,4.19000005722046
331.918923,12.6300001144409
331.934548,21.5499992370605
331.950173,30.6200008392334
331.965798,39.5800018310547
331.981423,48.1300010681152
331.997048,55.7000007629395
332.012673,61.4099998474121
332.028298,64.4800033569336
332.043923,64.8399963378906
332.059548,63.1500015258789
332.075173,60.3499984741211
332.090798,57.2000007629395
332.106423,54.1399993896484
332.122048,51.3199996948242
332.137673,48.689998626709
332.153298,46.0499992370605
332.168923,43.1399993896484
332.184548,39.7700004577637
332.200173,35.9099998474121
