Time(s),Value(%)
1070.0041916,141.220001220703
1070.0198166,99.3499984741211
1070.0354416,69.0299987792969
1070.0510666,44.8699989318848
1070.0666916,21.0599994659424
1070.0823166,-5.05000019073486
1070.0979416,-31.8500003814697
1070.1135666,-54.9599990844727
1070.1291916,-70.3600006103516
1070.1448166,-76.7699966430664
1070.1604416,-76.0100021362305
1070.1760666,-71.4400024414063
1070.1916916,-66.370002746582
1070.2073166,-63.0699996948242
1070.2229416,-62.5999984741211
1070.2385666,-64.9199981689453
1070.2541916,-69.120002746582
1070.2698166,-73.870002746582
1070.2854416,-78.1399993896484
1070.3010666,-81.3600006103516
1070.3166916,-83.2799987792969
1070.3323166,-83.9899978637695
1070.3479416,-83.870002746582
1070.3635666,-83.4899978637695
1070.3791916,-83.5100021362305
1070.3948166,-84.6600036621094
1070.4104416,-87.3199996948242
1070.4260666,-91.0899963378906
1070.4416916,-94.8199996948242
1070.4573166,-97.0999984741211
1070.4729416,-95.8000030517578
1070.4885666,-86.0100021362305
1070.5041916,-59.2000007629395
1070.5198166,-7.01999998092651
1070.5354416,71.0100021362305
1070.5510666,162.570007324219
1070.5666916,245.880004882813
1070.5823166,299.899993896484
1070.5979416,313.950012207031
1070.6135666,291.059997558594
1070.6291916,244.199996948242
1070.6448166,189.229995727539
1070.6604416,138.610000610352
1070.6760666,98.1900024414063
1070.6916916,67.0599975585938
1070.7073166,40.2599983215332
1070.7229416,12.9300003051758
1070.7385666,-16.4099998474121
1070.7541916,-45.2799987792969
1070.7698166,-69.1500015258789
1070.7854416,-84.2699966430664
1070.8010666,-89.5299987792969
1070.8166916,-86.8399963378906
1070.8323166,-80.1100006103516
1070.8479416,-73.5100021362305
1070.8635666,-70.0100021362305
1070.8791916,-70.5999984741211
1070.8948166,-74.5299987792969
1070.9104416,-80.1399993896484
1070.9260666,-85.8499984741211
1070.9416916,-90.4800033569336
1070.9573166,-93.2200012207031
1070.9729416,-93.6999969482422
1070.9885666,-92.4899978637695
1071.0041916,-91.2699966430664
1071.0198166,-91.8899993896484
1071.0354416,-95.120002746582
1071.0510666,-99.9199981689453
1071.0666916,-104.069999694824
1071.0823166,-105.470001220703
1071.0979416,-103.419998168945
1071.1135666,-98.9000015258789
1071.1291916,-93.0400009155273
1071.1448166,-84.1500015258789
1071.1604416,-64.9100036621094
1071.1760666,-24.0
1071.1916916,45.7900009155273
1071.2073166,138.679992675781
1071.2229416,234.619995117188
1071.2385666,308.369995117188
1071.2541916,327.670013427734
1071.2698166,327.670013427734
1071.2854416,290.589996337891
1071.3010666,234.429992675781
1071.3166916,179.880004882813
1071.3323166,135.639999389648
1071.3479416,102.809997558594
1071.3635666,77.6100006103516
1071.3791916,54.7900009155273
1071.3948166,30.0599994659424
1071.4104416,1.69000005722046
1071.4260666,-28.8899993896484
1071.4416916,-57.6500015258789
1071.4573166,-79.9100036621094
1071.4729416,-92.9899978637695
1071.4885666,-97.4100036621094
1071.5041916,-96.0500030517578
1071.5198166,-92.3899993896484
1071.5354416,-89.1500015258789
1071.5510666,-87.8600006103516
1071.5666916,-88.9000015258789
1071.5823166,-91.7399978637695
1071.5979416,-95.1999969482422
1071.6135666,-98.0299987792969
1071.6291916,-99.7300033569336
1071.6448166,-100.75
1071.6604416,-101.699996948242
1071.6760666,-102.720001220703
1071.6916916,-103.699996948242
1071.7073166,-104.76000213623
1071.7229416,-106.120002746582
1071.7385666,-107.73999786377
1071.7541916,-109.080001831055
1071.7698166,-109.480003356934
1071.7854416,-108.419998168945
1071.8010666,-104.629997253418
1071.8166916,-93.9000015258789
1071.8323166,-67.5599975585938
1071.8479416,-15.9200000762939
1071.8635666,63.2099990844727
1071.8791916,158.139999389648
1071.8948166,246.119995117188
1071.9104416,304.299987792969
1071.9260666,320.470001220703
1071.9416916,297.279998779297
1071.9573166,248.809997558594
1071.9729416,192.789993286133
1071.9885666,143.089996337891
1072.0041916,105.839996337891
1072.0198166,79.6900024414063
1072.0354416,58.7799987792969
1072.0510666,36.9199981689453
1072.0666916,10.9399995803833
1072.0823166,-17.9599990844727
1072.0979416,-45.5699996948242
1072.1135666,-67.2099990844727
1072.1291916,-80.1800003051758
1072.1448166,-84.75
1072.1604416,-83.5299987792969
1072.1760666,-79.879997253418
1072.1916916,-76.3899993896484
1072.2073166,-74.4899978637695
1072.2229416,-74.6800003051758
1072.2385666,-76.6900024414063
1072.2541916,-79.5699996948242
1072.2698166,-82.2300033569336
1072.2854416,-84.0100021362305
1072.3010666,-85.0299987792969
1072.3166916,-86.0699996948242
1072.3323166,-87.8399963378906
1072.3479416,-90.4400024414063
1072.3635666,-93.4400024414063
1072.3791916,-96.25
1072.3948166,-98.370002746582
1072.4104416,-99.3499984741211
1072.4260666,-99.0199966430664
1072.4416916,-97.6900024414063
1072.4573166,-96.1399993896484
1072.4729416,-93.9100036621094
1072.4885666,-86.4700012207031
1072.5041916,-63.8699989318848
1072.5198166,-15.0100002288818
1072.5354416,63.0800018310547
1072.5510666,158.460006713867
1072.5666916,247.199996948242
1072.5823166,305.239990234375
1072.5979416,319.869995117188
1072.6135666,293.940002441406
1072.6291916,242.050003051758
1072.6448166,182.460006713867
1072.6604416,129.639999389648
1072.6760666,90.2399978637695
1072.6916916,63.2200012207031
1072.7073166,42.8199996948242
1072.7229416,22.7299995422363
1072.7385666,-0.25
1072.7541916,-24.7900009155273
1072.7698166,-46.4900016784668
1072.7854416,-61.2299995422363
1072.8010666,-67.6999969482422
1072.8166916,-67.75
1072.8323166,-64.9499969482422
1072.8479416,-62.5200004577637
1072.8635666,-62.1100006103516
1072.8791916,-63.9000015258789
1072.8948166,-67.4800033569336
1072.9104416,-72.5299987792969
1072.9260666,-78.6399993896484
1072.9416916,-84.9400024414063
1072.9573166,-90.3499984741211
1072.9729416,-94.0699996948242
1072.9885666,-95.8499984741211
1073.0041916,-95.879997253418
1073.0198166,-94.9899978637695
1073.0354416,-94.3099975585938
1073.0510666,-94.3300018310547
1073.0666916,-94.3099975585938
1073.0823166,-93.0699996948242
1073.0979416,-90.2099990844727
1073.1135666,-86.1699981689453
1073.1291916,-80.1800003051758
1073.1448166,-67.1399993896484
1073.1604416,-37.0800018310547
1073.1760666,19.4200000762939
1073.1916916,101.959999084473
1073.2073166,195.520004272461
1073.2229416,275.910003662109
1073.2385666,321.839996337891
1073.2541916,324.980010986328
1073.2698166,292.0
1073.2854416,239.119995117188
1073.3010666,183.550003051758
1073.3166916,136.869995117188
1073.3323166,102.940002441406
1073.3479416,79.5599975585938
1073.3635666,61.2099990844727
1073.3791916,42.0200004577637
1073.3948166,18.3500003814697
1073.4104416,-9.55000019073486
1073.4260666,-37.9099998474121
1073.4416916,-61.4799995422363
1073.4573166,-76.3199996948242
1073.4729416,-81.4800033569336
1073.4885666,-79.0
1073.5041916,-72.6500015258789
1073.5198166,-66.2699966430664
1073.5354416,-62.4700012207031
1073.5510666,-62.189998626709
1073.5666916,-64.9499969482422
1073.5823166,-69.4100036621094
1073.5979416,-74.0
1073.6135666,-77.6699981689453
1073.6291916,-80.379997253418
1073.6448166,-82.8199996948242
1073.6604416,-85.6500015258789
1073.6760666,-89.0400009155273
1073.6916916,-92.75
1073.7073166,-96.4300003051758
1073.7229416,-99.7099990844727
1073.7385666,-102.269996643066
1073.7541916,-103.559997558594
1073.7698166,-102.690002441406
1073.7854416,-98.1699981689453
1073.8010666,-86.7600021362305
1073.8166916,-61.7799987792969
1073.8323166,-14.25
1073.8479416,60.3400001525879
1073.8635666,154.289993286133
1073.8791916,247.149993896484
1073.8948166,314.690002441406
1073.9104416,327.670013427734
1073.9260666,324.989990234375
1073.9416916,278.589996337891
1073.9573166,219.460006713867
1073.9729416,163.029998779297
1073.9885666,117.870002746582
1074.0041916,85.3199996948242
1074.0198166,61.8300018310547
1074.0354416,41.8800010681152
1074.0510666,20.8600006103516
1074.0666916,-3.23000001907349
1074.0823166,-29.4500007629395
1074.0979416,-54.7900009155273
1074.1135666,-75.5
1074.1291916,-88.9300003051758
1074.1448166,-94.8499984741211
1074.1604416,-95.5199966430664
1074.1760666,-94.3499984741211
1074.1916916,-94.0299987792969
1074.2073166,-95.5599975585938
1074.2229416,-98.4300003051758
1074.2385666,-101.819999694824
1074.2541916,-105.389999389648
1074.2698166,-109.120002746582
1074.2854416,-112.73999786377
1074.3010666,-115.559997558594
1074.3166916,-117.080001831055
1074.3323166,-117.699996948242
1074.3479416,-118.730003356934
1074.3635666,-121.190002441406
1074.3791916,-124.650001525879
1074.3948166,-127.470001220703
1074.4104416,-128.110000610352
1074.4260666,-126.190002441406
1074.4416916,-122.269996643066
1074.4573166,-116.089996337891
1074.4729416,-103.449996948242
1074.4885666,-74.6100006103516
1074.5041916,-18.5900001525879
1074.5198166,67.0199966430664
1074.5354416,169.050003051758
1074.5510666,261.970001220703
1074.5666916,320.510009765625
1074.5823166,327.670013427734
1074.5979416,300.959991455078
1074.6135666,243.949996948242
1074.6291916,180.929992675781
1074.6448166,126.779998779297
1074.6604416,87.5199966430664
1074.6760666,61.2000007629395
1074.6916916,41.4799995422363
1074.7073166,21.6000003814697
1074.7229416,-2.49000000953674
1074.7385666,-30.6299991607666
1074.7541916,-58.8499984741211
1074.7698166,-81.8499984741211
1074.7854416,-95.7099990844727
1074.8010666,-99.4400024414063
1074.8166916,-95.0400009155273
1074.8323166,-86.3600006103516
1074.8479416,-77.3899993896484
1074.8635666,-70.9199981689453
1074.8791916,-68.1699981689453
1074.8948166,-68.9800033569336
1074.9104416,-72.2399978637695
1074.9260666,-76.4300003051758
1074.9416916,-80.25
1074.9573166,-82.8000030517578
1074.9729416,-83.7699966430664
1074.9885666,-83.379997253418
1075.0041916,-82.379997253418
1075.0198166,-81.879997253418
1075.0354416,-82.9199981689453
1075.0510666,-85.7799987792969
1075.0666916,-89.4300003051758
1075.0823166,-92.0400009155273
1075.0979416,-92.0100021362305
1075.1135666,-88.2399978637695
1075.1291916,-78.0100021362305
1075.1448166,-54.2599983215332
1075.1604416,-7.5
1075.1760666,66.0199966430664
1075.1916916,156.75
1075.2073166,243.059997558594
1075.2229416,301.510009765625
1075.2385666,318.200012207031
1075.2541916,294.019989013672
1075.2698166,242.110000610352
1075.2854416,180.550003051758
1075.3010666,124.440002441406
1075.3166916,81.1399993896484
1075.3323166,50.0999984741211
1075.3479416,26.1200008392334
1075.3635666,3.3199999332428
1075.3791916,-21.6399993896484
1075.3948166,-48.0999984741211
1075.4104416,-72.0500030517578
1075.4260666,-88.7600021362305
1075.4416916,-95.5800018310547
1075.4573166,-92.9000015258789
1075.4729416,-83.4599990844727
1075.4885666,-71.3099975585938
1075.5041916,-60.9199981689453
1075.5198166,-56.0200004577637
1075.5354416,-58.1800003051758
1075.5510666,-66.1800003051758
1075.5666916,-76.7699966430664
1075.5823166,-86.3300018310547
1075.5979416,-92.1600036621094
1075.6135666,-93.3600006103516
1075.6291916,-91.0800018310547
1075.6448166,-87.6100006103516
1075.6604416,-85.0599975585938
1075.6760666,-84.3499984741211
1075.6916916,-85.2799987792969
1075.7073166,-87.120002746582
1075.7229416,-89.2099990844727
1075.7385666,-91.1500015258789
1075.7541916,-92.3499984741211
1075.7698166,-90.4300003051758
1075.7854416,-78.7900009155273
1075.8010666,-46.6300010681152
1075.8166916,15.2799997329712
1075.8323166,105.379997253418
1075.8479416,206.809997558594
1075.8635666,293.350006103516
1075.8791916,327.670013427734
1075.8948166,327.670013427734
1075.9104416,305.299987792969
1075.9260666,245.389999389648
1075.9416916,182.970001220703
1075.9573166,131.130004882813
1075.9729416,94.0
1075.9885666,68.4199981689453
1076.0041916,47.6300010681152
1076.0198166,25.1599998474121
1076.0354416,-2.20000004768372
1076.0510666,-33.1199989318848
1076.0666916,-62.7400016784668
1076.0823166,-85.3300018310547
1076.0979416,-96.9300003051758
1076.1135666,-97.3000030517578
1076.1291916,-90.0800018310547
1076.1448166,-80.6900024414063
1076.1604416,-73.629997253418
1076.1760666,-71.0999984741211
1076.1916916,-73.1500015258789
1076.2073166,-78.4100036621094
1076.2229416,-84.9599990844727
1076.2385666,-91.1800003051758
1076.2541916,-96.0299987792969
1076.2698166,-98.8199996948242
1076.2854416,-99.0599975585938
1076.3010666,-96.8199996948242
1076.3166916,-93.0199966430664
1076.3323166,-89.2600021362305
1076.3479416,-87.0
1076.3635666,-86.7600021362305
1076.3791916,-88.129997253418
1076.3948166,-90.3000030517578
1076.4104416,-92.5599975585938
1076.4260666,-93.879997253418
1076.4416916,-90.9800033569336
1076.4573166,-75.7200012207031
1076.4729416,-36.1800003051758
1076.4885666,35.2200012207031
1076.5041916,131.860000610352
1076.5198166,231.649993896484
1076.5354416,307.279998779297
1076.5510666,327.670013427734
1076.5666916,327.149993896484
1076.5823166,280.970001220703
1076.5979416,220.360000610352
1076.6135666,162.449996948242
1076.6291916,117.029998779297
1076.6448166,85.370002746582
1076.6604416,62.7400016784668
1076.6760666,42.560001373291
1076.6916916,19.7700004577637
1076.7073166,-7.28999996185303
1076.7229416,-36.3800010681152
1076.7385666,-62.5
1076.7541916,-80.6900024414063
1076.7698166,-88.9000015258789
1076.7854416,-88.6600036621094
1076.8010666,-83.8099975585938
1076.8166916,-78.5899963378906
1076.8323166,-76.1999969482422
1076.8479416,-78.0500030517578
1076.8635666,-83.620002746582
1076.8791916,-90.9899978637695
1076.8948166,-97.7799987792969
1076.9104416,-102.25
1076.9260666,-104.0
1076.9416916,-103.919998168945
1076.9573166,-103.370002746582
1076.9729416,-103.430000305176
1076.9885666,-104.400001525879
1077.0041916,-105.650001525879
1077.0198166,-106.169998168945
1077.0354416,-105.269996643066
1077.0510666,-103.050003051758
1077.0666916,-100.180000305176
1077.0823166,-97.0500030517578
1077.0979416,-92.0299987792969
1077.1135666,-79.129997253418
1077.1291916,-47.6800003051758
1077.1448166,11.8699998855591
1077.1604416,98.4100036621094
1077.1760666,195.460006713867
1077.1916916,277.390014648438
1077.2073166,322.220001220703
1077.2229416,321.630004882813
1077.2385666,282.739990234375
1077.2541916,222.559997558594
1077.2698166,159.479995727539
1077.2854416,106.419998168945
1077.3010666,68.129997253418
1077.3166916,42.3199996948242
1077.3323166,22.8799991607666
1077.3479416,3.76999998092651
1077.3635666,-17.9500007629395
1077.3791916,-40.9599990844727
1077.3948166,-60.9099998474121
1077.4104416,-73.370002746582
1077.4260666,-76.7600021362305
1077.4416916,-73.1900024414063
1077.4573166,-67.0599975585938
1077.4729416,-62.6599998474121
1077.4885666,-62.5699996948242
1077.5041916,-67.25
1077.5198166,-75.2300033569336
1077.5354416,-83.8399963378906
1077.5510666,-90.3000030517578
1077.5666916,-92.9400024414063
1077.5823166,-91.8399963378906
1077.5979416,-88.5299987792969
1077.6135666,-85.0500030517578
1077.6291916,-82.870002746582
1077.6448166,-82.3099975585938
1077.6604416,-82.9100036621094
1077.6760666,-84.2699966430664
1077.6916916,-86.0800018310547
1077.7073166,-87.6399993896484
1077.7229416,-87.620002746582
1077.7385666,-83.0800018310547
1077.7541916,-67.4400024414063
1077.7698166,-30.8899993896484
1077.7854416,33.5200004577637
1077.8010666,121.379997253418
1077.8166916,214.509994506836
1077.8323166,288.209991455078
1077.8479416,323.339996337891
1077.8635666,314.869995117188
1077.8791916,272.290008544922
1077.8948166,212.929992675781
1077.9104416,153.619995117188
1077.9260666,104.980003356934
1077.9416916,69.879997253418
1077.9573166,45.1300010681152
1077.9729416,24.6900005340576
1077.9885666,3.19000005722046
1078.0041916,-21.6299991607666
1078.0198166,-48.2700004577637
1078.0354416,-72.5999984741211
1078.0510666,-90.1900024414063
1078.0666916,-98.5
1078.0823166,-98.0400009155273
1078.0979416,-92.0100021362305
1078.1135666,-84.5400009155273
1078.1291916,-78.7200012207031
1078.1448166,-75.7200012207031
1078.1604416,-75.2300033569336
1078.1760666,-76.4599990844727
1078.1916916,-78.7399978637695
1078.2073166,-81.6100006103516
1078.2229416,-84.5500030517578
1078.2385666,-86.9800033569336
1078.2541916,-88.3300018310547
1078.2698166,-88.4400024414063
1078.2854416,-88.0100021362305
1078.3010666,-88.3300018310547
1078.3166916,-90.2900009155273
1078.3323166,-93.8600006103516
1078.3479416,-98.1600036621094
1078.3635666,-101.970001220703
1078.3791916,-103.73999786377
1078.3948166,-100.230003356934
1078.4104416,-84.1100006103516
1078.4260666,-44.3899993896484
1078.4416916,26.7199993133545
1078.4573166,124.360000610352
1078.4729416,228.309997558594
1078.4885666,311.279998779297
1078.5041916,327.670013427734
1078.5198166,327.670013427734
1078.5354416,304.149993896484
1078.5510666,244.139999389648
1078.5666916,184.630004882813
1078.5823166,136.550003051758
1078.5979416,102.120002746582
1078.6135666,77.3499984741211
1078.6291916,55.7799987792969
1078.6448166,32.0099983215332
1078.6604416,3.84999990463257
1078.6760666,-27.0
1078.6916916,-56.1699981689453
1078.7073166,-78.6800003051758
1078.7229416,-91.2699966430664
1078.7385666,-93.7399978637695
1078.7541916,-89.0899963378906
1078.7698166,-82.1800003051758
1078.7854416,-77.5500030517578
1078.8010666,-77.5800018310547
1078.8166916,-82.0800018310547
1078.8323166,-89.120002746582
1078.8479416,-96.2200012207031
1078.8635666,-101.480003356934
1078.8791916,-104.089996337891
1078.8948166,-104.330001831055
1078.9104416,-103.230003356934
1078.9260666,-102.180000305176
1078.9416916,-102.300003051758
1078.9573166,-103.980003356934
1078.9729416,-106.860000610352
1078.9885666,-110.180000305176
1079.0041916,-113.01000213623
1079.0198166,-114.669998168945
1079.0354416,-114.569999694824
1079.0510666,-110.610000610352
1079.0666916,-96.6999969482422
1079.0823166,-62.7099990844727
1079.0979416,-0.129999995231628
1079.1135666,88.7900009155273
1079.1291916,187.119995117188
1079.1448166,269.570007324219
1079.1604416,315.059997558594
1079.1760666,316.459991455078
1079.1916916,281.640014648438
1079.2073166,227.139999389648
1079.2229416,169.720001220703
1079.2385666,120.639999389648
1079.2541916,83.8499984741211
1079.2698166,57.1100006103516
1079.2854416,34.8300018310547
1079.3010666,11.6300001144409
1079.3166916,-14.6800003051758
1079.3323166,-42.2700004577637
1079.3479416,-66.7699966430664
1079.3635666,-83.8499984741211
1079.3791916,-91.5500030517578
1079.3948166,-91.2399978637695
1079.4104416,-86.6600036621094
1079.4260666,-81.879997253418
1079.4416916,-79.4700012207031
1079.4573166,-79.9100036621094
1079.4729416,-82.3600006103516
1079.4885666,-85.75
1079.5041916,-89.0899963378906
1079.5198166,-91.4199981689453
1079.5354416,-91.9300003051758
1079.5510666,-90.5400009155273
1079.5666916,-87.9800033569336
1079.5823166,-85.4700012207031
1079.5979416,-84.1999969482422
1079.6135666,-84.8499984741211
1079.6291916,-87.3099975585938
1079.6448166,-90.6399993896484
1079.6604416,-93.5500030517578
1079.6760666,-95.0400009155273
1079.6916916,-94.620002746582
1079.7073166,-90.5999984741211
1079.7229416,-77.2200012207031
1079.7385666,-44.4599990844727
1079.7541916,15.8199996948242
1079.7698166,100.830001831055
1079.7854416,193.470001220703
1079.8010666,269.089996337891
1079.8166916,307.769989013672
1079.8323166,303.230010986328
1079.8479416,263.779998779297
1079.8635666,206.389999389648
1079.8791916,148.190002441406
1079.8948166,100.169998168945
1079.9104416,65.4700012207031
1079.9260666,41.1199989318848
1079.9416916,21.1299991607666
1079.9573166,0.0399999991059303
1079.9729416,-23.9899997711182
1079.9885666,-48.1300010681152
1080.0041916,-67.0
1080.0198166,-76.3099975585938
1080.0354416,-75.6399993896484
1080.0510666,-68.5500030517578
1080.0666916,-60.3600006103516
1080.0823166,-55.2099990844727
1080.0979416,-54.6399993896484
1080.1135666,-58.2000007629395
1080.1291916,-64.5800018310547
1080.1448166,-72.0299987792969
1080.1604416,-78.5899963378906
1080.1760666,-82.8199996948242
1080.1916916,-84.4800033569336
1080.2073166,-84.2600021362305
1080.2229416,-83.0599975585938
1080.2385666,-81.8399963378906
1080.2541916,-81.4700012207031
1080.2698166,-82.3000030517578
1080.2854416,-83.7900009155273
1080.3010666,-84.9000015258789
1080.3166916,-84.9300003051758
