Time(s),Value(%)
705.0071752,-26.1599998474121
705.0228002,-25.7900009155273
705.0384252,-25.7700004577637
705.0540502,-25.7600002288818
705.0696752,-25.6499996185303
705.0853002,-25.4200000762939
705.1009252,-25.0400009155273
705.1165502,-24.4599990844727
705.1321752,-23.6700000762939
705.1478002,-22.4699993133545
705.1634252,-19.9899997711182
705.1790502,-14.6999998092651
705.1946752,-5.21000003814697
705.2103002,8.47999954223633
705.2259252,24.6599998474121
705.2415502,40.4799995422363
705.2571752,52.9700012207031
705.2728002,60.060001373291
705.2884252,61.4000015258789
705.3040502,58.439998626709
705.3196752,53.5
705.3353002,48.4599990844727
705.3509252,44.3400001525879
705.3665502,41.3800010681152
705.3821752,39.0800018310547
705.3978002,36.2000007629395
705.4134252,31.25
705.4290502,23.5799999237061
705.4446752,14.1099996566772
705.4603002,4.92999982833862
705.4759252,-2.07999992370605
705.4915502,-6.40000009536743
705.5071752,-8.84000015258789
705.5228002,-10.8000001907349
705.5384252,-13.5299997329712
705.5540502,-17.6299991607666
705.5696752,-22.6100006103516
705.5853002,-27.1599998474121
705.6009252,-30.1100006103516
705.6165502,-31.2099990844727
705.6321752,-31.1700000762939
705.6478002,-31.0200004577637
705.6634252,-31.4200000762939
705.6790502,-32.4000015258789
705.6946752,-33.5
705.7103002,-34.2900009155273
705.7259252,-34.560001373291
705.7415502,-34.3699989318848
705.7571752,-33.8199996948242
705.7728002,-33.0299987792969
705.7884252,-32.0699996948242
705.8040502,-30.8999996185303
705.8196752,-29.3999996185303
705.8353002,-27.4899997711182
705.8509252,-24.9699993133545
705.8665502,-21.6499996185303
705.8821752,-17.5900001525879
705.8978002,-13.039999961853
705.9134252,-7.78999996185303
705.9290502,-0.720000028610229
705.9446752,9.52999973297119
705.9603002,23.4099998474121
705.9759252,39.5999984741211
705.9915502,55.2700004577637
706.0071752,67.120002746582
706.0228002,72.9100036621094
706.0384252,72.5999984741211
706.0540502,68.2900009155273
706.0696752,62.8600006103516
706.0853002,58.2999992370605
706.1009252,55.0400009155273
706.1165502,52.4599990844727
706.1321752,49.6800003051758
706.1478002,45.810001373291
706.1634252,40.1699981689453
706.1790502,32.6399993896484
706.1946752,23.7000007629395
706.2103002,14.2700004577637
706.2259252,5.21999979019165
706.2415502,-2.9300000667572
706.2571752,-10.0500001907349
706.2728002,-16.1399993896484
706.2884252,-21.0400009155273
706.3040502,-24.2600002288818
706.3196752,-25.2299995422363
706.3353002,-23.9500007629395
706.3509252,-21.2999992370605
706.3665502,-18.8199996948242
706.3821752,-18.0300006866455
706.3978002,-19.6100006103516
706.4134252,-23.0100002288818
706.4290502,-26.6299991607666
706.4446752,-28.8700008392334
706.4603002,-29.2399997711182
706.4759252,-28.3600006103516
706.4915502,-27.1000003814697
706.5071752,-25.8600006103516
706.5228002,-24.5100002288818
706.5384252,-22.8299999237061
706.5540502,-20.75
706.5696752,-18.3700008392334
706.5853002,-16.0900001525879
706.6009252,-14.5200004577637
706.6165502,-13.9799995422363
706.6321752,-14.0100002288818
706.6478002,-13.4499998092651
706.6634252,-10.9300003051758
706.6790502,-5.28000020980835
706.6946752,4.19999980926514
706.7103002,17.0799999237061
706.7259252,31.3199996948242
706.7415502,43.8600006103516
706.7571752,51.9700012207031
706.7728002,54.4099998474121
706.7884252,51.8300018310547
706.8040502,46.1500015258789
706.8196752,39.6300010681152
706.8353002,33.9700012207031
706.8509252,29.9099998474121
706.8665502,27.4899997711182
706.8821752,26.2000007629395
706.8978002,24.9400005340576
706.9134252,22.3299999237061
706.9290502,17.6200008392334
706.9446752,11.3199996948242
706.9603002,4.78999996185303
706.9759252,-0.860000014305115
706.9915502,-5.30999994277954
707.0071752,-8.89999961853027
707.0228002,-12.0299997329712
707.0384252,-14.7200002670288
707.0540502,-16.6700000762939
707.0696752,-17.7900009155273
707.0853002,-18.5300006866455
707.1009252,-19.4599990844727
707.1165502,-20.7999992370605
707.1321752,-22.5599994659424
707.1478002,-24.8099994659424
707.1634252,-27.4599990844727
707.1790502,-29.9599990844727
707.1946752,-31.5200004577637
707.2103002,-31.7999992370605
707.2259252,-31.0799999237061
707.2415502,-29.8799991607666
707.2571752,-28.6000003814697
707.2728002,-27.5300006866455
707.2884252,-26.9500007629395
707.3040502,-26.9899997711182
707.3196752,-27.2700004577637
707.3353002,-27.0200004577637
707.3509252,-25.6000003814697
707.3665502,-23.1299991607666
707.3821752,-20.4400005340576
707.3978002,-18.1499996185303
707.4134252,-15.6700000762939
707.4290502,-11.1899995803833
707.4446752,-2.92000007629395
707.4603002,9.46000003814697
707.4759252,24.2299995422363
707.4915502,38.4099998474121
707.5071752,49.4099998474121
707.5228002,56.2400016784668
707.5384252,59.6500015258789
707.5540502,61.1599998474121
707.5696752,61.8699989318848
707.5853002,61.9300003051758
707.6009252,60.5099983215332
707.6165502,56.4500007629395
707.6321752,49.5499992370605
707.6478002,41.0400009155273
707.6634252,32.6800003051758
707.6790502,25.5499992370605
707.6946752,19.9400005340576
707.7103002,15.6999998092651
707.7259252,12.1800003051758
707.7415502,8.09000015258789
707.7571752,2.15000009536743
707.7728002,-5.98999977111816
707.7884252,-15.3400001525879
707.8040502,-24.1200008392334
707.8196752,-30.7700004577637
707.8353002,-34.5699996948242
707.8509252,-35.6100006103516
707.8665502,-34.4799995422363
707.8821752,-32.0099983215332
707.8978002,-29.1000003814697
707.9134252,-26.5699996948242
707.9290502,-25.0900001525879
707.9446752,-24.9899997711182
707.9603002,-26.0300006866455
707.9759252,-27.5599994659424
707.9915502,-28.8500003814697
708.0071752,-29.3999996185303
708.0228002,-29.3400001525879
708.0384252,-29.25
708.0540502,-29.3899993896484
708.0696752,-29.3299999237061
708.0853002,-28.3400001525879
708.1009252,-26.0300006866455
708.1165502,-22.3500003814697
708.1321752,-17.25
708.1478002,-10.5900001525879
708.1634252,-2.28999996185303
708.1790502,7.5
708.1946752,18.1299991607666
708.2103002,27.9799995422363
708.2259252,35.0999984741211
708.2415502,38.4199981689453
708.2571752,38.4799995422363
708.2728002,36.7200012207031
708.2884252,34.2099990844727
708.3040502,31.3600006103516
708.3196752,28.5200004577637
708.3353002,26.2299995422363
708.3509252,24.8400001525879
708.3665502,24.1399993896484
708.3821752,23.3400001525879
708.3978002,21.4599990844727
708.4134252,17.7099990844727
708.4290502,11.8999996185303
708.4446752,4.67999982833862
708.4603002,-2.63000011444092
708.4759252,-8.77000045776367
708.4915502,-12.9099998474121
708.5071752,-14.8599996566772
708.5228002,-15.0600004196167
708.5384252,-14.3699998855591
708.5540502,-13.5600004196167
708.5696752,-12.8900003433228
708.5853002,-12.289999961853
708.6009252,-11.789999961853
708.6165502,-11.789999961853
708.6321752,-12.789999961853
708.6478002,-15.1499996185303
708.6634252,-18.8500003814697
708.6790502,-23.3199996948242
708.6946752,-27.6399993896484
708.7103002,-31.0499992370605
708.7259252,-33.0699996948242
708.7415502,-33.439998626709
708.7571752,-32.2700004577637
708.7728002,-30.1000003814697
708.7884252,-27.6000003814697
708.8040502,-25.2800006866455
708.8196752,-23.3099994659424
708.8353002,-21.4699993133545
708.8509252,-19.3799991607666
708.8665502,-16.8899993896484
708.8821752,-14.2399997711182
708.8978002,-11.4300003051758
708.9134252,-7.73000001907349
708.9290502,-1.91999995708466
708.9446752,6.82000017166138
708.9603002,18.1900005340576
708.9759252,30.7800006866455
708.9915502,42.4300003051758
709.0071752,50.9099998474121
709.0228002,54.7799987792969
709.0384252,54.2599983215332
709.0540502,51.1800003051758
709.0696752,47.8499984741211
709.0853002,45.5200004577637
709.1009252,43.7000007629395
709.1165502,40.9700012207031
709.1321752,36.25
709.1478002,29.5499992370605
709.1634252,21.7299995422363
709.1790502,13.8699998855591
709.1946752,6.73000001907349
709.2103002,0.819999992847443
709.2259252,-3.69000005722046
709.2415502,-6.90000009536743
709.2571752,-9.01000022888184
709.2728002,-10.1599998474121
709.2884252,-10.4700002670288
709.3040502,-10.0200004577637
709.3196752,-9.02999973297119
709.3353002,-8.01000022888184
709.3509252,-7.94000005722046
709.3665502,-9.69999980926514
709.3821752,-13.3900003433228
709.3978002,-18.0900001525879
709.4134252,-22.3600006103516
709.4290502,-25.0900001525879
709.4446752,-26.0200004577637
709.4603002,-25.6900005340576
709.4759252,-25.0
709.4915502,-24.4899997711182
709.5071752,-23.9500007629395
709.5228002,-22.75
709.5384252,-20.6200008392334
709.5540502,-18.0200004577637
709.5696752,-15.7799997329712
709.5853002,-14.3100004196167
709.6009252,-13.3800001144409
709.6165502,-12.7299995422363
709.6321752,-12.6000003814697
709.6478002,-13.5600004196167
709.6634252,-15.7600002288818
709.6790502,-18.3199996948242
709.6946752,-19.2600002288818
709.7103002,-16.2099990844727
709.7259252,-7.80999994277954
709.7415502,5.13000011444092
709.7571752,19.7700004577637
709.7728002,32.5
709.7884252,40.6199989318848
709.8040502,43.4300003051758
709.8196752,42.2400016784668
709.8353002,39.3499984741211
709.8509252,36.5800018310547
709.8665502,34.5099983215332
709.8821752,32.5999984741211
709.8978002,29.9300003051758
709.9134252,25.6900005340576
709.9290502,19.3999996185303
709.9446752,11.210000038147
709.9603002,2.01999998092651
709.9759252,-6.6399998664856
709.9915502,-13.289999961853
710.0071752,-17.1599998474121
710.0228002,-18.6399993896484
710.0384252,-18.6299991607666
710.0540502,-17.8799991607666
710.0696752,-16.8400001525879
710.0853002,-15.8599996566772
710.1009252,-15.0900001525879
710.1165502,-14.4499998092651
710.1321752,-13.8000001907349
710.1478002,-13.0799999237061
710.1634252,-12.4899997711182
710.1790502,-12.460000038147
710.1946752,-13.3400001525879
710.2103002,-15.1400003433228
710.2259252,-17.4200000762939
710.2415502,-19.5100002288818
710.2571752,-20.8799991607666
710.2728002,-21.4899997711182
710.2884252,-21.7000007629395
710.3040502,-21.7999992370605
710.3196752,-21.6299991607666
710.3353002,-20.7099990844727
710.3509252,-18.6900005340576
710.3665502,-15.7600002288818
710.3821752,-12.6199998855591
710.3978002,-10.039999961853
710.4134252,-8.42000007629395
710.4290502,-7.59999990463257
710.4446752,-7.19999980926514
710.4603002,-7.05999994277954
710.4759252,-6.98999977111816
710.4915502,-5.96999979019165
710.5071752,-2.0
710.5228002,6.71999979019165
710.5384252,20.0900001525879
710.5540502,35.4799995422363
710.5696752,48.7999992370605
710.5853002,56.4700012207031
710.6009252,57.0200004577637
710.6165502,51.6699981689453
710.6321752,43.4099998474121
710.6478002,35.3300018310547
710.6634252,29.3400001525879
710.6790502,25.9799995422363
710.6946752,24.6800003051758
710.7103002,23.9200000762939
710.7259252,21.75
710.7415502,16.7199993133545
710.7571752,8.80000019073486
710.7728002,-0.379999995231628
710.7884252,-8.35000038146973
710.8040502,-13.1800003051758
710.8196752,-14.4899997711182
710.8353002,-13.4499998092651
710.8509252,-11.7799997329712
710.8665502,-10.6899995803833
710.8821752,-10.2200002670288
710.8978002,-9.64999961853027
710.9134252,-8.27999973297119
710.9290502,-6.1100001335144
710.9446752,-3.8199999332428
710.9603002,-2.50999999046326
710.9759252,-3.10999989509583
710.9915502,-5.67999982833862
711.0071752,-9.32999992370605
711.0228002,-12.8000001907349
711.0384252,-15.3699998855591
711.0540502,-17.0499992370605
711.0696752,-18.3199996948242
711.0853002,-19.6000003814697
711.1009252,-20.9799995422363
711.1165502,-22.2399997711182
711.1321752,-22.9099998474121
711.1478002,-22.5499992370605
711.1634252,-21.1700000762939
711.1790502,-19.25
711.1946752,-17.4300003051758
711.2103002,-16.1399993896484
711.2259252,-15.4200000762939
711.2415502,-15.0600004196167
711.2571752,-14.5900001525879
711.2728002,-12.9499998092651
711.2884252,-8.57999992370605
711.3040502,-0.5
711.3196752,10.6800003051758
711.3353002,22.8899993896484
711.3509252,33.6300010681152
711.3665502,41.0099983215332
711.3821752,44.189998626709
711.3978002,43.5299987792969
711.4134252,40.2900009155273
711.4290502,35.9700012207031
711.4446752,31.6499996185303
711.4603002,27.7700004577637
711.4759252,24.3299999237061
711.4915502,21.1100006103516
711.5071752,17.8299999237061
711.5228002,14.4700002670288
711.5384252,11.3299999237061
711.5540502,8.85000038146973
711.5696752,7.21999979019165
711.5853002,6.28000020980835
711.6009252,5.42999982833862
711.6165502,3.84999990463257
711.6321752,0.980000019073486
711.6478002,-3.05999994277954
711.6634252,-7.65999984741211
711.6790502,-12.0100002288818
711.6946752,-15.3400001525879
711.7103002,-17.3500003814697
711.7259252,-18.4699993133545
711.7415502,-19.5300006866455
711.7571752,-20.8999996185303
711.7728002,-22.2399997711182
711.7884252,-22.7999992370605
711.8040502,-21.9599990844727
711.8196752,-19.6200008392334
711.8353002,-16.2199993133545
711.8509252,-12.6300001144409
711.8665502,-9.93000030517578
711.8821752,-8.94999980926514
711.8978002,-9.96000003814697
711.9134252,-12.4799995422363
711.9290502,-15.3400001525879
711.9446752,-17.1200008392334
711.9603002,-16.7999992370605
711.9759252,-13.8900003433228
711.9915502,-8.27999973297119
712.0071752,-0.170000001788139
712.0228002,9.72999954223633
712.0384252,20.3999996185303
712.0540502,30.4799995422363
712.0696752,38.3600006103516
712.0853002,42.689998626709
712.1009252,43.0499992370605
712.1165502,40.3199996948242
712.1321752,36.1500015258789
712.1478002,32.0200004577637
712.1634252,28.6399993896484
712.1790502,26.0200004577637
712.1946752,23.7299995422363
712.2103002,21.1599998474121
712.2259252,17.6399993896484
712.2415502,12.8699998855591
712.2571752,7.17999982833862
712.2728002,1.30999994277954
712.2884252,-4.09000015258789
712.3040502,-8.75
712.3196752,-12.75
712.3353002,-16.4300003051758
712.3509252,-20.1900005340576
712.3665502,-24.2299995422363
712.3821752,-28.4300003051758
712.3978002,-32.3499984741211
712.4134252,-35.5499992370605
712.4290502,-37.7200012207031
712.4446752,-38.6399993896484
712.4603002,-38.0499992370605
712.4759252,-35.7599983215332
712.4915502,-32.0299987792969
712.5071752,-27.75
712.5228002,-24.1900005340576
712.5384252,-22.1299991607666
712.5540502,-21.4099998474121
712.5696752,-21.1499996185303
712.5853002,-20.5499992370605
712.6009252,-19.3700008392334
712.6165502,-17.9599990844727
712.6321752,-17.0100002288818
712.6478002,-17.0200004577637
712.6634252,-17.9699993133545
712.6790502,-19.2900009155273
712.6946752,-20.0200004577637
712.7103002,-18.8099994659424
712.7259252,-14.3999996185303
712.7415502,-6.34999990463257
712.7571752,4.44999980926514
712.7728002,16.0499992370605
712.7884252,26.2900009155273
712.8040502,33.8699989318848
712.8196752,38.75
712.8353002,41.939998626709
712.8509252,44.5499992370605
712.8665502,46.9199981689453
712.8821752,48.5800018310547
712.8978002,48.8800010681152
712.9134252,47.6100006103516
712.9290502,44.8300018310547
712.9446752,40.2999992370605
712.9603002,33.5200004577637
712.9759252,24.3799991607666
712.9915502,13.7600002288818
713.0071752,3.34999990463257
713.0228002,-5.01000022888184
713.0384252,-10.1899995803833
713.0540502,-12.1700000762939
713.0696752,-12.039999961853
713.0853002,-11.4099998474121
713.1009252,-11.6899995803833
713.1165502,-13.4899997711182
713.1321752,-16.4500007629395
713.1478002,-19.6000003814697
713.1634252,-22.1000003814697
713.1790502,-23.6100006103516
713.1946752,-24.4699993133545
713.2103002,-25.5
713.2259252,-27.2199993133545
713.2415502,-29.4200000762939
713.2571752,-31.3600006103516
713.2728002,-32.3800010681152
713.2884252,-31.9500007629395
713.3040502,-29.7800006866455
713.3196752,-26.1000003814697
713.3353002,-21.7900009155273
713.3509252,-17.9400005340576
713.3665502,-15.4099998474121
713.3821752,-14.6300001144409
713.3978002,-15.3800001144409
713.4134252,-16.8099994659424
713.4290502,-17.3899993896484
713.4446752,-15.1499996185303
713.4603002,-8.47999954223633
713.4759252,2.92000007629395
713.4915502,17.5900001525879
713.5071752,32.6699981689453
713.5228002,45.0299987792969
713.5384252,52.6500015258789
713.5540502,55.2099990844727
713.5696752,53.7900009155273
713.5853002,50.0699996948242
713.6009252,45.6199989318848
713.6165502,41.3600006103516
713.6321752,37.6500015258789
713.6478002,34.7400016784668
713.6634252,32.6599998474121
713.6790502,30.7199993133545
713.6946752,27.6399993896484
713.7103002,22.3899993896484
713.7259252,15.0900001525879
713.7415502,6.65000009536743
713.7571752,-1.87000000476837
713.7728002,-9.69999980926514
713.7884252,-16.0900001525879
713.8040502,-20.2900009155273
713.8196752,-21.9599990844727
713.8353002,-21.5699996948242
713.8509252,-20.3400001525879
713.8665502,-19.6700000762939
713.8821752,-20.5900001525879
713.8978002,-23.2199993133545
713.9134252,-26.5699996948242
713.9290502,-29.1100006103516
713.9446752,-29.9099998474121
713.9603002,-29.2099990844727
713.9759252,-27.9899997711182
713.9915502,-26.9599990844727
714.0071752,-26.1399993896484
714.0228002,-25.1700000762939
714.0384252,-23.7800006866455
714.0540502,-22.0200004577637
714.0696752,-20.2399997711182
714.0853002,-18.8700008392334
714.1009252,-18.1399993896484
714.1165502,-17.9699993133545
714.1321752,-17.7999992370605
714.1478002,-16.5900001525879
714.1634252,-12.789999961853
714.1790502,-4.92000007629395
714.1946752,7.5
714.2103002,23.1900005340576
714.2259252,39.2400016784668
714.2415502,52.3899993896484
714.2571752,60.3699989318848
714.2728002,62.5900001525879
714.2884252,60.0900001525879
714.3040502,54.810001373291
714.3196752,48.7299995422363
714.3353002,43.1199989318848
714.3509252,38.3699989318848
714.3665502,34.1100006103516
714.3821752,29.4099998474121
714.3978002,23.3600006103516
714.4134252,15.9300003051758
714.4290502,8.21000003814697
714.4446752,1.72000002861023
714.4603002,-2.53999996185303
714.4759252,-4.6100001335144
714.4915502,-5.42999982833862
714.5071752,-6.17000007629395
714.5228002,-7.40999984741211
714.5384252,-9.02999973297119
714.5540502,-10.6999998092651
714.5696752,-12.4499998092651
714.5853002,-14.5799999237061
714.6009252,-17.3799991607666
714.6165502,-20.7600002288818
714.6321752,-24.1100006103516
714.6478002,-26.5100002288818
714.6634252,-27.2600002288818
714.6790502,-26.4799995422363
714.6946752,-25.2299995422363
714.7103002,-24.8099994659424
714.7259252,-25.7299995422363
714.7415502,-27.4699993133545
714.7571752,-29.0599994659424
714.7728002,-29.6399993896484
714.7884252,-28.75
714.8040502,-26.3400001525879
714.8196752,-22.7399997711182
714.8353002,-18.6499996185303
714.8509252,-14.6099996566772
714.8665502,-10.2399997711182
714.8821752,-4.15000009536743
714.8978002,4.98000001907349
714.9134252,17.1900005340576
714.9290502,30.8199996948242
714.9446752,43.2900009155273
714.9603002,52.0299987792969
714.9759252,55.5999984741211
714.9915502,54.0999984741211
715.0071752,48.8899993896484
715.0228002,41.9199981689453
715.0384252,35.1500015258789
715.0540502,30.0
715.0696752,26.7000007629395
715.0853002,24.2199993133545
715.1009252,20.9899997711182
715.1165502,16.0400009155273
715.1321752,9.78999996185303
715.1478002,3.5
715.1634252,-1.80999994277954
715.1790502,-5.94999980926514
715.1946752,-9.25
715.2103002,-12.1800003051758
715.2259252,-15.1599998474121
715.2415502,-18.2600002288818
715.2571752,-21.1200008392334
715.2728002,-23.2099990844727
715.2884252,-24.2600002288818
715.3040502,-24.3700008392334
715.3196752,-24.1499996185303
715.3353002,-24.3700008392334
715.3509252,-25.4799995422363
715.3665502,-27.1900005340576
715.3821752,-28.6399993896484
715.3978002,-28.9599990844727
715.4134252,-27.7199993133545
715.4290502,-25.0599994659424
715.4446752,-21.6299991607666
715.4603002,-18.3099994659424
715.4759252,-15.6400003433228
715.4915502,-13.6999998092651
715.5071752,-12.4300003051758
715.5228002,-11.8699998855591
715.5384252,-11.960000038147
715.5540502,-12.5200004577637
715.5696752,-13.2399997711182
715.5853002,-13.5100002288818
715.6009252,-12.0
715.6165502,-6.76000022888184
715.6321752,3.5
715.6478002,17.9500007629395
715.6634252,33.5299987792969
715.6790502,46.6500015258789
715.6946752,54.8300018310547
