Time(s),Value(%)
705.0071752,178.259994506836
705.0228002,175.380004882813
705.0384252,169.050003051758
705.0540502,159.619995117188
705.0696752,147.259994506836
705.0853002,132.179992675781
705.1009252,115.050003051758
705.1165502,97.1600036621094
705.1321752,80.0299987792969
705.1478002,64.8300018310547
705.1634252,51.8899993896484
705.1790502,40.6699981689453
705.1946752,30.1399993896484
705.2103002,19.4400005340576
705.2259252,8.40999984741211
705.2415502,-2.49000000953674
705.2571752,-12.5699996948242
705.2728002,-21.1700000762939
705.2884252,-28.0400009155273
705.3040502,-33.560001373291
705.3196752,-38.5099983215332
705.3353002,-43.4199981689453
705.3509252,-48.2999992370605
705.3665502,-52.7299995422363
705.3821752,-56.2200012207031
705.3978002,-58.5299987792969
705.4134252,-59.75
705.4290502,-60.310001373291
705.4446752,-60.810001373291
705.4603002,-61.5200004577637
705.4759252,-61.9900016784668
705.4915502,-61.1300010681152
705.5071752,-57.7000007629395
705.5228002,-50.5200004577637
705.5384252,-38.6399993896484
705.5540502,-21.6100006103516
705.5696752,-0.180000007152557
705.5853002,23.5200004577637
705.6009252,46.8300018310547
705.6165502,67.4499969482422
705.6321752,83.9100036621094
705.6478002,95.620002746582
705.6634252,102.629997253418
705.6790502,105.440002441406
705.6946752,104.809997558594
705.7103002,101.410003662109
705.7259252,95.4499969482422
705.7415502,86.7699966430664
705.7571752,75.0800018310547
705.7728002,60.4500007629395
705.7884252,43.6599998474121
705.8040502,26.1299991607666
705.8196752,9.40999984741211
705.8353002,-5.3600001335144
705.8509252,-17.7800006866455
705.8665502,-28.0300006866455
705.8821752,-36.6699981689453
705.8978002,-44.3499984741211
705.9134252,-51.5200004577637
705.9290502,-58.2799987792969
705.9446752,-64.4100036621094
705.9603002,-69.5999984741211
705.9759252,-73.6500015258789
705.9915502,-76.6600036621094
706.0071752,-79.1999969482422
706.0228002,-81.9400024414063
706.0384252,-84.879997253418
706.0540502,-87.0899963378906
706.0696752,-87.3300018310547
706.0853002,-85.0100021362305
706.1009252,-80.5999984741211
706.1165502,-75.2099990844727
706.1321752,-69.8199996948242
706.1478002,-64.879997253418
706.1634252,-60.4099998474121
706.1790502,-56.2999992370605
706.1946752,-52.7999992370605
706.2103002,-50.439998626709
706.2259252,-49.5499992370605
706.2415502,-49.5900001525879
706.2571752,-48.8300018310547
706.2728002,-44.8600006103516
706.2884252,-35.7099990844727
706.3040502,-20.6499996185303
706.3196752,-0.889999985694885
706.3353002,20.1800003051758
706.3509252,38.0200004577637
706.3665502,48.7900009155273
706.3821752,51.3600006103516
706.3978002,48.2400016784668
706.4134252,44.2200012207031
706.4290502,42.9099998474121
706.4446752,44.7400016784668
706.4603002,47.9599990844727
706.4759252,50.1100006103516
706.4915502,48.25
706.5071752,38.8800010681152
706.5228002,19.6100006103516
706.5384252,-8.52000045776367
706.5540502,-40.9000015258789
706.5696752,-71.1999969482422
706.5853002,-93.8499984741211
706.6009252,-105.870002746582
706.6165502,-107.459999084473
706.6321752,-101.180000305176
706.6478002,-90.4400024414063
706.6634252,-78.0500030517578
706.6790502,-65.6800003051758
706.6946752,-54.1199989318848
706.7103002,-43.9099998474121
706.7259252,-35.7799987792969
706.7415502,-30.3700008392334
706.7571752,-27.4799995422363
706.7728002,-25.9200000762939
706.7884252,-23.9699993133545
706.8040502,-20.0599994659424
706.8196752,-13.1899995803833
706.8353002,-3.25
706.8509252,8.90999984741211
706.8665502,21.8099994659424
706.8821752,33.9900016784668
706.8978002,44.5999984741211
706.9134252,53.3300018310547
706.9290502,60.25
706.9446752,65.5299987792969
706.9603002,69.3899993896484
706.9759252,72.2699966430664
706.9915502,75.0800018310547
707.0071752,79.1999969482422
707.0228002,86.0400009155273
707.0384252,96.370002746582
707.0540502,109.580001831055
707.0696752,123.690002441406
707.0853002,135.929992675781
707.1009252,143.789993286133
707.1165502,146.059997558594
707.1321752,143.190002441406
707.1478002,136.800003051758
707.1634252,128.809997558594
707.1790502,120.699996948242
707.1946752,113.150001525879
707.2103002,106.230003356934
707.2259252,99.7399978637695
707.2415502,93.4400024414063
707.2571752,86.9100036621094
707.2728002,79.6900024414063
707.2884252,71.5400009155273
707.3040502,62.5699996948242
707.3196752,53.2799987792969
707.3353002,44.3199996948242
707.3509252,36.1199989318848
707.3665502,28.7199993133545
707.3821752,21.8500003814697
707.3978002,15.1300001144409
707.4134252,8.23999977111816
707.4290502,1.12000000476837
707.4446752,-6.07000017166138
707.4603002,-13.1400003433228
707.4759252,-20.0900001525879
707.4915502,-27.0200004577637
707.5071752,-33.9099998474121
707.5228002,-40.5900001525879
707.5384252,-46.7900009155273
707.5540502,-52.310001373291
707.5696752,-57.1199989318848
707.5853002,-61.3300018310547
707.6009252,-65.0400009155273
707.6165502,-68.2200012207031
707.6321752,-70.8199996948242
707.6478002,-72.870002746582
707.6634252,-74.5899963378906
707.6790502,-76.25
707.6946752,-78.0100021362305
707.7103002,-79.879997253418
707.7259252,-81.7799987792969
707.7415502,-83.379997253418
707.7571752,-84.0100021362305
707.7728002,-82.7399978637695
707.7884252,-78.5299987792969
707.8040502,-70.7399978637695
707.8196752,-59.6699981689453
707.8353002,-46.7599983215332
707.8509252,-34.0400009155273
707.8665502,-23.3899993896484
707.8821752,-15.8800001144409
707.8978002,-11.5900001525879
707.9134252,-9.77000045776367
707.9290502,-9.3100004196167
707.9446752,-9.18000030517578
707.9603002,-8.77999973297119
707.9759252,-8.03999996185303
707.9915502,-7.28999996185303
708.0071752,-7.19999980926514
708.0228002,-8.35999965667725
708.0384252,-10.8299999237061
708.0540502,-14.0200004577637
708.0696752,-17.0
708.0853002,-18.9799995422363
708.1009252,-19.6800003051758
708.1165502,-19.3999996185303
708.1321752,-18.7999992370605
708.1478002,-18.4699993133545
708.1634252,-18.75
708.1790502,-19.7700004577637
708.1946752,-21.4099998474121
708.2103002,-23.4099998474121
708.2259252,-25.5200004577637
708.2415502,-27.6200008392334
708.2571752,-29.6700000762939
708.2728002,-31.6000003814697
708.2884252,-33.3199996948242
708.3040502,-34.6800003051758
708.3196752,-35.5999984741211
708.3353002,-36.0299987792969
708.3509252,-35.8600006103516
708.3665502,-35.0400009155273
708.3821752,-33.6500015258789
708.3978002,-31.9599990844727
708.4134252,-30.2700004577637
708.4290502,-28.75
708.4446752,-27.3899993896484
708.4603002,-26.1499996185303
708.4759252,-24.8299999237061
708.4915502,-22.7900009155273
708.5071752,-18.8500003814697
708.5228002,-11.9300003051758
708.5384252,-1.95000004768372
708.5540502,9.78999996185303
708.5696752,21.1499996185303
708.5853002,30.1900005340576
708.6009252,35.8499984741211
708.6165502,38.2299995422363
708.6321752,38.2799987792969
708.6478002,37.2599983215332
708.6634252,36.1100006103516
708.6790502,35.2799987792969
708.6946752,34.7999992370605
708.7103002,34.3899993896484
708.7259252,33.6199989318848
708.7415502,32.1699981689453
708.7571752,29.9300003051758
708.7728002,27.1200008392334
708.7884252,24.25
708.8040502,21.8899993896484
708.8196752,20.3500003814697
708.8353002,19.4699993133545
708.8509252,18.8600006103516
708.8665502,18.1299991607666
708.8821752,17.0599994659424
708.8978002,15.6400003433228
708.9134252,14.0
708.9290502,12.25
708.9446752,10.4700002670288
708.9603002,8.71000003814697
708.9759252,6.98999977111816
708.9915502,5.30999994277954
709.0071752,3.6800000667572
709.0228002,2.11999988555908
709.0384252,0.689999997615814
709.0540502,-0.579999983310699
709.0696752,-1.71000003814697
709.0853002,-2.70000004768372
709.1009252,-3.52999997138977
709.1165502,-4.15000009536743
709.1321752,-4.53999996185303
709.1478002,-4.65000009536743
709.1634252,-4.5
709.1790502,-4.21999979019165
709.1946752,-3.98000001907349
709.2103002,-3.92000007629395
709.2259252,-3.97000002861023
709.2415502,-3.60999989509583
709.2571752,-1.82000005245209
709.2728002,2.60999989509583
709.2884252,10.289999961853
709.3040502,20.5100002288818
709.3196752,31.3600006103516
709.3353002,40.439998626709
709.3509252,46.0200004577637
709.3665502,47.5900001525879
709.3821752,45.8899993896484
709.3978002,42.2799987792969
709.4134252,38.0699996948242
709.4290502,34.1100006103516
709.4446752,30.7099990844727
709.4603002,27.7099990844727
709.4759252,24.7299995422363
709.4915502,21.4500007629395
709.5071752,17.7199993133545
709.5228002,13.6400003433228
709.5384252,9.51000022888184
709.5540502,5.71000003814697
709.5696752,2.63000011444092
709.5853002,0.379999995231628
709.6009252,-1.12000000476837
709.6165502,-2.19000005722046
709.6321752,-3.16000008583069
709.6478002,-4.30000019073486
709.6634252,-5.69999980926514
709.6790502,-7.28000020980835
709.6946752,-8.96000003814697
709.7103002,-10.75
709.7259252,-12.7399997711182
709.7415502,-14.8999996185303
709.7571752,-17.0400009155273
709.7728002,-18.9599990844727
709.7884252,-20.5
709.8040502,-21.5900001525879
709.8196752,-22.2000007629395
709.8353002,-22.4099998474121
709.8509252,-22.3600006103516
709.8665502,-22.2099990844727
709.8821752,-21.9599990844727
709.8978002,-21.5
709.9134252,-20.7000007629395
709.9290502,-19.6299991607666
709.9446752,-18.5200004577637
709.9603002,-17.6200008392334
709.9759252,-17.0400009155273
709.9915502,-16.75
710.0071752,-16.6499996185303
710.0228002,-16.5499992370605
710.0384252,-15.8999996185303
710.0540502,-13.7700004577637
710.0696752,-9.06999969482422
710.0853002,-1.17999994754791
710.1009252,9.36999988555908
710.1165502,20.8299999237061
710.1321752,30.5900001525879
710.1478002,36.5400009155273
710.1634252,37.8899993896484
710.1790502,35.3600006103516
710.1946752,30.6800003051758
710.2103002,25.7700004577637
710.2259252,21.8999996185303
710.2415502,19.3199996948242
710.2571752,17.5100002288818
710.2728002,15.6700000762939
710.2884252,13.1599998474121
710.3040502,9.72999954223633
710.3196752,5.59999990463257
710.3353002,1.36000001430511
710.3509252,-2.29999995231628
710.3665502,-4.92000007629395
710.3821752,-6.44000005722046
710.3978002,-7.15999984741211
710.4134252,-7.57000017166138
710.4290502,-8.13000011444092
710.4446752,-9.10000038146973
710.4603002,-10.5
710.4759252,-12.0299997329712
710.4915502,-13.3500003814697
710.5071752,-14.4099998474121
710.5228002,-15.3299999237061
710.5384252,-16.1399993896484
710.5540502,-16.8799991607666
710.5696752,-17.6700000762939
710.5853002,-18.75
710.6009252,-20.3700008392334
710.6165502,-22.3799991607666
710.6321752,-24.1800003051758
710.6478002,-25.2000007629395
710.6634252,-25.3099994659424
710.6790502,-24.6399993896484
710.6946752,-23.1299991607666
710.7103002,-20.6000003814697
710.7259252,-17.0300006866455
710.7415502,-12.9200000762939
710.7571752,-9.27000045776367
710.7728002,-7.42999982833862
710.7884252,-8.47000026702881
710.8040502,-12.539999961853
710.8196752,-18.25
710.8353002,-23.0699996948242
710.8509252,-24.3099994659424
710.8665502,-20.4200000762939
710.8821752,-11.9799995422363
710.8978002,-1.60000002384186
710.9134252,7.3899998664856
710.9290502,12.7700004577637
710.9446752,14.1700000762939
710.9603002,12.5200004577637
710.9759252,8.96000003814697
710.9915502,4.48999977111816
711.0071752,0.159999996423721
711.0228002,-2.75
711.0384252,-3.35999989509583
711.0540502,-1.63999998569489
711.0696752,1.52999997138977
711.0853002,4.92000007629395
711.1009252,7.65000009536743
711.1165502,9.72000026702881
711.1321752,11.6000003814697
711.1478002,13.6000003814697
711.1634252,15.6199998855591
711.1790502,17.3299999237061
711.1946752,18.4799995422363
711.2103002,19.0400009155273
711.2259252,19.1299991607666
711.2415502,19.0300006866455
711.2571752,19.0699996948242
711.2728002,19.4599990844727
711.2884252,20.1499996185303
711.3040502,21.0200004577637
711.3196752,22.1200008392334
711.3353002,23.4500007629395
711.3509252,24.6100006103516
711.3665502,24.9400005340576
711.3821752,24.1000003814697
711.3978002,22.3299999237061
711.4134252,20.3099994659424
711.4290502,18.7000007629395
711.4446752,17.8899993896484
711.4603002,17.8099994659424
711.4759252,18.1000003814697
711.4915502,18.3600006103516
711.5071752,18.2900009155273
711.5228002,17.7199993133545
711.5384252,16.6399993896484
711.5540502,15.25
711.5696752,13.8900003433228
711.5853002,12.9700002670288
711.6009252,12.7799997329712
711.6165502,13.5
711.6321752,15.460000038147
711.6478002,19.1800003051758
711.6634252,24.9400005340576
711.6790502,32.2599983215332
711.6946752,39.6800003051758
711.7103002,45.3400001525879
711.7259252,47.7799987792969
711.7415502,46.5099983215332
711.7571752,42.0800018310547
711.7728002,35.8899993896484
711.7884252,29.5
711.8040502,23.8600006103516
711.8196752,19.0499992370605
711.8353002,14.6000003814697
711.8509252,9.97999954223633
711.8665502,4.90999984741211
711.8821752,-0.419999986886978
711.8978002,-5.65999984741211
711.9134252,-10.5299997329712
711.9290502,-15.0200004577637
711.9446752,-19.2000007629395
711.9603002,-23.0400009155273
711.9759252,-26.4500007629395
711.9915502,-29.3299999237061
712.0071752,-31.7299995422363
712.0228002,-33.7900009155273
712.0384252,-35.6800003051758
712.0540502,-37.5400009155273
712.0696752,-39.4199981689453
712.0853002,-41.1800003051758
712.1009252,-42.5400009155273
712.1165502,-43.3400001525879
712.1321752,-43.75
712.1478002,-44.0299987792969
712.1634252,-44.1199989318848
712.1790502,-43.7599983215332
712.1946752,-42.8699989318848
712.2103002,-41.810001373291
712.2259252,-41.1100006103516
712.2415502,-41.1300010681152
712.2571752,-41.8499984741211
712.2728002,-42.9900016784668
712.2884252,-44.0099983215332
712.3040502,-44.0699996948242
712.3196752,-42.1399993896484
712.3353002,-37.25
712.3509252,-28.8600006103516
712.3665502,-17.2199993133545
712.3821752,-3.71000003814697
712.3978002,9.28999996185303
712.4134252,19.2800006866455
712.4290502,24.7299995422363
712.4446752,25.7900009155273
712.4603002,23.9400005340576
712.4759252,21.0900001525879
712.4915502,18.6900005340576
712.5071752,17.2900009155273
712.5228002,16.5499992370605
712.5384252,15.7299995422363
712.5540502,14.1599998474121
712.5696752,11.5699996948242
712.5853002,8.17000007629395
712.6009252,4.44000005722046
712.6165502,0.810000002384186
712.6321752,-2.5
712.6478002,-5.44000005722046
712.6634252,-7.92999982833862
712.6790502,-9.93000030517578
712.6946752,-11.5
712.7103002,-12.7700004577637
712.7259252,-13.8699998855591
712.7415502,-14.75
712.7571752,-15.1999998092651
712.7728002,-15.0900001525879
712.7884252,-14.6099996566772
712.8040502,-14.1800003051758
712.8196752,-14.1000003814697
712.8353002,-14.4300003051758
712.8509252,-15.0900001525879
712.8665502,-16.0200004577637
712.8821752,-17.0499992370605
712.8978002,-17.9400005340576
712.9134252,-18.4699993133545
712.9290502,-18.6100006103516
712.9446752,-18.3700008392334
712.9603002,-17.75
712.9759252,-16.7600002288818
712.9915502,-15.6099996566772
713.0071752,-14.6999998092651
713.0228002,-14.1899995803833
713.0384252,-13.4399995803833
713.0540502,-11.1499996185303
713.0696752,-6.05999994277954
713.0853002,2.49000000953674
713.1009252,14.210000038147
713.1165502,27.8400001525879
713.1321752,41.3400001525879
713.1478002,52.25
713.1634252,58.7299995422363
713.1790502,60.4099998474121
713.1946752,58.4300003051758
713.2103002,54.7400016784668
713.2259252,51.1399993896484
713.2415502,48.4799995422363
713.2571752,46.4199981689453
713.2728002,44.0699996948242
713.2884252,40.7799987792969
713.3040502,36.4700012207031
713.3196752,31.3899993896484
713.3353002,25.8899993896484
713.3509252,20.2700004577637
713.3665502,14.75
713.3821752,9.48999977111816
713.3978002,4.73000001907349
713.4134252,0.720000028610229
713.4290502,-2.44000005722046
713.4446752,-4.94000005722046
713.4603002,-7.19000005722046
713.4759252,-9.56999969482422
713.4915502,-12.2299995422363
713.5071752,-15.0699996948242
713.5228002,-17.8400001525879
713.5384252,-20.2299995422363
713.5540502,-22.0400009155273
713.5696752,-23.2399997711182
713.5853002,-23.9599990844727
713.6009252,-24.3799991607666
713.6165502,-24.7299995422363
713.6321752,-25.3299999237061
713.6478002,-26.3500003814697
713.6634252,-27.5900001525879
713.6790502,-28.5799999237061
713.6946752,-28.7999992370605
713.7103002,-28.1299991607666
713.7259252,-26.7900009155273
713.7415502,-25.1900005340576
713.7571752,-23.5499992370605
713.7728002,-21.9200000762939
713.7884252,-20.2299995422363
713.8040502,-18.0699996948242
713.8196752,-14.4399995803833
713.8353002,-8.10000038146973
713.8509252,1.4099999666214
713.8665502,13.2299995422363
713.8821752,25.3299999237061
713.8978002,35.5400009155273
713.9134252,42.4599990844727
713.9290502,45.7099990844727
713.9446752,45.8400001525879
713.9603002,43.9199981689453
713.9759252,41.0699996948242
713.9915502,38.0800018310547
714.0071752,35.2900009155273
714.0228002,32.5
714.0384252,29.0699996948242
714.0540502,24.4400005340576
714.0696752,18.6800003051758
714.0853002,12.3900003433228
714.1009252,6.34000015258789
714.1165502,1.17999994754791
714.1321752,-2.73000001907349
714.1478002,-5.44000005722046
714.1634252,-7.30000019073486
714.1790502,-8.86999988555908
714.1946752,-10.6199998855591
714.2103002,-12.8000001907349
714.2259252,-15.289999961853
714.2415502,-17.7700004577637
714.2571752,-19.9300003051758
714.2728002,-21.5200004577637
714.2884252,-22.4699993133545
714.3040502,-22.8400001525879
714.3196752,-22.8999996185303
714.3353002,-23.0100002288818
714.3509252,-23.4200000762939
714.3665502,-24.1499996185303
714.3821752,-25.0200004577637
714.3978002,-25.8400001525879
714.4134252,-26.4300003051758
714.4290502,-26.6200008392334
714.4446752,-26.3500003814697
714.4603002,-25.6700000762939
714.4759252,-24.7199993133545
714.4915502,-23.6499996185303
714.5071752,-22.5799999237061
714.5228002,-21.5900001525879
714.5384252,-20.5499992370605
714.5540502,-18.7800006866455
714.5696752,-15.3100004196167
714.5853002,-9.51000022888184
714.6009252,-1.62000000476837
714.6165502,7.17999982833862
714.6321752,15.3400001525879
714.6478002,21.5799999237061
714.6634252,25.4200000762939
714.6790502,27.2700004577637
714.6946752,27.9799995422363
714.7103002,28.3600006103516
714.7259252,28.7600002288818
714.7415502,29.0200004577637
714.7571752,28.7199993133545
714.7728002,27.4699993133545
714.7884252,25.1200008392334
714.8040502,21.8600006103516
714.8196752,18.2299995422363
714.8353002,14.9099998474121
714.8509252,12.3400001525879
714.8665502,10.5500001907349
714.8821752,9.1899995803833
714.8978002,7.84999990463257
714.9134252,6.17999982833862
714.9290502,4.1100001335144
714.9446752,1.85000002384186
714.9603002,-0.200000002980232
714.9759252,-1.87999999523163
714.9915502,-3.20000004768372
715.0071752,-4.32000017166138
715.0228002,-5.32999992370605
715.0384252,-6.25
715.0540502,-7.09000015258789
715.0696752,-7.82000017166138
715.0853002,-8.52000045776367
715.1009252,-9.31999969482422
715.1165502,-10.25
715.1321752,-11.1899995803833
715.1478002,-11.9799995422363
715.1634252,-12.5200004577637
715.1790502,-12.8000001907349
715.1946752,-12.8800001144409
715.2103002,-12.7799997329712
715.2259252,-12.2399997711182
715.2415502,-10.8199996948242
715.2571752,-8.02000045776367
715.2728002,-3.4300000667572
715.2884252,3.03999996185303
715.3040502,10.9499998092651
715.3196752,19.2999992370605
715.3353002,26.8899993896484
715.3509252,32.8300018310547
715.3665502,36.689998626709
715.3821752,38.5400009155273
715.3978002,38.75
715.4134252,37.7400016784668
715.4290502,35.7900009155273
715.4446752,33.1100006103516
715.4603002,29.9300003051758
715.4759252,26.4599990844727
715.4915502,22.7700004577637
715.5071752,18.9300003051758
715.5228002,15.1099996566772
715.5384252,11.5100002288818
715.5540502,8.19999980926514
715.5696752,5.15000009536743
715.5853002,2.23000001907349
715.6009252,-0.579999983310699
715.6165502,-3.1800000667572
715.6321752,-5.48000001907349
715.6478002,-7.55999994277954
715.6634252,-9.64999961853027
715.6790502,-11.9300003051758
715.6946752,-14.3400001525879
715.7103002,-16.6200008392334
715.7259252,-18.4699993133545
715.7415502,-19.75
715.7571752,-20.6200008392334
715.7728002,-21.3899993896484
