Time(s),Value(%)
395.0103744,23.8500003814697
395.0259994,51.3400001525879
395.0416244,80.4599990844727
395.0572494,110.319999694824
395.0728744,139.720001220703
395.0884994,165.990005493164
395.1041244,184.869995117188
395.1197494,192.960006713867
395.1353744,190.300003051758
395.1509994,180.149993896484
395.1666244,166.389999389648
395.1822494,151.729995727539
395.1978744,137.380004882813
395.2134994,123.580001831055
395.2291244,110.180000305176
395.2447494,96.9599990844727
395.2603744,83.6900024414063
395.2759994,70.3000030517578
395.2916244,56.8699989318848
395.3072494,43.5699996948242
395.3228744,30.5799999237061
395.3384994,17.9699993133545
395.3541244,5.76000022888184
395.3697494,-6.21000003814697
395.3853744,-18.3700008392334
395.4009994,-31.1900005340576
395.4166244,-44.9900016784668
395.4322494,-59.5999984741211
395.4478744,-73.620002746582
395.4634994,-86.8099975585938
395.4791244,-98.6500015258789
395.4947494,-108.98999786377
395.5103744,-118.01000213623
395.5259994,-126.099998474121
395.5416244,-133.690002441406
395.5572494,-141.070007324219
395.5728744,-148.149993896484
395.5884994,-154.050003051758
395.6041244,-157.199996948242
395.6197494,-156.210006713867
395.6353744,-150.919998168945
395.6509994,-142.369995117188
395.6666244,-131.880004882813
395.6822494,-119.970001220703
395.6978744,-106.169998168945
395.7134994,-90.3199996948242
395.7291244,-73.7300033569336
395.7447494,-58.7200012207031
395.7603744,-47.0699996948242
395.7759994,-39.0200004577637
395.7916244,-33.7000007629395
395.8072494,-30.25
395.8228744,-28.7299995422363
395.8384994,-29.7299995422363
395.8541244,-33.5099983215332
395.8697494,-39.6699981689453
395.8853744,-47.5900001525879
395.9009994,-56.6399993896484
395.9166244,-66.2200012207031
395.9322494,-75.8000030517578
395.9478744,-85.0699996948242
395.9634994,-94.1999969482422
395.9791244,-103.680000305176
395.9947494,-113.769996643066
396.0103744,-123.910003662109
396.0259994,-133.050003051758
396.0416244,-140.339996337891
396.0572494,-145.610000610352
396.0728744,-149.300003051758
396.0884994,-152.220001220703
396.1041244,-155.210006713867
396.1197494,-158.779998779297
396.1353744,-163.009994506836
396.1509994,-167.690002441406
396.1666244,-172.710006713867
396.1822494,-178.059997558594
396.1978744,-183.539993286133
396.2134994,-188.369995117188
396.2291244,-191.289993286133
396.2447494,-191.270004272461
396.2603744,-188.279998779297
396.2759994,-183.089996337891
396.2916244,-176.529998779297
396.3072494,-168.779998779297
396.3228744,-159.389999389648
396.3384994,-147.869995117188
396.3541244,-134.279998779297
396.3697494,-119.290000915527
396.3853744,-103.5
396.4009994,-86.6100006103516
396.4166244,-67.2399978637695
396.4322494,-44.2299995422363
396.4478744,-17.9799995422363
396.4634994,8.51000022888184
396.4791244,32.9300003051758
396.4947494,54.0400009155273
396.5103744,71.8499984741211
396.5259994,87.1800003051758
396.5416244,100.919998168945
396.5572494,113.650001525879
396.5728744,125.660003662109
396.5884994,137.259994506836
396.6041244,149.050003051758
396.6197494,161.539993286133
396.6353744,174.649993896484
396.6509994,187.059997558594
396.6666244,196.539993286133
396.6822494,201.360000610352
396.6978744,201.679992675781
396.7134994,199.130004882813
396.7291244,195.320007324219
396.7447494,191.070007324219
396.7603744,186.539993286133
396.7759994,181.669998168945
396.7916244,176.470001220703
396.8072494,171.080001831055
396.8228744,165.710006713867
396.8384994,160.509994506836
396.8541244,155.589996337891
396.8697494,151.100006103516
396.8853744,147.320007324219
396.9009994,144.529998779297
396.9166244,142.639999389648
396.9322494,141.029998779297
396.9478744,138.679992675781
396.9634994,134.770004272461
396.9791244,129.270004272461
396.9947494,122.73999786377
397.0103744,115.730003356934
397.0259994,108.5
397.0416244,101.120002746582
397.0572494,93.6600036621094
397.0728744,86.2699966430664
397.0884994,79.1900024414063
397.1041244,72.7600021362305
397.1197494,67.2099990844727
397.1353744,62.6500015258789
397.1509994,59.3699989318848
397.1666244,58.0800018310547
397.1822494,59.4500007629395
397.1978744,63.3899993896484
397.2134994,68.8099975585938
397.2291244,74.1100006103516
397.2447494,78.2699966430664
397.2603744,81.4899978637695
397.2759994,84.4100036621094
397.2916244,86.9499969482422
397.3072494,88.2600021362305
397.3228744,87.6100006103516
397.3384994,84.9599990844727
397.3541244,80.9300003051758
397.3697494,76.1600036621094
397.3853744,70.870002746582
397.4009994,64.9199981689453
397.4166244,58.2200012207031
397.4322494,50.9000015258789
397.4478744,42.7900009155273
397.4634994,35.0
397.4791244,27.7199993133545
397.4947494,20.8099994659424
397.5103744,13.8199996948242
397.5259994,6.26000022888184
397.5416244,-2.09999990463257
397.5572494,-11.1199998855591
397.5728744,-20.2900009155273
397.5884994,-29.0699996948242
397.6041244,-37.0900001525879
397.6197494,-44.2200012207031
397.6353744,-50.5900001525879
397.6509994,-56.4500007629395
397.6666244,-62.1199989318848
397.6822494,-67.8499984741211
397.6978744,-73.6900024414063
397.7134994,-79.6100006103516
397.7291244,-85.629997253418
397.7447494,-91.8300018310547
397.7603744,-98.0999984741211
397.7759994,-104.110000610352
397.7916244,-109.290000915527
397.8072494,-113.169998168945
397.8228744,-115.610000610352
397.8384994,-116.769996643066
397.8541244,-116.830001831055
397.8697494,-115.970001220703
397.8853744,-114.379997253418
397.9009994,-112.309997558594
397.9166244,-109.940002441406
397.9322494,-107.069999694824
397.9478744,-103.0
397.9634994,-97.0299987792969
397.9791244,-89.0800018310547
397.9947494,-79.9100036621094
398.0103744,-70.7200012207031
398.0259994,-62.5800018310547
398.0416244,-56.0400009155273
398.0572494,-51.2799987792969
398.0728744,-48.5699996948242
398.0884994,-48.3899993896484
398.1041244,-51.0499992370605
398.1197494,-56.2799987792969
398.1353744,-63.0200004577637
398.1509994,-69.8499984741211
398.1666244,-75.6600036621094
398.1822494,-80.0199966430664
398.1978744,-83.1699981689453
398.2134994,-85.9400024414063
398.2291244,-89.4400024414063
398.2447494,-94.5100021362305
398.2603744,-101.309997558594
398.2759994,-109.569999694824
398.2916244,-119.120002746582
398.3072494,-129.910003662109
398.3228744,-141.520004272461
398.3384994,-152.630004882813
398.3541244,-161.279998779297
398.3697494,-166.020004272461
398.3853744,-167.050003051758
398.4009994,-165.660003662109
398.4166244,-163.0
398.4322494,-159.630004882813
398.4478744,-155.440002441406
398.4634994,-151.479995727539
398.4791244,-148.029998779297
398.4947494,-144.740005493164
398.5103744,-140.710006713867
398.5259994,-135.059997558594
398.5416244,-127.610000610352
398.5572494,-118.720001220703
398.5728744,-108.819999694824
398.5884994,-98.1600036621094
398.6041244,-86.9400024414063
398.6197494,-75.4599990844727
398.6353744,-64.0
398.6509994,-52.4900016784668
398.6666244,-40.4000015258789
398.6822494,-27.1100006103516
398.6978744,-12.5
398.7134994,2.92000007629395
398.7291244,18.3299999237061
398.7447494,32.9799995422363
398.7603744,46.3899993896484
398.7759994,58.0800018310547
398.7916244,67.3199996948242
398.8072494,73.5199966430664
398.8228744,76.7200012207031
398.8384994,77.620002746582
398.8541244,77.0299987792969
398.8697494,75.6100006103516
398.8853744,73.8600006103516
398.9009994,72.2799987792969
398.9166244,71.4000015258789
398.9322494,71.5
398.9478744,72.3499984741211
398.9634994,73.4599990844727
398.9791244,74.5599975585938
398.9947494,75.5999984741211
399.0103744,76.4899978637695
399.0259994,76.9700012207031
399.0416244,76.9199981689453
399.0572494,76.5599975585938
399.0728744,76.3899993896484
399.0884994,76.8399963378906
399.1041244,77.8300018310547
399.1197494,79.0599975585938
399.1353744,80.3600006103516
399.1509994,81.8499984741211
399.1666244,83.7099990844727
399.1822494,85.9400024414063
399.1978744,88.3899993896484
399.2134994,90.8199996948242
399.2291244,93.0299987792969
399.2447494,94.9400024414063
399.2603744,96.5899963378906
399.2759994,98.2600021362305
399.2916244,100.440002441406
399.3072494,103.540000915527
399.3228744,107.650001525879
399.3384994,112.559997558594
399.3541244,118.120002746582
399.3697494,124.550003051758
399.3853744,132.440002441406
399.4009994,142.070007324219
399.4166244,152.830001831055
399.4322494,163.470001220703
399.4478744,171.330001831055
399.4634994,177.339996337891
399.4791244,181.639999389648
399.4947494,184.669998168945
399.5103744,186.679992675781
399.5259994,187.75
399.5416244,187.949996948242
399.5572494,187.5
399.5728744,186.779998779297
399.5884994,186.149993896484
399.6041244,185.699996948242
399.6197494,185.089996337891
399.6353744,183.600006103516
399.6509994,180.619995117188
399.6666244,176.080001831055
399.6822494,170.440002441406
399.6978744,164.25
399.7134994,157.899993896484
399.7291244,151.580001831055
399.7447494,145.339996337891
399.7603744,139.160003662109
399.7759994,132.970001220703
399.7916244,126.669998168945
399.8072494,120.190002441406
399.8228744,113.519996643066
399.8384994,106.730003356934
399.8541244,99.9000015258789
399.8697494,93.0899963378906
399.8853744,86.3499984741211
399.9009994,79.7300033569336
399.9166244,73.2699966430664
399.9322494,66.9700012207031
399.9478744,60.7900009155273
399.9634994,54.7099990844727
399.9791244,48.7599983215332
399.9947494,43.0200004577637
400.0103744,37.560001373291
400.0259994,32.3699989318848
400.0416244,27.4799995422363
400.0572494,23.2099990844727
400.0728744,20.2299995422363
400.0884994,19.1599998474121
400.1041244,20.1599998474121
400.1197494,23.0599994659424
400.1353744,27.8199996948242
400.1509994,34.4199981689453
400.1666244,42.4799995422363
400.1822494,50.9199981689453
400.1978744,58.189998626709
400.2134994,63.2200012207031
400.2291244,65.9700012207031
400.2447494,67.0100021362305
400.2603744,66.620002746582
400.2759994,64.5899963378906
400.2916244,60.810001373291
400.3072494,55.5800018310547
400.3228744,49.5
400.3384994,43.0699996948242
400.3541244,36.3899993896484
400.3697494,29.25
400.3853744,21.5499992370605
400.4009994,13.3800001144409
400.4166244,5.07000017166138
400.4322494,-3.0699999332428
400.4478744,-10.7600002288818
400.4634994,-17.9200000762939
400.4791244,-24.7099990844727
400.4947494,-31.2999992370605
400.5103744,-37.7700004577637
400.5259994,-44.0999984741211
400.5416244,-50.1800003051758
400.5572494,-55.9000015258789
400.5728744,-61.2099990844727
400.5884994,-66.1100006103516
400.6041244,-70.6699981689453
400.6197494,-74.9300003051758
400.6353744,-78.9400024414063
400.6509994,-82.6999969482422
400.6666244,-86.2300033569336
400.6822494,-89.5299987792969
400.6978744,-92.6100006103516
400.7134994,-95.4700012207031
400.7291244,-98.1100006103516
400.7447494,-100.540000915527
400.7603744,-102.790000915527
400.7759994,-104.870002746582
400.7916244,-106.76000213623
400.8072494,-108.23999786377
400.8228744,-108.930000305176
400.8384994,-108.339996337891
400.8541244,-106.160003662109
400.8697494,-102.419998168945
400.8853744,-97.5699996948242
400.9009994,-92.2399978637695
400.9166244,-87.0299987792969
400.9322494,-82.2900009155273
400.9478744,-78.1600036621094
400.9634994,-74.6999969482422
400.9791244,-72.0500030517578
400.9947494,-70.3399963378906
401.0103744,-69.5199966430664
401.0259994,-69.3399963378906
401.0416244,-69.4700012207031
401.0572494,-69.8300018310547
401.0728744,-70.6800003051758
401.0884994,-72.4100036621094
401.1041244,-75.1399993896484
401.1197494,-78.6900024414063
401.1353744,-82.7099990844727
401.1509994,-86.9000015258789
401.1666244,-91.0100021362305
401.1822494,-94.8300018310547
401.1978744,-98.1800003051758
401.2134994,-101.089996337891
401.2291244,-103.809997558594
401.2447494,-106.599998474121
401.2603744,-109.48999786377
401.2759994,-112.230003356934
401.2916244,-114.5
401.3072494,-116.180000305176
401.3228744,-117.319999694824
401.3384994,-118.26000213623
401.3541244,-119.48999786377
401.3697494,-121.419998168945
401.3853744,-124.150001525879
401.4009994,-127.610000610352
401.4166244,-131.770004272461
401.4322494,-136.649993896484
401.4478744,-140.529998779297
401.4634994,-144.229995727539
401.4791244,-146.729995727539
401.4947494,-147.339996337891
401.5103744,-146.139999389648
401.5259994,-143.75
401.5416244,-140.630004882813
401.5572494,-136.910003662109
401.5728744,-132.589996337891
401.5884994,-127.730003356934
401.6041244,-122.51000213623
401.6197494,-116.860000610352
401.6353744,-110.400001525879
401.6509994,-102.680000305176
401.6666244,-93.6500015258789
401.6822494,-83.75
401.6978744,-73.6999969482422
401.7134994,-64.0800018310547
401.7291244,-55.25
401.7447494,-47.3699989318848
401.7603744,-40.5999984741211
401.7759994,-35.0499992370605
401.7916244,-30.6200008392334
401.8072494,-27.0400009155273
401.8228744,-24.0100002288818
401.8384994,-21.3199996948242
401.8541244,-18.8199996948242
401.8697494,-16.4099998474121
401.8853744,-14.0
401.9009994,-11.5799999237061
401.9166244,-9.1899995803833
401.9322494,-6.86999988555908
401.9478744,-4.57000017166138
401.9634994,-2.21000003814697
401.9791244,0.270000010728836
401.9947494,2.82999992370605
402.0103744,5.3899998664856
402.0259994,7.90000009536743
402.0416244,10.3999996185303
402.0572494,12.9700002670288
402.0728744,15.6499996185303
402.0884994,18.4500007629395
402.1041244,21.3199996948242
402.1197494,24.2099990844727
402.1353744,27.0499992370605
402.1509994,29.7900009155273
402.1666244,32.3899993896484
402.1822494,34.8600006103516
402.1978744,37.1800003051758
402.2134994,39.3499984741211
402.2291244,41.4199981689453
402.2447494,43.5099983215332
402.2603744,45.8499984741211
402.2759994,48.6500015258789
402.2916244,51.939998626709
402.3072494,55.5200004577637
402.3228744,59.1699981689453
402.3384994,62.9099998474121
402.3541244,67.1699981689453
402.3697494,72.3600006103516
402.3853744,78.4000015258789
402.4009994,84.6699981689453
402.4166244,90.4800033569336
402.4322494,95.3899993896484
402.4478744,99.0299987792969
402.4634994,101.849998474121
402.4791244,103.980003356934
402.4947494,105.459999084473
402.5103744,106.349998474121
402.5259994,106.769996643066
402.5416244,106.860000610352
402.5572494,106.779998779297
402.5728744,106.550003051758
402.5884994,106.01000213623
402.6041244,104.73999786377
402.6197494,102.339996337891
402.6353744,98.6999969482422
402.6509994,94.0899963378906
402.6666244,89.0100021362305
402.6822494,83.9599990844727
402.6978744,79.2399978637695
402.7134994,74.9300003051758
402.7291244,70.9499969482422
402.7447494,67.0999984741211
402.7603744,63.1500015258789
402.7759994,58.9700012207031
402.7916244,54.5499992370605
402.8072494,49.9300003051758
402.8228744,45.1399993896484
402.8384994,40.189998626709
402.8541244,35.1300010681152
402.8697494,30.1800003051758
402.8853744,25.6399993896484
402.9009994,21.7000007629395
402.9166244,18.2700004577637
402.9322494,15.1099996566772
402.9478744,12.0699996948242
402.9634994,9.10999965667725
402.9791244,6.19000005722046
402.9947494,3.22000002861023
403.0103744,0.159999996423721
403.0259994,-2.84999990463257
403.0416244,-5.51999998092651
403.0572494,-7.44999980926514
403.0728744,-8.30000019073486
403.0884994,-7.92999982833862
403.1041244,-6.42000007629395
403.1197494,-4.03000020980835
403.1353744,-1.17999994754791
403.1509994,1.71000003814697
403.1666244,4.38000011444092
403.1822494,6.65000009536743
403.1978744,8.4399995803833
403.2134994,9.72000026702881
403.2291244,10.5600004196167
403.2447494,11.0100002288818
403.2603744,11.0600004196167
403.2759994,10.6800003051758
403.2916244,9.86999988555908
403.3072494,8.71000003814697
403.3228744,7.25
403.3384994,5.46000003814697
403.3541244,3.25
403.3697494,0.649999976158142
403.3853744,-2.0699999332428
403.4009994,-4.57000017166138
403.4166244,-6.57999992370605
403.4322494,-8.05000019073486
403.4478744,-9.14999961853027
403.4634994,-10.1000003814697
403.4791244,-11.1400003433228
403.4947494,-12.3999996185303
403.5103744,-13.8699998855591
403.5259994,-15.5
403.5416244,-17.2700004577637
403.5572494,-19.2099990844727
403.5728744,-21.25
403.5884994,-23.2000007629395
403.6041244,-24.7099990844727
403.6197494,-25.5200004577637
403.6353744,-25.6299991607666
403.6509994,-25.25
403.6666244,-24.6100006103516
403.6822494,-23.8099994659424
403.6978744,-22.8999996185303
403.7134994,-21.8899993896484
403.7291244,-20.8099994659424
403.7447494,-19.6800003051758
403.7603744,-18.4699993133545
403.7759994,-17.1499996185303
403.7916244,-15.6800003051758
403.8072494,-13.9099998474121
403.8228744,-11.5299997329712
403.8384994,-8.25
403.8541244,-4.07000017166138
403.8697494,0.670000016689301
403.8853744,5.59000015258789
403.9009994,10.4200000762939
403.9166244,15.1999998092651
403.9322494,19.9799995422363
403.9478744,24.4899997711182
403.9634994,28.2700004577637
403.9791244,30.9799995422363
403.9947494,32.6800003051758
404.0103744,33.6500015258789
404.0259994,34.1399993896484
404.0416244,34.0999984741211
404.0572494,33.3499984741211
404.0728744,31.7999992370605
404.0884994,29.5599994659424
404.1041244,26.8500003814697
404.1197494,23.8700008392334
404.1353744,20.7999992370605
404.1509994,17.8099994659424
404.1666244,15.0
404.1822494,12.3800001144409
404.1978744,9.82999992370605
404.2134994,7.21999979019165
404.2291244,4.57000017166138
404.2447494,2.03999996185303
404.2603744,-0.189999997615814
404.2759994,-2.07999992370605
404.2916244,-3.70000004768372
404.3072494,-5.19000005722046
404.3228744,-6.73999977111816
404.3384994,-8.47999954223633
404.3541244,-10.4399995803833
404.3697494,-12.5900001525879
404.3853744,-14.9099998474121
404.4009994,-17.4300003051758
404.4166244,-20.0699996948242
404.4322494,-22.6299991607666
404.4478744,-24.7800006866455
404.4634994,-26.2199993133545
404.4791244,-26.9699993133545
404.4947494,-27.2299995422363
404.5103744,-27.2199993133545
404.5259994,-27.0100002288818
404.5416244,-26.6200008392334
404.5572494,-26.0599994659424
404.5728744,-25.3400001525879
404.5884994,-24.2299995422363
404.6041244,-22.2700004577637
404.6197494,-18.9799995422363
404.6353744,-14.3000001907349
404.6509994,-8.59000015258789
404.6666244,-2.36999988555908
404.6822494,3.91000008583069
404.6978744,9.9399995803833
404.7134994,15.3500003814697
404.7291244,19.6299991607666
404.7447494,22.3700008392334
404.7603744,23.4799995422363
404.7759994,23.25
404.7916244,22.0900001525879
404.8072494,20.4099998474121
404.8228744,18.5
404.8384994,16.5699996948242
404.8541244,14.6999998092651
404.8697494,12.8900003433228
404.8853744,10.9899997711182
404.9009994,8.86999988555908
404.9166244,6.48000001907349
404.9322494,3.83999991416931
404.9478744,0.970000028610229
404.9634994,-2.11999988555908
404.9791244,-5.38000011444092
404.9947494,-8.56999969482422
405.0103744,-11.4099998474121
405.0259994,-13.710000038147
405.0416244,-15.5500001907349
405.0572494,-17.1599998474121
405.0728744,-18.6900005340576
405.0884994,-20.1800003051758
405.1041244,-21.7000007629395
405.1197494,-23.3600006103516
405.1353744,-25.2000007629395
405.1509994,-27.0799999237061
405.1666244,-28.7299995422363
405.1822494,-29.9400005340576
405.1978744,-30.7700004577637
405.2134994,-31.3999996185303
405.2291244,-31.9300003051758
405.2447494,-32.2599983215332
405.2603744,-32.2900009155273
405.2759994,-32.0
405.2916244,-31.4200000762939
405.3072494,-30.4599990844727
405.3228744,-28.8099994659424
405.3384994,-26.1399993896484
405.3541244,-22.3700008392334
405.3697494,-17.6200008392334
405.3853744,-12.0200004577637
405.4009994,-5.6399998664856
405.4166244,1.27999997138977
405.4322494,8.27999973297119
405.4478744,15.0
405.4634994,20.8799991607666
405.4791244,25.8400001525879
405.4947494,30.0200004577637
405.5103744,33.4300003051758
405.5259994,35.8800010681152
405.5416244,37.2599983215332
405.5572494,37.7400016784668
405.5728744,37.6399993896484
405.5884994,37.2299995422363
405.6041244,36.5900001525879
405.6197494,35.6100006103516
405.6353744,34.2000007629395
405.6509994,32.3899993896484
405.6666244,30.2999992370605
405.6822494,28.0499992370605
405.6978744,25.7600002288818
405.7134994,23.5100002288818
405.7291244,21.2999992370605
405.7447494,19.0499992370605
405.7603744,16.6599998474121
