Time(s),Value(%)
395.0103744,17.7900009155273
395.0259994,40.4900016784668
395.0416244,72.8399963378906
395.0572494,113.669998168945
395.0728744,159.169998168945
395.0884994,204.679992675781
395.1041244,246.270004272461
395.1197494,281.059997558594
395.1353744,306.959991455078
395.1509994,322.619995117188
395.1666244,327.670013427734
395.1822494,322.929992675781
395.1978744,307.579986572266
395.2134994,281.209991455078
395.2291244,244.559997558594
395.2447494,200.179992675781
395.2603744,151.539993286133
395.2759994,101.98999786377
395.2916244,54.4599990844727
395.3072494,11.5900001525879
395.3228744,-24.6700000762939
395.3384994,-53.9500007629395
395.3541244,-77.4000015258789
395.3697494,-97.0500030517578
395.3853744,-114.779998779297
395.4009994,-131.759994506836
395.4166244,-148.270004272461
395.4322494,-163.830001831055
395.4478744,-177.600006103516
395.4634994,-189.029998779297
395.4791244,-198.110000610352
395.4947494,-205.199996948242
395.5103744,-210.720001220703
395.5259994,-214.979995727539
395.5416244,-218.100006103516
395.5572494,-219.889999389648
395.5728744,-219.869995117188
395.5884994,-217.580001831055
395.6041244,-212.800003051758
395.6197494,-205.839996337891
395.6353744,-197.559997558594
395.6509994,-189.100006103516
395.6666244,-181.470001220703
395.6822494,-175.029998779297
395.6978744,-169.350006103516
395.7134994,-163.330001831055
395.7291244,-155.350006103516
395.7447494,-143.399993896484
395.7603744,-125.099998474121
395.7759994,-98.1100006103516
395.7916244,-61.8800010681152
395.8072494,-19.3099994659424
395.8228744,23.8400001525879
395.8384994,61.2900009155273
395.8541244,88.3600006103516
395.8697494,103.150001525879
395.8853744,106.620002746582
395.9009994,101.639999389648
395.9166244,91.5999984741211
395.9322494,79.1800003051758
395.9478744,65.8000030517578
395.9634994,51.75
395.9791244,36.8300018310547
395.9947494,21.0100002288818
396.0103744,4.65999984741211
396.0259994,-11.3299999237061
396.0416244,-25.7099990844727
396.0572494,-37.0
396.0728744,-44.25
396.0884994,-47.4199981689453
396.1041244,-47.3499984741211
396.1197494,-45.2700004577637
396.1353744,-42.2700004577637
396.1509994,-38.8199996948242
396.1666244,-34.6699981689453
396.1822494,-29.4200000762939
396.1978744,-23.0
396.2134994,-15.6700000762939
396.2291244,-7.82000017166138
396.2447494,0.200000002980232
396.2603744,8.01000022888184
396.2759994,14.9399995803833
396.2916244,20.2399997711182
396.3072494,23.6700000762939
396.3228744,25.8700008392334
396.3384994,28.0699996948242
396.3541244,31.4899997711182
396.3697494,36.8300018310547
396.3853744,43.8499984741211
396.4009994,51.5
396.4166244,58.4199981689453
396.4322494,63.5200004577637
396.4478744,66.5100021362305
396.4634994,67.9899978637695
396.4791244,69.0599975585938
396.4947494,71.1600036621094
396.5103744,75.9700012207031
396.5259994,85.629997253418
396.5416244,102.25
396.5572494,126.089996337891
396.5728744,154.059997558594
396.5884994,180.990005493164
396.6041244,202.229995727539
396.6197494,215.179992675781
396.6353744,219.190002441406
396.6509994,215.089996337891
396.6666244,204.550003051758
396.6822494,189.100006103516
396.6978744,169.669998168945
396.7134994,147.229995727539
396.7291244,123.150001525879
396.7447494,98.1600036621094
396.7603744,71.7300033569336
396.7759994,43.1699981689453
396.7916244,13.0
396.8072494,-17.1100006103516
396.8228744,-44.8800010681152
396.8384994,-67.6500015258789
396.8541244,-83.2300033569336
396.8697494,-91.1100006103516
396.8853744,-92.9599990844727
396.9009994,-91.7099990844727
396.9166244,-90.0800018310547
396.9322494,-89.6900024414063
396.9478744,-91.0400009155273
396.9634994,-93.5599975585938
396.9791244,-95.9000015258789
396.9947494,-96.7099990844727
397.0103744,-95.3499984741211
397.0259994,-92.0899963378906
397.0416244,-87.870002746582
397.0572494,-84.0199966430664
397.0728744,-81.5599975585938
397.0884994,-80.4100036621094
397.1041244,-79.5199966430664
397.1197494,-77.5
397.1353744,-73.2200012207031
397.1509994,-66.2399978637695
397.1666244,-57.2900009155273
397.1822494,-48.810001373291
397.1978744,-44.2599983215332
397.2134994,-45.3400001525879
397.2291244,-50.0400009155273
397.2447494,-53.75
397.2603744,-51.939998626709
397.2759994,-41.9099998474121
397.2916244,-23.1499996185303
397.3072494,3.0699999332428
397.3228744,33.8600006103516
397.3384994,65.0400009155273
397.3541244,92.4700012207031
397.3697494,113.389999389648
397.3853744,126.819999694824
397.4009994,133.300003051758
397.4166244,134.149993896484
397.4322494,130.669998168945
397.4478744,123.709999084473
397.4634994,113.690002441406
397.4791244,100.959999084473
397.4947494,86.0199966430664
397.5103744,69.7399978637695
397.5259994,53.3400001525879
397.5416244,38.0099983215332
397.5572494,24.4400005340576
397.5728744,12.8199996948242
397.5884994,3.21000003814697
397.6041244,-4.38000011444092
397.6197494,-10.1300001144409
397.6353744,-14.4099998474121
397.6509994,-17.7299995422363
397.6666244,-20.5
397.6822494,-23.1299991607666
397.6978744,-26.0200004577637
397.7134994,-29.2999992370605
397.7291244,-32.6300010681152
397.7447494,-35.4599990844727
397.7603744,-37.3400001525879
397.7759994,-38.1599998474121
397.7916244,-38.189998626709
397.8072494,-37.9599990844727
397.8228744,-37.8699989318848
397.8384994,-37.8899993896484
397.8541244,-37.7000007629395
397.8697494,-37.1100006103516
397.8853744,-36.1100006103516
397.9009994,-34.8400001525879
397.9166244,-33.3699989318848
397.9322494,-31.6700000762939
397.9478744,-29.6900005340576
397.9634994,-27.1499996185303
397.9791244,-23.2299995422363
397.9947494,-16.6499996185303
398.0103744,-6.32999992370605
398.0259994,7.96999979019165
398.0416244,25.6599998474121
398.0572494,45.3400001525879
398.0728744,64.9599990844727
398.0884994,82.0199966430664
398.1041244,94.5400009155273
398.1197494,101.660003662109
398.1353744,103.669998168945
398.1509994,101.580001831055
398.1666244,96.5100021362305
398.1822494,89.2099990844727
398.1978744,79.9499969482422
398.2134994,68.7699966430664
398.2291244,55.7400016784668
398.2447494,41.2000007629395
398.2603744,25.8199996948242
398.2759994,10.5500001907349
398.2916244,-3.73000001907349
398.3072494,-16.5499992370605
398.3228744,-27.8199996948242
398.3384994,-37.4799995422363
398.3541244,-45.3899993896484
398.3697494,-51.5099983215332
398.3853744,-56.0299987792969
398.4009994,-59.4900016784668
398.4166244,-62.5800018310547
398.4322494,-66.0800018310547
398.4478744,-70.5
398.4634994,-75.6100006103516
398.4791244,-80.4300003051758
398.4947494,-83.879997253418
398.5103744,-85.4599990844727
398.5259994,-85.4199981689453
398.5416244,-84.4800033569336
398.5572494,-83.3899993896484
398.5728744,-82.5100021362305
398.5884994,-81.6500015258789
398.6041244,-80.3899993896484
398.6197494,-78.4599990844727
398.6353744,-75.6800003051758
398.6509994,-72.0599975585938
398.6666244,-67.8600006103516
398.6822494,-63.4000015258789
398.6978744,-58.8300018310547
398.7134994,-53.7299995422363
398.7291244,-47.0999984741211
398.7447494,-37.8899993896484
398.7603744,-25.4699993133545
398.7759994,-10.1199998855591
398.7916244,7.09000015258789
398.8072494,24.7199993133545
398.8228744,41.1399993896484
398.8384994,54.6800003051758
398.8541244,64.129997253418
398.8697494,69.2600021362305
398.8853744,70.6800003051758
398.9009994,69.4000015258789
398.9166244,66.2600021362305
398.9322494,61.7400016784668
398.9478744,55.8699989318848
398.9634994,48.6199989318848
398.9791244,40.2900009155273
398.9947494,31.5100002288818
399.0103744,23.0300006866455
399.0259994,15.3999996185303
399.0416244,8.80000019073486
399.0572494,3.14000010490417
399.0728744,-1.83000004291534
399.0884994,-6.26000022888184
399.1041244,-10.2200002670288
399.1197494,-13.710000038147
399.1353744,-16.7999992370605
399.1509994,-19.5599994659424
399.1666244,-22.0799999237061
399.1822494,-24.3600006103516
399.1978744,-26.4699993133545
399.2134994,-28.3700008392334
399.2291244,-29.7999992370605
399.2447494,-30.4400005340576
399.2603744,-30.2199993133545
399.2759994,-29.3199996948242
399.2916244,-28.0400009155273
399.3072494,-26.6900005340576
399.3228744,-25.4200000762939
399.3384994,-24.1499996185303
399.3541244,-22.7999992370605
399.3697494,-21.3600006103516
399.3853744,-19.8700008392334
399.4009994,-18.2800006866455
399.4166244,-16.3799991607666
399.4322494,-13.8699998855591
399.4478744,-10.1800003051758
399.4634994,-4.59000015258789
399.4791244,3.57999992370605
399.4947494,14.5
399.5103744,27.4699993133545
399.5259994,41.1699981689453
399.5416244,54.1500015258789
399.5572494,65.2799987792969
399.5728744,73.75
399.5884994,78.9899978637695
399.6041244,80.9000015258789
399.6197494,79.9000015258789
399.6353744,76.7399978637695
399.6509994,72.129997253418
399.6666244,66.4100036621094
399.6822494,59.6300010681152
399.6978744,51.8499984741211
399.7134994,43.4000015258789
399.7291244,34.6800003051758
399.7447494,26.0400009155273
399.7603744,17.7299995422363
399.7759994,9.98999977111816
399.7916244,3.04999995231628
399.8072494,-2.98000001907349
399.8228744,-8.19999980926514
399.8384994,-12.8199996948242
399.8541244,-16.9500007629395
399.8697494,-20.5799999237061
399.8853744,-23.7099990844727
399.9009994,-26.4799995422363
399.9166244,-29.0900001525879
399.9322494,-31.6200008392334
399.9478744,-34.0200004577637
399.9634994,-36.1399993896484
399.9791244,-37.8199996948242
399.9947494,-38.939998626709
400.0103744,-39.4500007629395
400.0259994,-39.4799995422363
400.0416244,-39.1599998474121
400.0572494,-38.5999984741211
400.0728744,-37.810001373291
400.0884994,-36.8199996948242
400.1041244,-35.689998626709
400.1197494,-34.4300003051758
400.1353744,-32.9799995422363
400.1509994,-31.25
400.1666244,-29.25
400.1822494,-26.9799995422363
400.1978744,-24.2800006866455
400.2134994,-20.6299991607666
400.2291244,-15.3199996948242
400.2447494,-7.71000003814697
400.2603744,2.40000009536743
400.2759994,14.7299995422363
400.2916244,28.3500003814697
400.3072494,41.8899993896484
400.3228744,54.0499992370605
400.3384994,64.0299987792969
400.3541244,71.3899993896484
400.3697494,75.7399978637695
400.3853744,76.8600006103516
400.4009994,74.9899978637695
400.4166244,70.7300033569336
400.4322494,64.8099975585938
400.4478744,57.7099990844727
400.4634994,49.5699996948242
400.4791244,40.4099998474121
400.4947494,30.4500007629395
400.5103744,20.1599998474121
400.5259994,10.1300001144409
400.5416244,0.970000028610229
400.5572494,-6.73999977111816
400.5728744,-12.8500003814697
400.5884994,-17.7299995422363
400.6041244,-21.9799995422363
400.6197494,-25.9599990844727
400.6353744,-29.6900005340576
400.6509994,-33.1500015258789
400.6666244,-36.2900009155273
400.6822494,-39.0099983215332
400.6978744,-41.2000007629395
400.7134994,-42.9700012207031
400.7291244,-44.5800018310547
400.7447494,-46.2400016784668
400.7603744,-47.8800010681152
400.7759994,-49.2099990844727
400.7916244,-49.9000015258789
400.8072494,-49.7099990844727
400.8228744,-48.7700004577637
400.8384994,-47.4900016784668
400.8541244,-46.1800003051758
400.8697494,-44.8499984741211
400.8853744,-43.3300018310547
400.9009994,-41.5
400.9166244,-39.310001373291
400.9322494,-36.810001373291
400.9478744,-33.9300003051758
400.9634994,-30.4200000762939
400.9791244,-25.6200008392334
400.9947494,-18.7900009155273
401.0103744,-9.44999980926514
401.0259994,2.35999989509583
401.0416244,16.0100002288818
401.0572494,30.2600002288818
401.0728744,43.6100006103516
401.0884994,54.7999992370605
401.1041244,62.9799995422363
401.1197494,67.6900024414063
401.1353744,68.9899978637695
401.1509994,67.4199981689453
401.1666244,63.7400016784668
401.1822494,58.6800003051758
401.1978744,52.6500015258789
401.2134994,45.810001373291
401.2291244,38.1399993896484
401.2447494,29.75
401.2603744,21.0699996948242
401.2759994,12.7299995422363
401.2916244,5.3600001335144
401.3072494,-0.600000023841858
401.3228744,-5.09000015258789
401.3384994,-8.40999984741211
401.3541244,-11.0200004577637
401.3697494,-13.3100004196167
401.3853744,-15.4799995422363
401.4009994,-17.5400009155273
401.4166244,-19.4799995422363
401.4322494,-21.3199996948242
401.4478744,-23.0
401.4634994,-24.4300003051758
401.4791244,-25.4899997711182
401.4947494,-26.1499996185303
401.5103744,-26.4500007629395
401.5259994,-26.3400001525879
401.5416244,-25.7199993133545
401.5572494,-24.5200004577637
401.5728744,-22.9200000762939
401.5884994,-21.2800006866455
401.6041244,-19.9599990844727
401.6197494,-19.0100002288818
401.6353744,-18.2299995422363
401.6509994,-17.3700008392334
401.6666244,-16.2000007629395
401.6822494,-14.4200000762939
401.6978744,-11.5
401.7134994,-6.82000017166138
401.7291244,0.219999998807907
401.7447494,9.81999969482422
401.7603744,21.3600006103516
401.7759994,33.4599990844727
401.7916244,44.5
401.8072494,53.2200012207031
401.8228744,59.0999984741211
401.8384994,62.2999992370605
401.8541244,63.2099990844727
401.8697494,62.0900001525879
401.8853744,59.1699981689453
401.9009994,54.6699981689453
401.9166244,48.7900009155273
401.9322494,41.7700004577637
401.9478744,33.939998626709
401.9634994,25.6700000762939
401.9791244,17.3999996185303
401.9947494,9.52999973297119
402.0103744,2.51999998092651
402.0259994,-3.34999990463257
402.0416244,-8.09000015258789
402.0572494,-12.0
402.0728744,-15.4300003051758
402.0884994,-18.6900005340576
402.1041244,-21.9300003051758
402.1197494,-25.0699996948242
402.1353744,-27.9699993133545
402.1509994,-30.5100002288818
402.1666244,-32.6500015258789
402.1822494,-34.3499984741211
402.1978744,-35.5200004577637
402.2134994,-36.2299995422363
402.2291244,-36.6500015258789
402.2447494,-36.9599990844727
402.2603744,-37.1599998474121
402.2759994,-37.189998626709
402.2916244,-36.9599990844727
402.3072494,-36.4199981689453
402.3228744,-35.5900001525879
402.3384994,-34.5200004577637
402.3541244,-33.2599983215332
402.3697494,-31.7700004577637
402.3853744,-29.9599990844727
402.4009994,-27.7299995422363
402.4166244,-24.8600006103516
402.4322494,-20.8799991607666
402.4478744,-15.1400003433228
402.4634994,-7.07000017166138
402.4791244,3.66000008583069
402.4947494,16.6800003051758
402.5103744,30.6100006103516
402.5259994,43.5800018310547
402.5416244,53.9300003051758
402.5572494,60.8899993896484
402.5728744,64.6100006103516
402.5884994,65.8099975585938
402.6041244,65.25
402.6197494,63.2400016784668
402.6353744,59.7099990844727
402.6509994,54.5800018310547
402.6666244,48.0299987792969
402.6822494,40.4199981689453
402.6978744,32.2400016784668
402.7134994,23.9200000762939
402.7291244,15.7299995422363
402.7447494,7.96000003814697
402.7603744,1.03999996185303
402.7759994,-4.51999998092651
402.7916244,-8.63000011444092
402.8072494,-11.6199998855591
402.8228744,-14.1000003814697
402.8384994,-16.5699996948242
402.8541244,-19.1700000762939
402.8697494,-21.8400001525879
402.8853744,-24.2900009155273
402.9009994,-26.2999992370605
402.9166244,-27.7999992370605
402.9322494,-29.0
402.9478744,-30.1000003814697
402.9634994,-31.1000003814697
402.9791244,-31.7800006866455
402.9947494,-31.9099998474121
403.0103744,-31.4400005340576
403.0259994,-30.5300006866455
403.0416244,-29.4699993133545
403.0572494,-28.5699996948242
403.0728744,-27.9200000762939
403.0884994,-27.3799991607666
403.1041244,-26.7399997711182
403.1197494,-25.9500007629395
403.1353744,-25.0599994659424
403.1509994,-24.0400009155273
403.1666244,-22.6499996185303
403.1822494,-20.3700008392334
403.1978744,-16.3600006103516
403.2134994,-9.8100004196167
403.2291244,-0.25
403.2447494,12.1400003433228
403.2603744,26.3700008392334
403.2759994,40.7099990844727
403.2916244,53.3199996948242
403.3072494,62.9500007629395
403.3228744,69.1900024414063
403.3384994,72.25
403.3541244,72.6600036621094
403.3697494,70.9700012207031
403.3853744,67.5199966430664
403.4009994,62.4500007629395
403.4166244,55.8899993896484
403.4322494,47.9799995422363
403.4478744,38.8899993896484
403.4634994,28.9400005340576
403.4791244,18.8299999237061
403.4947494,9.39999961853027
403.5103744,1.1599999666214
403.5259994,-5.84000015258789
403.5416244,-11.8000001907349
403.5572494,-16.8799991607666
403.5728744,-21.25
403.5884994,-25.1800003051758
403.6041244,-28.9300003051758
403.6197494,-32.6500015258789
403.6353744,-36.2999992370605
403.6509994,-39.8199996948242
403.6666244,-43.1699981689453
403.6822494,-46.4000015258789
403.6978744,-49.5299987792969
403.7134994,-52.4799995422363
403.7291244,-54.939998626709
403.7447494,-56.6199989318848
403.7603744,-57.3899993896484
403.7759994,-57.2999992370605
403.7916244,-56.4900016784668
403.8072494,-55.1699981689453
403.8228744,-53.6199989318848
403.8384994,-52.060001373291
403.8541244,-50.5499992370605
403.8697494,-49.1100006103516
403.8853744,-47.6500015258789
403.9009994,-45.9099998474121
403.9166244,-43.560001373291
403.9322494,-40.3699989318848
403.9478744,-36.060001373291
403.9634994,-30.0900001525879
403.9791244,-21.7700004577637
403.9947494,-10.6300001144409
404.0103744,3.27999997138977
404.0259994,19.0900001525879
404.0416244,35.1300010681152
404.0572494,49.5699996948242
404.0728744,61.1699981689453
404.0884994,69.3399963378906
404.1041244,74.0999984741211
404.1197494,75.8399963378906
404.1353744,75.2200012207031
404.1509994,72.870002746582
404.1666244,69.2300033569336
404.1822494,64.4300003051758
404.1978744,58.4700012207031
404.2134994,51.439998626709
404.2291244,43.6800003051758
404.2447494,35.689998626709
404.2603744,27.9500007629395
404.2759994,20.8400001525879
404.2916244,14.6199998855591
404.3072494,9.47999954223633
404.3228744,5.48999977111816
404.3384994,2.64000010490417
404.3541244,0.870000004768372
404.3697494,-0.0599999986588955
404.3853744,-0.490000009536743
404.4009994,-0.639999985694885
404.4166244,-0.519999980926514
404.4322494,-0.0099999997764825
404.4478744,1.07000005245209
404.4634994,2.86999988555908
404.4791244,5.32000017166138
404.4947494,8.03999996185303
404.5103744,10.539999961853
404.5259994,12.3900003433228
404.5416244,13.3800001144409
404.5572494,13.5600004196167
404.5728744,13.210000038147
404.5884994,12.6400003433228
404.6041244,12.0200004577637
404.6197494,11.2600002288818
404.6353744,10.2600002288818
404.6509994,9.13000011444092
404.6666244,8.39000034332275
404.6822494,8.89000034332275
404.6978744,11.5799999237061
404.7134994,17.1299991607666
404.7291244,25.6900005340576
404.7447494,36.9199981689453
404.7603744,50.25
404.7759994,64.6399993896484
404.7916244,78.370002746582
404.8072494,89.620002746582
404.8228744,97.1900024414063
404.8384994,100.830001831055
404.8541244,101.269996643066
404.8697494,99.8300018310547
404.8853744,97.4000015258789
404.9009994,93.6500015258789
404.9166244,87.5400009155273
404.9322494,78.5100021362305
404.9478744,66.9000015258789
404.9634994,53.4799995422363
404.9791244,39.1100006103516
404.9947494,24.7000007629395
405.0103744,11.2299995422363
405.0259994,-0.689999997615814
405.0416244,-11.2600002288818
405.0572494,-21.1900005340576
405.0728744,-31.2700004577637
405.0884994,-42.0299987792969
405.1041244,-53.560001373291
405.1197494,-65.4100036621094
405.1353744,-76.8199996948242
405.1509994,-87.1699981689453
405.1666244,-96.4100036621094
405.1822494,-104.910003662109
405.1978744,-113.050003051758
405.2134994,-120.970001220703
405.2291244,-128.520004272461
405.2447494,-135.279998779297
405.2603744,-140.649993896484
405.2759994,-144.240005493164
405.2916244,-146.080001831055
405.3072494,-146.539993286133
405.3228744,-146.110000610352
405.3384994,-145.119995117188
405.3541244,-143.660003662109
405.3697494,-141.779998779297
405.3853744,-139.529998779297
405.4009994,-136.789993286133
405.4166244,-133.100006103516
405.4322494,-127.669998168945
405.4478744,-119.48999786377
405.4634994,-107.559997558594
405.4791244,-91.2099990844727
405.4947494,-70.4100036621094
405.5103744,-45.7299995422363
405.5259994,-18.7999992370605
405.5416244,7.48000001907349
405.5572494,30.0699996948242
405.5728744,46.8600006103516
405.5884994,57.1100006103516
405.6041244,61.310001373291
405.6197494,60.8400001525879
405.6353744,57.1800003051758
405.6509994,51.2599983215332
405.6666244,43.3499984741211
405.6822494,33.689998626709
405.6978744,22.8600006103516
405.7134994,11.710000038147
405.7291244,1.07000005245209
