Time(s),Value(%)
0.0515019,37.5699996948242
0.0671269,33.2999992370605
0.0827519,28.1299991607666
0.0983769,22.5400009155273
0.1140019,16.8500003814697
0.1296269,11.3000001907349
0.1452519,6.03000020980835
0.1608769,1.21000003814697
0.1765019,-2.92000007629395
0.1921269,-6.15999984741211
0.2077519,-8.48999977111816
0.2233769,-10.2299995422363
0.2390019,-11.8800001144409
0.2546269,-13.8100004196167
0.2702519,-16.0200004577637
0.2858769,-18.2299995422363
0.3015019,-20.1299991607666
0.3171269,-21.5799999237061
0.3327519,-22.5900001525879
0.3483769,-23.3400001525879
0.3640019,-24.0699996948242
0.3796269,-24.9300003051758
0.3952519,-25.8500003814697
0.4108769,-26.5599994659424
0.4265019,-26.7399997711182
0.4421269,-25.9899997711182
0.4577519,-23.6900005340576
0.4733769,-19.0699996948242
0.4890019,-11.4499998092651
0.5046269,-0.920000016689301
0.5202519,11.2799997329712
0.5358769,23.25
0.5515019,33.189998626709
0.5671269,39.9799995422363
0.5827519,43.3699989318848
0.5983769,43.8400001525879
0.6140019,42.189998626709
0.6296269,39.2000007629395
0.6452519,35.3400001525879
0.6608769,30.7999992370605
0.6765019,25.6399993896484
0.6921269,19.9699993133545
0.7077519,13.9200000762939
0.7233769,7.80000019073486
0.7390019,1.98000001907349
0.7546269,-3.24000000953674
0.7702519,-7.65000009536743
0.7858769,-11.1499996185303
0.8015019,-13.7700004577637
0.8171269,-15.8000001907349
0.8327519,-17.6700000762939
0.8483769,-19.6900005340576
0.8640019,-21.8299999237061
0.8796269,-23.9200000762939
0.8952519,-25.7700004577637
0.9108769,-27.2999992370605
0.9265019,-28.4699993133545
0.9421269,-29.3099994659424
0.9577519,-29.8899993896484
0.9733769,-30.2700004577637
0.9890019,-30.5100002288818
1.0046269,-30.3600006103516
1.0202519,-29.1299991607666
1.0358769,-25.9200000762939
1.0515019,-20.1000003814697
1.0671269,-11.5900001525879
1.0827519,-1.00999999046326
1.0983769,10.5699996948242
1.1140019,21.8899993896484
1.1296269,31.7000007629395
1.1452519,39.0699996948242
1.1608769,43.439998626709
1.1765019,44.7400016784668
1.1921269,43.2900009155273
1.2077519,39.7000007629395
1.2233769,34.689998626709
1.2390019,28.8700008392334
1.2546269,22.6599998474121
1.2702519,16.3899993896484
1.2858769,10.3500003814697
1.3015019,4.65999984741211
1.3171269,-0.620000004768372
1.3327519,-5.42999982833862
1.3483769,-9.55000019073486
1.3640019,-12.8699998855591
1.3796269,-15.4399995803833
1.3952519,-17.4599990844727
1.4108769,-19.1499996185303
1.4265019,-20.7099990844727
1.4421269,-22.2900009155273
1.4577519,-23.9500007629395
1.4733769,-25.7000007629395
1.4890019,-27.3899993896484
1.5046269,-28.7600002288818
1.5202519,-29.5699996948242
1.5358769,-29.8600006103516
1.5515019,-29.8199996948242
1.5671269,-29.5599994659424
1.5827519,-28.9899997711182
1.5983769,-27.7199993133545
1.6140019,-25.1299991607666
1.6296269,-20.6000003814697
1.6452519,-13.9099998474121
1.6608769,-5.21000003814697
1.6765019,5.03999996185303
1.6921269,16.2099990844727
1.7077519,27.3400001525879
1.7233769,37.2400016784668
1.7390019,44.8499984741211
1.7546269,49.6199989318848
1.7702519,51.5099983215332
1.7858769,50.8600006103516
1.8015019,48.189998626709
1.8171269,44.0200004577637
1.8327519,38.7799987792969
1.8483769,32.810001373291
1.8640019,26.3700008392334
1.8796269,19.6700000762939
1.8952519,12.9300003051758
1.9108769,6.42000007629395
1.9265019,0.479999989271164
1.9421269,-4.57999992370605
1.9577519,-8.67000007629395
1.9733769,-11.8400001525879
1.9890019,-14.3400001525879
2.0046269,-16.5799999237061
2.0202519,-18.8899993896484
2.0358769,-21.3799991607666
2.0515019,-23.9200000762939
2.0671269,-26.2000007629395
2.0827519,-27.8799991607666
2.0983769,-28.7800006866455
2.1140019,-28.9699993133545
2.1296269,-28.5799999237061
2.1452519,-27.7600002288818
2.1608769,-26.8400001525879
2.1765019,-26.2000007629395
2.1921269,-26.0100002288818
2.2077519,-26.1000003814697
2.2233769,-26.1299991607666
2.2390019,-25.5900001525879
2.2546269,-23.7600002288818
2.2702519,-19.6800003051758
2.2858769,-12.6400003433228
2.3015019,-2.72000002861023
2.3171269,9.15999984741211
2.3327519,21.6299991607666
2.3483769,33.1500015258789
2.3640019,42.4099998474121
2.3796269,48.5499992370605
2.3952519,51.4199981689453
2.4108769,51.4900016784668
2.4265019,49.5200004577637
2.4421269,46.1199989318848
2.4577519,41.7099990844727
2.4733769,36.5699996948242
2.4890019,30.8299999237061
2.5046269,24.5799999237061
2.5202519,17.9799995422363
2.5358769,11.3699998855591
2.5515019,5.26000022888184
2.5671269,0.0299999993294477
2.5827519,-4.23000001907349
2.5983769,-7.57000017166138
2.6140019,-10.1199998855591
2.6296269,-12.1199998855591
2.6452519,-13.9499998092651
2.6608769,-15.960000038147
2.6765019,-18.3299999237061
2.6921269,-21.0100002288818
2.7077519,-23.6900005340576
2.7233769,-25.9799995422363
2.7390019,-27.5699996948242
2.7546269,-28.4099998474121
2.7702519,-28.7700004577637
2.7858769,-29.0200004577637
2.8015019,-29.3099994659424
2.8171269,-29.4899997711182
2.8327519,-29.3400001525879
2.8483769,-28.6800003051758
2.8640019,-27.4099998474121
2.8796269,-25.4099998474121
2.8952519,-22.2999992370605
2.9108769,-17.3099994659424
2.9265019,-9.72999954223633
2.9421269,0.5
2.9577519,12.5299997329712
2.9733769,24.8799991607666
2.9890019,35.9000015258789
3.0046269,44.2400016784668
3.0202519,49.2200012207031
3.0358769,50.8899993896484
3.0515019,49.7200012207031
3.0671269,46.5099983215332
3.0827519,42.060001373291
3.0983769,36.9900016784668
3.1140019,31.5699996948242
3.1296269,25.8600006103516
3.1452519,19.8700008392334
3.1608769,13.7600002288818
3.1765019,7.86999988555908
3.1921269,2.64000010490417
3.2077519,-1.66999995708466
3.2233769,-5.09999990463257
3.2390019,-7.82999992370605
3.2546269,-10.1800003051758
3.2702519,-12.4899997711182
3.2858769,-14.8800001144409
3.3015019,-17.25
3.3171269,-19.4500007629395
3.3327519,-21.4500007629395
3.3483769,-23.25
3.3640019,-24.8500003814697
3.3796269,-26.2600002288818
3.3952519,-27.4799995422363
3.4108769,-28.4099998474121
3.4265019,-28.8999996185303
3.4421269,-28.9099998474121
3.4577519,-28.5
3.4733769,-27.8099994659424
3.4890019,-26.8899993896484
3.5046269,-25.5300006866455
3.5202519,-23.0200004577637
3.5358769,-18.4099998474121
3.5515019,-11.0600004196167
3.5671269,-1.00999999046326
3.5827519,10.8199996948242
3.5983769,22.9899997711182
3.6140019,33.939998626709
3.6296269,42.4500007629395
3.6452519,47.8199996948242
3.6608769,50.0
3.6765019,49.4799995422363
3.6921269,47.0299987792969
3.7077519,43.4099998474121
3.7233769,39.0800018310547
3.7390019,34.1599998474121
3.7546269,28.5599994659424
3.7702519,22.2000007629395
3.7858769,15.3199996948242
3.8015019,8.47000026702881
3.8171269,2.28999996185303
3.8327519,-2.82999992370605
3.8483769,-6.82999992370605
3.8640019,-9.86999988555908
3.8796269,-12.3000001907349
3.8952519,-14.5799999237061
3.9108769,-17.0
3.9265019,-19.6000003814697
3.9421269,-22.25
3.9577519,-24.7600002288818
3.9733769,-26.9500007629395
3.9890019,-28.6299991607666
4.0046269,-29.7700004577637
4.0202519,-30.6299991607666
4.0358769,-31.5200004577637
4.0515019,-32.4500007629395
4.0671269,-33.1100006103516
4.0827519,-33.2299995422363
4.0983769,-32.75
4.1140019,-31.7600002288818
4.1296269,-30.2999992370605
4.1452519,-28.1800003051758
4.1608769,-24.6599998474121
4.1765019,-18.7999992370605
4.1921269,-10.1199998855591
4.2077519,0.970000028610229
4.2233769,13.3400001525879
4.2390019,25.5
4.2546269,36.0
4.2702519,43.9099998474121
4.2858769,48.7900009155273
4.3015019,50.6300010681152
4.3171269,49.7700004577637
4.3327519,46.8899993896484
4.3483769,42.689998626709
4.3640019,37.6699981689453
4.3796269,32.0800018310547
4.3952519,26.0799999237061
4.4108769,19.7999992370605
4.4265019,13.3599996566772
4.4421269,7.0
4.4577519,1.12000000476837
4.4733769,-3.84999990463257
4.4890019,-7.76999998092651
4.5046269,-10.8599996566772
4.5202519,-13.4899997711182
4.5358769,-15.960000038147
4.5515019,-18.4599990844727
4.5671269,-21.0
4.5827519,-23.4500007629395
4.5983769,-25.6000003814697
4.6140019,-27.3299999237061
4.6296269,-28.5799999237061
4.6452519,-29.3500003814697
4.6608769,-29.8299999237061
4.6765019,-30.1900005340576
4.6921269,-30.4400005340576
4.7077519,-30.4300003051758
4.7233769,-30.0499992370605
4.7390019,-29.3199996948242
4.7546269,-28.3700008392334
4.7702519,-27.2600002288818
4.7858769,-25.6900005340576
4.8015019,-22.8099994659424
4.8171269,-17.5799999237061
4.8327519,-9.46000003814697
4.8483769,1.19000005722046
4.8640019,13.289999961853
4.8796269,25.4099998474121
4.8952519,36.1699981689453
4.9108769,44.5400009155273
4.9265019,50.0
4.9421269,52.4599990844727
4.9577519,52.1699981689453
4.9733769,49.689998626709
4.9890019,45.7000007629395
5.0046269,40.7400016784668
5.0202519,35.1599998474121
5.0358769,29.2000007629395
5.0515019,23.0200004577637
5.0671269,16.7999992370605
5.0827519,10.710000038147
5.0983769,4.96000003814697
5.1140019,-0.200000002980232
5.1296269,-4.59000015258789
5.1452519,-8.14999961853027
5.1608769,-10.960000038147
5.1765019,-13.1999998092651
5.1921269,-15.0600004196167
5.2077519,-16.7600002288818
5.2233769,-18.5799999237061
5.2390019,-20.6399993896484
5.2546269,-22.8700008392334
5.2702519,-24.9899997711182
5.2858769,-26.7299995422363
5.3015019,-27.9699993133545
5.3171269,-28.7099990844727
5.3327519,-28.9899997711182
5.3483769,-28.9400005340576
5.3640019,-28.6599998474121
5.3796269,-28.1800003051758
5.3952519,-27.5
5.4108769,-26.5799999237061
5.4265019,-25.4599990844727
5.4421269,-24.1299991607666
5.4577519,-22.2900009155273
5.4733769,-19.2900009155273
5.4890019,-14.3500003814697
5.5046269,-6.98999977111816
5.5202519,2.72000002861023
5.5358769,14.3100004196167
5.5515019,26.6800003051758
5.5671269,38.2200012207031
5.5827519,47.2799987792969
5.5983769,52.8800010681152
5.6140019,54.9500007629395
5.6296269,54.2400016784668
5.6452519,51.7599983215332
5.6608769,48.3600006103516
5.6765019,44.4099998474121
5.6921269,39.9900016784668
5.7077519,34.9900016784668
5.7233769,29.3700008392334
5.7390019,23.2299995422363
5.7546269,16.8999996185303
5.7702519,10.7700004577637
5.7858769,5.17000007629395
5.8015019,0.300000011920929
5.8171269,-3.79999995231628
5.8327519,-7.21999979019165
5.8483769,-10.1499996185303
5.8640019,-12.8100004196167
5.8796269,-15.3500003814697
5.8952519,-17.7600002288818
5.9108769,-19.9599990844727
5.9265019,-21.9400005340576
5.9421269,-23.8199996948242
5.9577519,-25.7000007629395
5.9733769,-27.4200000762939
5.9890019,-28.7299995422363
6.0046269,-29.4300003051758
6.0202519,-29.6200008392334
6.0358769,-29.5200004577637
6.0515019,-29.3199996948242
6.0671269,-29.0400009155273
6.0827519,-28.5799999237061
6.0983769,-27.8099994659424
6.1140019,-26.6000003814697
6.1296269,-24.7800006866455
6.1452519,-22.0699996948242
6.1608769,-17.9099998474121
6.1765019,-11.6000003814697
6.1921269,-2.69000005722046
6.2077519,8.39999961853027
6.2233769,20.3299999237061
6.2390019,31.2700004577637
6.2546269,39.6800003051758
6.2702519,44.7200012207031
6.2858769,46.4000015258789
6.3015019,45.4000015258789
6.3171269,42.7000007629395
6.3327519,39.0699996948242
6.3483769,34.9199981689453
6.3640019,30.3500003814697
6.3796269,25.3299999237061
6.3952519,19.9300003051758
6.4108769,14.4099998474121
6.4265019,9.1899995803833
6.4421269,4.59000015258789
6.4577519,0.730000019073486
6.4733769,-2.46000003814697
6.4890019,-5.15000009536743
6.5046269,-7.46000003814697
6.5202519,-9.5600004196167
6.5358769,-11.6899995803833
6.5515019,-14.0299997329712
6.5671269,-16.5300006866455
6.5827519,-18.9699993133545
6.5983769,-21.0699996948242
6.6140019,-22.7399997711182
6.6296269,-23.9799995422363
6.6452519,-24.7700004577637
6.6608769,-25.1700000762939
6.6765019,-25.3700008392334
6.6921269,-25.5900001525879
6.7077519,-25.8299999237061
6.7233769,-25.8700008392334
6.7390019,-25.4200000762939
6.7546269,-24.3700008392334
6.7702519,-22.7099990844727
6.7858769,-20.1299991607666
6.8015019,-15.9099998474121
6.8171269,-9.35999965667725
6.8327519,-0.449999988079071
6.8483769,10.1199998855591
6.8640019,21.1000003814697
6.8796269,31.0499992370605
6.8952519,38.7799987792969
6.9108769,43.6599998474121
6.9265019,45.75
6.9421269,45.5499992370605
6.9577519,43.75
6.9733769,40.8400001525879
6.9890019,37.0400009155273
7.0046269,32.3499984741211
7.0202519,26.8400001525879
7.0358769,20.7700004577637
7.0515019,14.539999961853
7.0671269,8.5
7.0827519,3.07999992370605
7.0983769,-1.39999997615814
7.1140019,-4.8899998664856
7.1296269,-7.6399998664856
7.1452519,-10.0600004196167
7.1608769,-12.4300003051758
7.1765019,-14.8400001525879
7.1921269,-17.2800006866455
7.2077519,-19.7000007629395
7.2233769,-22.0200004577637
7.2390019,-24.1100006103516
7.2546269,-25.9099998474121
7.2702519,-27.4099998474121
7.2858769,-28.6599998474121
7.3015019,-29.6900005340576
7.3171269,-30.4200000762939
7.3327519,-30.7700004577637
7.3483769,-30.6499996185303
7.3640019,-30.0100002288818
7.3796269,-28.8500003814697
7.3952519,-27.0799999237061
7.4108769,-24.2299995422363
7.4265019,-19.3899993896484
7.4421269,-11.6499996185303
7.4577519,-0.939999997615814
7.4733769,11.6899995803833
7.4890019,24.4799995422363
7.5046269,35.6199989318848
7.5202519,43.7900009155273
7.5358769,48.3899993896484
7.5515019,49.6699981689453
7.5671269,48.5400009155273
7.5827519,46.0299987792969
7.5983769,42.7400016784668
7.6140019,38.7000007629395
7.6296269,33.7099990844727
7.6452519,27.6599998474121
7.6608769,20.7000007629395
7.6765019,13.2200002670288
7.6921269,5.76000022888184
7.7077519,-1.08000004291534
7.7233769,-6.80999994277954
7.7390019,-11.2200002670288
7.7546269,-14.4799995422363
7.7702519,-17.0100002288818
7.7858769,-19.2700004577637
7.8015019,-21.6100006103516
7.8171269,-24.1399993896484
7.8327519,-26.7399997711182
7.8483769,-29.1800003051758
7.8640019,-31.2800006866455
7.8796269,-32.9599990844727
7.8952519,-34.2099990844727
7.9108769,-35.060001373291
7.9265019,-35.5999984741211
7.9421269,-35.9300003051758
7.9577519,-36.1300010681152
7.9733769,-36.1100006103516
7.9890019,-35.5099983215332
8.0046269,-33.7099990844727
8.0202519,-29.8999996185303
8.0358769,-23.3799991607666
8.0515019,-13.6999998092651
8.0671269,-1.13999998569489
8.0827519,12.9300003051758
8.0983769,26.5599994659424
8.1140019,37.8600006103516
8.1296269,45.6800003051758
8.1452519,49.8300018310547
8.1608769,50.8400001525879
8.1765019,49.6300010681152
8.1921269,47.060001373291
8.2077519,43.6100006103516
8.2233769,39.3400001525879
8.2390019,34.0800018310547
8.2546269,27.75
8.2702519,20.6200008392334
8.2858769,13.2200002670288
8.3015019,6.09999990463257
8.3171269,-0.319999992847443
8.3327519,-5.82000017166138
8.3483769,-10.2700004577637
8.3640019,-13.75
8.3796269,-16.5
8.3952519,-18.8299999237061
8.4108769,-21.0300006866455
8.4265019,-23.2700004577637
8.4421269,-25.6000003814697
8.4577519,-27.9400005340576
8.4733769,-30.1200008392334
8.4890019,-31.9699993133545
8.5046269,-33.3699989318848
8.5202519,-34.2400016784668
8.5358769,-34.6399993896484
8.5515019,-34.75
8.5671269,-34.7400016784668
8.5827519,-34.6300010681152
8.5983769,-34.1599998474121
8.6140019,-32.7099990844727
8.6296269,-29.4500007629395
8.6452519,-23.5499992370605
8.6608769,-14.6599998474121
8.6765019,-3.27999997138977
8.6921269,9.14000034332275
8.7077519,20.7700004577637
8.7233769,30.2600002288818
8.7390019,37.3300018310547
8.7546269,42.4000015258789
8.7702519,45.939998626709
8.7858769,48.1300010681152
8.8015019,48.9500007629395
8.8171269,48.3800010681152
8.8327519,46.5
8.8483769,43.2799987792969
8.8640019,38.7200012207031
8.8796269,33.0400009155273
8.8952519,26.6399993896484
8.9108769,19.9400005340576
8.9265019,13.289999961853
8.9421269,6.98000001907349
8.9577519,1.27999997138977
8.9733769,-3.70000004768372
8.9890019,-8.0
9.0046269,-11.6899995803833
9.0202519,-14.8500003814697
9.0358769,-17.6000003814697
9.0515019,-20.1399993896484
9.0671269,-22.6399993896484
9.0827519,-25.0400009155273
9.0983769,-27.1499996185303
9.1140019,-28.8199996948242
9.1296269,-30.0300006866455
9.1452519,-30.8099994659424
9.1608769,-31.2399997711182
9.1765019,-31.2399997711182
9.1921269,-30.6299991607666
9.2077519,-29.3600006103516
9.2233769,-27.7999992370605
9.2390019,-26.3799991607666
9.2546269,-25.2199993133545
9.2702519,-24.0499992370605
9.2858769,-22.2299995422363
9.3015019,-18.9099998474121
9.3171269,-13.3000001907349
9.3327519,-4.96999979019165
9.3483769,5.73999977111816
9.3640019,17.6399993896484
9.3796269,28.9500007629395
9.3952519,38.0099983215332
9.4108769,43.8600006103516
9.4265019,46.5299987792969
9.4421269,46.8800010681152
9.4577519,46.0699996948242
9.4733769,44.9000015258789
9.4890019,43.5699996948242
9.5046269,41.7599983215332
9.5202519,39.0400009155273
9.5358769,35.1199989318848
9.5515019,29.9899997711182
9.5671269,23.9500007629395
9.5827519,17.5
9.5983769,11.1999998092651
9.6140019,5.53999996185303
9.6296269,0.75
9.6452519,-3.13000011444092
9.6608769,-6.26999998092651
9.6765019,-8.94999980926514
9.6921269,-11.4300003051758
9.7077519,-13.9200000762939
9.7233769,-16.5
9.7390019,-19.0900001525879
9.7546269,-21.4500007629395
9.7702519,-23.3700008392334
9.7858769,-24.8400001525879
9.8015019,-26.0100002288818
9.8171269,-26.9599990844727
9.8327519,-27.6299991607666
9.8483769,-27.8999996185303
9.8640019,-27.7099990844727
9.8796269,-27.0699996948242
9.8952519,-26.0499992370605
9.9108769,-24.7800006866455
9.9265019,-23.4599990844727
9.9421269,-22.1200008392334
9.9577519,-20.4699993133545
9.9733769,-17.9899997711182
9.9890019,-14.0799999237061
10.0046269,-8.28999996185303
10.0202519,-0.699999988079071
10.0358769,8.02000045776367
10.0515019,16.8099994659424
10.0671269,24.6800003051758
10.0827519,31.0499992370605
10.0983769,35.6699981689453
10.1140019,38.5099983215332
10.1296269,39.6599998474121
10.1452519,39.3300018310547
10.1608769,37.8199996948242
10.1765019,35.4300003051758
10.1921269,32.3899993896484
10.2077519,28.9400005340576
10.2233769,25.3099994659424
10.2390019,21.7099990844727
10.2546269,18.3400001525879
10.2702519,15.3500003814697
10.2858769,12.7399997711182
10.3015019,10.3699998855591
10.3171269,8.03999996185303
10.3327519,5.44000005722046
10.3483769,2.34999990463257
10.3640019,-1.12000000476837
10.3796269,-4.55000019073486
10.3952519,-7.5
10.4108769,-9.85000038146973
10.4265019,-11.7799997329712
10.4421269,-13.6099996566772
10.4577519,-15.5100002288818
10.4733769,-17.5799999237061
10.4890019,-19.7399997711182
10.5046269,-21.6800003051758
10.5202519,-22.9899997711182
10.5358769,-23.4500007629395
10.5515019,-23.1100006103516
10.5671269,-22.2999992370605
10.5827519,-21.4400005340576
10.5983769,-20.8199996948242
10.6140019,-20.4400005340576
10.6296269,-20.1000003814697
10.6452519,-19.5300006866455
10.6608769,-18.4200000762939
10.6765019,-16.3600006103516
10.6921269,-12.9099998474121
10.7077519,-7.86999988555908
10.7233769,-1.46000003814697
10.7390019,5.59000015258789
10.7546269,12.3000001907349
10.7702519,17.7600002288818
10.7858769,21.4899997711182
10.8015019,23.4799995422363
10.8171269,24.0300006866455
10.8327519,23.5799999237061
10.8483769,22.4599990844727
10.8640019,20.8999996185303
10.8796269,19.0300006866455
10.8952519,16.9699993133545
10.9108769,14.8199996948242
10.9265019,12.6499996185303
10.9421269,10.4799995422363
10.9577519,8.34000015258789
10.9733769,6.28999996185303
10.9890019,4.3600001335144
11.0046269,2.54999995231628
11.0202519,0.839999973773956
11.0358769,-0.730000019073486
11.0515019,-2.13000011444092
11.0671269,-3.3199999332428
11.0827519,-4.40999984741211
11.0983769,-5.55999994277954
11.1140019,-6.80000019073486
11.1296269,-8.02000045776367
11.1452519,-8.97000026702881
11.1608769,-9.46000003814697
11.1765019,-9.44999980926514
11.1921269,-9.07999992370605
11.2077519,-8.51000022888184
11.2233769,-7.80999994277954
11.2390019,-7.01000022888184
11.2546269,-6.17999982833862
11.2702519,-5.42000007629395
11.2858769,-4.78000020980835
11.3015019,-4.26000022888184
11.3171269,-3.88000011444092
11.3327519,-3.58999991416931
11.3483769,-3.14000010490417
11.3640019,-1.92999994754791
11.3796269,0.660000026226044
11.3952519,4.84999990463257
11.4108769,10.2600002288818
11.4265019,16.0900001525879
11.4421269,21.4400005340576
11.4577519,25.6499996185303
11.4733769,28.5499992370605
11.4890019,30.3400001525879
