Time(s),Value(℃)
608.0103744,67.2200012207031
608.0259994,67.2099990844727
608.0416244,67.1999969482422
608.0572494,67.1900024414063
608.0728744,67.1800003051758
608.0884994,67.1600036621094
608.1041244,67.1500015258789
608.1197494,67.129997253418
608.1353744,67.120002746582
608.1509994,67.1100006103516
608.1666244,67.0999984741211
608.1822494,67.0800018310547
608.1978744,67.0699996948242
608.2134994,67.0599975585938
608.2291244,67.0500030517578
608.2447494,67.0400009155273
608.2603744,67.0199966430664
608.2759994,67.0100021362305
608.2916244,67.0
608.3072494,66.9800033569336
608.3228744,66.9700012207031
608.3384994,66.9599990844727
608.3541244,66.9400024414063
608.3697494,66.9199981689453
608.3853744,66.9000015258789
608.4009994,66.879997253418
608.4166244,66.8499984741211
608.4322494,66.8199996948242
608.4478744,66.7900009155273
608.4634994,66.7600021362305
608.4791244,66.7300033569336
608.4947494,66.6900024414063
608.5103744,66.6600036621094
608.5259994,66.620002746582
608.5416244,66.5899963378906
608.5572494,66.5500030517578
608.5728744,66.5100021362305
608.5884994,66.4700012207031
608.6041244,66.4400024414063
608.6197494,66.4000015258789
608.6353744,66.3600006103516
608.6509994,66.3199996948242
608.6666244,66.2900009155273
608.6822494,66.25
608.6978744,66.2200012207031
608.7134994,66.1800003051758
608.7291244,66.1500015258789
608.7447494,66.120002746582
608.7603744,66.0899963378906
608.7759994,66.0599975585938
608.7916244,66.0299987792969
608.8072494,66.0
608.8228744,65.9700012207031
608.8384994,65.9400024414063
608.8541244,65.9100036621094
608.8697494,65.879997253418
608.8853744,65.8499984741211
608.9009994,65.8199996948242
608.9166244,65.8000030517578
608.9322494,65.7699966430664
608.9478744,65.75
608.9634994,65.7300033569336
608.9791244,65.7200012207031
608.9947494,65.7099990844727
609.0103744,65.6999969482422
609.0259994,65.6900024414063
609.0416244,65.6800003051758
609.0572494,65.6699981689453
609.0728744,65.6699981689453
609.0884994,65.6600036621094
609.1041244,65.6500015258789
609.1197494,65.6500015258789
609.1353744,65.6399993896484
609.1509994,65.6399993896484
609.1666244,65.629997253418
609.1822494,65.629997253418
609.1978744,65.629997253418
609.2134994,65.629997253418
609.2291244,65.620002746582
609.2447494,65.620002746582
609.2603744,65.6100006103516
609.2759994,65.6100006103516
609.2916244,65.5999984741211
609.3072494,65.5999984741211
609.3228744,65.5899963378906
609.3384994,65.5899963378906
609.3541244,65.5899963378906
609.3697494,65.5899963378906
609.3853744,65.5899963378906
609.4009994,65.5899963378906
609.4166244,65.5999984741211
609.4322494,65.6100006103516
609.4478744,65.6100006103516
609.4634994,65.620002746582
609.4791244,65.629997253418
609.4947494,65.6399993896484
609.5103744,65.6399993896484
609.5259994,65.6500015258789
609.5416244,65.6500015258789
609.5572494,65.6600036621094
609.5728744,65.6600036621094
609.5884994,65.6600036621094
609.6041244,65.6600036621094
609.6197494,65.6500015258789
609.6353744,65.6399993896484
609.6509994,65.629997253418
609.6666244,65.620002746582
609.6822494,65.6100006103516
609.6978744,65.5999984741211
609.7134994,65.5800018310547
609.7291244,65.5699996948242
609.7447494,65.5500030517578
609.7603744,65.5400009155273
609.7759994,65.5299987792969
609.7916244,65.5299987792969
609.8072494,65.5199966430664
609.8228744,65.5199966430664
609.8384994,65.5199966430664
609.8541244,65.5199966430664
609.8697494,65.5199966430664
609.8853744,65.5199966430664
609.9009994,65.5199966430664
609.9166244,65.5299987792969
609.9322494,65.5299987792969
609.9478744,65.5299987792969
609.9634994,65.5299987792969
609.9791244,65.5299987792969
609.9947494,65.5299987792969
610.0103744,65.5199966430664
610.0259994,65.5100021362305
610.0416244,65.5100021362305
610.0572494,65.5
610.0728744,65.4899978637695
610.0884994,65.4800033569336
610.1041244,65.4700012207031
610.1197494,65.4599990844727
610.1353744,65.4499969482422
610.1509994,65.4499969482422
610.1666244,65.4400024414063
610.1822494,65.4400024414063
610.1978744,65.4300003051758
610.2134994,65.4300003051758
610.2291244,65.4300003051758
610.2447494,65.4199981689453
610.2603744,65.4199981689453
610.2759994,65.4199981689453
610.2916244,65.4199981689453
610.3072494,65.4199981689453
610.3228744,65.4199981689453
610.3384994,65.4199981689453
610.3541244,65.4100036621094
610.3697494,65.4100036621094
610.3853744,65.4000015258789
610.4009994,65.3899993896484
610.4166244,65.3899993896484
610.4322494,65.379997253418
610.4478744,65.379997253418
610.4634994,65.370002746582
610.4791244,65.370002746582
610.4947494,65.370002746582
610.5103744,65.370002746582
610.5259994,65.379997253418
610.5416244,65.379997253418
610.5572494,65.3899993896484
610.5728744,65.4000015258789
610.5884994,65.4100036621094
610.6041244,65.4199981689453
610.6197494,65.4300003051758
610.6353744,65.4400024414063
610.6509994,65.4499969482422
610.6666244,65.4499969482422
610.6822494,65.4599990844727
610.6978744,65.4599990844727
610.7134994,65.4599990844727
610.7291244,65.4700012207031
610.7447494,65.4700012207031
610.7603744,65.4700012207031
610.7759994,65.4700012207031
610.7916244,65.4700012207031
610.8072494,65.4599990844727
610.8228744,65.4599990844727
610.8384994,65.4499969482422
610.8541244,65.4400024414063
610.8697494,65.4400024414063
610.8853744,65.4300003051758
610.9009994,65.4199981689453
610.9166244,65.4199981689453
610.9322494,65.4100036621094
610.9478744,65.4100036621094
610.9634994,65.4000015258789
610.9791244,65.4000015258789
610.9947494,65.4000015258789
611.0103744,65.4000015258789
611.0259994,65.4000015258789
611.0416244,65.3899993896484
611.0572494,65.3899993896484
611.0728744,65.379997253418
611.0884994,65.379997253418
611.1041244,65.370002746582
611.1197494,65.3600006103516
611.1353744,65.3399963378906
611.1509994,65.3300018310547
611.1666244,65.3199996948242
611.1822494,65.3000030517578
611.1978744,65.2900009155273
611.2134994,65.2699966430664
611.2291244,65.2600021362305
611.2447494,65.25
611.2603744,65.2399978637695
611.2759994,65.2300033569336
611.2916244,65.2200012207031
611.3072494,65.2099990844727
611.3228744,65.1999969482422
611.3384994,65.1900024414063
611.3541244,65.1800003051758
611.3697494,65.1699981689453
611.3853744,65.1600036621094
611.4009994,65.1500015258789
611.4166244,65.1399993896484
611.4322494,65.120002746582
611.4478744,65.1100006103516
611.4634994,65.0899963378906
611.4791244,65.0699996948242
611.4947494,65.0599975585938
611.5103744,65.0400009155273
611.5259994,65.0299987792969
611.5416244,65.0100021362305
611.5572494,65.0
611.5728744,64.9899978637695
611.5884994,64.9800033569336
611.6041244,64.9800033569336
611.6197494,64.9700012207031
611.6353744,64.9599990844727
611.6509994,64.9499969482422
611.6666244,64.9400024414063
611.6822494,64.9300003051758
611.6978744,64.9199981689453
611.7134994,64.9100036621094
611.7291244,64.9000015258789
611.7447494,64.9000015258789
611.7603744,64.8899993896484
611.7759994,64.879997253418
611.7916244,64.870002746582
611.8072494,64.8600006103516
611.8228744,64.8499984741211
611.8384994,64.8499984741211
611.8541244,64.8399963378906
611.8697494,64.8300018310547
611.8853744,64.8300018310547
611.9009994,64.8300018310547
611.9166244,64.8300018310547
611.9322494,64.8300018310547
611.9478744,64.8300018310547
611.9634994,64.8300018310547
611.9791244,64.8300018310547
611.9947494,64.8300018310547
612.0103744,64.8399963378906
612.0259994,64.8399963378906
612.0416244,64.8499984741211
612.0572494,64.8600006103516
612.0728744,64.870002746582
612.0884994,64.879997253418
612.1041244,64.8899993896484
612.1197494,64.9000015258789
612.1353744,64.9100036621094
612.1509994,64.9199981689453
612.1666244,64.9300003051758
612.1822494,64.9499969482422
612.1978744,64.9599990844727
612.2134994,64.9700012207031
612.2291244,64.9800033569336
612.2447494,64.9899978637695
612.2603744,65.0
612.2759994,65.0100021362305
612.2916244,65.0199966430664
612.3072494,65.0299987792969
612.3228744,65.0400009155273
612.3384994,65.0500030517578
612.3541244,65.0599975585938
612.3697494,65.0699996948242
612.3853744,65.0800018310547
612.4009994,65.0899963378906
612.4166244,65.0999984741211
612.4322494,65.1100006103516
612.4478744,65.120002746582
612.4634994,65.120002746582
612.4791244,65.129997253418
612.4947494,65.129997253418
612.5103744,65.1399993896484
612.5259994,65.1399993896484
612.5416244,65.1500015258789
612.5572494,65.1500015258789
612.5728744,65.1500015258789
612.5884994,65.1600036621094
612.6041244,65.1600036621094
612.6197494,65.1699981689453
612.6353744,65.1699981689453
612.6509994,65.1800003051758
612.6666244,65.1800003051758
612.6822494,65.1800003051758
612.6978744,65.1900024414063
612.7134994,65.1999969482422
612.7291244,65.1999969482422
612.7447494,65.2099990844727
612.7603744,65.2200012207031
612.7759994,65.2300033569336
612.7916244,65.2300033569336
612.8072494,65.2399978637695
612.8228744,65.2399978637695
612.8384994,65.2399978637695
612.8541244,65.25
612.8697494,65.25
612.8853744,65.25
612.9009994,65.2399978637695
612.9166244,65.2399978637695
612.9322494,65.2399978637695
612.9478744,65.2399978637695
612.9634994,65.2300033569336
612.9791244,65.2300033569336
612.9947494,65.2200012207031
613.0103744,65.2200012207031
613.0259994,65.2099990844727
613.0416244,65.1999969482422
613.0572494,65.1999969482422
613.0728744,65.1900024414063
613.0884994,65.1800003051758
613.1041244,65.1699981689453
613.1197494,65.1600036621094
613.1353744,65.1500015258789
613.1509994,65.1399993896484
613.1666244,65.129997253418
613.1822494,65.1100006103516
613.1978744,65.0999984741211
613.2134994,65.0899963378906
613.2291244,65.0800018310547
613.2447494,65.0599975585938
613.2603744,65.0500030517578
613.2759994,65.0400009155273
613.2916244,65.0299987792969
613.3072494,65.0199966430664
613.3228744,65.0199966430664
613.3384994,65.0100021362305
613.3541244,65.0100021362305
613.3697494,65.0
613.3853744,65.0
613.4009994,65.0
613.4166244,65.0
613.4322494,65.0
613.4478744,65.0
613.4634994,65.0
613.4791244,65.0
613.4947494,65.0100021362305
613.5103744,65.0100021362305
613.5259994,65.0100021362305
613.5416244,65.0100021362305
613.5572494,65.0199966430664
613.5728744,65.0199966430664
613.5884994,65.0199966430664
613.6041244,65.0199966430664
613.6197494,65.0199966430664
613.6353744,65.0199966430664
613.6509994,65.0199966430664
613.6666244,65.0199966430664
613.6822494,65.0100021362305
613.6978744,65.0100021362305
613.7134994,65.0100021362305
613.7291244,65.0100021362305
613.7447494,65.0100021362305
613.7603744,65.0
613.7759994,65.0100021362305
613.7916244,65.0100021362305
613.8072494,65.0100021362305
613.8228744,65.0100021362305
613.8384994,65.0100021362305
613.8541244,65.0100021362305
613.8697494,65.0100021362305
613.8853744,65.0100021362305
613.9009994,65.0100021362305
613.9166244,65.0100021362305
613.9322494,65.0100021362305
613.9478744,65.0100021362305
613.9634994,65.0100021362305
613.9791244,65.0100021362305
613.9947494,65.0100021362305
614.0103744,65.0199966430664
614.0259994,65.0199966430664
614.0416244,65.0299987792969
614.0572494,65.0299987792969
614.0728744,65.0400009155273
614.0884994,65.0500030517578
614.1041244,65.0599975585938
614.1197494,65.0699996948242
614.1353744,65.0800018310547
614.1509994,65.0999984741211
614.1666244,65.1100006103516
614.1822494,65.120002746582
614.1978744,65.1399993896484
614.2134994,65.1500015258789
614.2291244,65.1600036621094
614.2447494,65.1699981689453
614.2603744,65.1800003051758
614.2759994,65.1900024414063
614.2916244,65.1999969482422
614.3072494,65.2099990844727
614.3228744,65.2099990844727
614.3384994,65.2200012207031
614.3541244,65.2200012207031
614.3697494,65.2300033569336
614.3853744,65.2300033569336
614.4009994,65.2300033569336
614.4166244,65.2300033569336
614.4322494,65.2300033569336
614.4478744,65.2300033569336
614.4634994,65.2300033569336
614.4791244,65.2300033569336
614.4947494,65.2300033569336
614.5103744,65.2200012207031
614.5259994,65.2200012207031
614.5416244,65.2200012207031
614.5572494,65.2200012207031
614.5728744,65.2200012207031
614.5884994,65.2200012207031
614.6041244,65.2200012207031
614.6197494,65.2200012207031
614.6353744,65.2200012207031
614.6509994,65.2200012207031
614.6666244,65.2200012207031
614.6822494,65.2200012207031
614.6978744,65.2200012207031
614.7134994,65.2200012207031
614.7291244,65.2200012207031
614.7447494,65.2200012207031
614.7603744,65.2099990844727
614.7759994,65.2099990844727
614.7916244,65.2099990844727
614.8072494,65.2099990844727
614.8228744,65.2099990844727
614.8384994,65.2099990844727
614.8541244,65.2200012207031
614.8697494,65.2200012207031
614.8853744,65.2300033569336
614.9009994,65.2300033569336
614.9166244,65.2399978637695
614.9322494,65.25
614.9478744,65.2600021362305
614.9634994,65.2600021362305
614.9791244,65.2699966430664
614.9947494,65.2799987792969
615.0103744,65.2900009155273
615.0259994,65.2900009155273
615.0416244,65.3000030517578
615.0572494,65.3000030517578
615.0728744,65.3000030517578
615.0884994,65.3000030517578
615.1041244,65.3000030517578
615.1197494,65.3000030517578
615.1353744,65.3000030517578
615.1509994,65.3000030517578
615.1666244,65.3000030517578
615.1822494,65.3000030517578
615.1978744,65.2900009155273
615.2134994,65.2900009155273
615.2291244,65.2900009155273
615.2447494,65.2900009155273
615.2603744,65.2900009155273
615.2759994,65.2900009155273
615.2916244,65.2900009155273
615.3072494,65.2900009155273
615.3228744,65.2900009155273
615.3384994,65.2900009155273
615.3541244,65.2900009155273
615.3697494,65.2900009155273
615.3853744,65.2900009155273
615.4009994,65.2900009155273
615.4166244,65.3000030517578
615.4322494,65.3000030517578
615.4478744,65.3000030517578
615.4634994,65.3099975585938
615.4791244,65.3099975585938
615.4947494,65.3199996948242
615.5103744,65.3199996948242
615.5259994,65.3300018310547
615.5416244,65.3300018310547
615.5572494,65.3399963378906
615.5728744,65.3499984741211
615.5884994,65.3600006103516
615.6041244,65.370002746582
615.6197494,65.379997253418
615.6353744,65.3899993896484
615.6509994,65.4000015258789
615.6666244,65.4100036621094
615.6822494,65.4199981689453
615.6978744,65.4300003051758
615.7134994,65.4400024414063
615.7291244,65.4400024414063
615.7447494,65.4400024414063
615.7603744,65.4499969482422
615.7759994,65.4400024414063
615.7916244,65.4400024414063
615.8072494,65.4400024414063
615.8228744,65.4400024414063
615.8384994,65.4300003051758
615.8541244,65.4199981689453
615.8697494,65.4199981689453
615.8853744,65.4100036621094
615.9009994,65.4000015258789
615.9166244,65.3899993896484
615.9322494,65.379997253418
615.9478744,65.370002746582
615.9634994,65.3600006103516
615.9791244,65.3499984741211
615.9947494,65.3499984741211
616.0103744,65.3399963378906
616.0259994,65.3300018310547
616.0416244,65.3300018310547
616.0572494,65.3199996948242
616.0728744,65.3199996948242
616.0884994,65.3099975585938
616.1041244,65.3099975585938
616.1197494,65.3000030517578
616.1353744,65.3000030517578
616.1509994,65.2900009155273
616.1666244,65.2900009155273
616.1822494,65.2799987792969
616.1978744,65.2699966430664
616.2134994,65.2699966430664
616.2291244,65.2600021362305
616.2447494,65.25
616.2603744,65.2399978637695
616.2759994,65.2399978637695
616.2916244,65.2300033569336
616.3072494,65.2200012207031
616.3228744,65.2200012207031
616.3384994,65.2099990844727
616.3541244,65.1999969482422
616.3697494,65.1900024414063
616.3853744,65.1900024414063
616.4009994,65.1800003051758
616.4166244,65.1699981689453
616.4322494,65.1699981689453
616.4478744,65.1600036621094
616.4634994,65.1500015258789
616.4791244,65.1500015258789
616.4947494,65.1500015258789
616.5103744,65.1399993896484
616.5259994,65.1399993896484
616.5416244,65.129997253418
616.5572494,65.129997253418
616.5728744,65.120002746582
616.5884994,65.120002746582
616.6041244,65.120002746582
616.6197494,65.120002746582
616.6353744,65.120002746582
616.6509994,65.129997253418
616.6666244,65.129997253418
616.6822494,65.1399993896484
616.6978744,65.1500015258789
616.7134994,65.1500015258789
616.7291244,65.1600036621094
616.7447494,65.1699981689453
616.7603744,65.1800003051758
616.7759994,65.1900024414063
616.7916244,65.1900024414063
616.8072494,65.1999969482422
616.8228744,65.2099990844727
616.8384994,65.2200012207031
616.8541244,65.2200012207031
616.8697494,65.2300033569336
616.8853744,65.2300033569336
616.9009994,65.2399978637695
616.9166244,65.2399978637695
616.9322494,65.25
616.9478744,65.2600021362305
616.9634994,65.2600021362305
616.9791244,65.2699966430664
616.9947494,65.2799987792969
617.0103744,65.2900009155273
617.0259994,65.3000030517578
617.0416244,65.3199996948242
617.0572494,65.3300018310547
617.0728744,65.3399963378906
617.0884994,65.3600006103516
617.1041244,65.370002746582
617.1197494,65.3899993896484
617.1353744,65.4100036621094
617.1509994,65.4199981689453
617.1666244,65.4400024414063
617.1822494,65.4599990844727
617.1978744,65.4800033569336
617.2134994,65.4899978637695
617.2291244,65.5100021362305
617.2447494,65.5199966430664
617.2603744,65.5299987792969
617.2759994,65.5400009155273
617.2916244,65.5500030517578
617.3072494,65.5500030517578
617.3228744,65.5599975585938
617.3384994,65.5599975585938
617.3541244,65.5599975585938
617.3697494,65.5599975585938
617.3853744,65.5599975585938
617.4009994,65.5599975585938
617.4166244,65.5599975585938
617.4322494,65.5599975585938
617.4478744,65.5500030517578
617.4634994,65.5500030517578
617.4791244,65.5500030517578
617.4947494,65.5500030517578
617.5103744,65.5400009155273
617.5259994,65.5400009155273
617.5416244,65.5400009155273
617.5572494,65.5299987792969
617.5728744,65.5299987792969
617.5884994,65.5400009155273
617.6041244,65.5400009155273
617.6197494,65.5500030517578
617.6353744,65.5599975585938
617.6509994,65.5699996948242
617.6666244,65.5899963378906
617.6822494,65.6100006103516
617.6978744,65.6399993896484
617.7134994,65.6699981689453
617.7291244,65.6999969482422
617.7447494,65.7300033569336
617.7603744,65.7600021362305
617.7759994,65.8000030517578
617.7916244,65.8300018310547
617.8072494,65.8600006103516
617.8228744,65.8899993896484
617.8384994,65.9199981689453
617.8541244,65.9499969482422
617.8697494,65.9800033569336
617.8853744,66.0
617.9009994,66.0199966430664
617.9166244,66.0400009155273
617.9322494,66.0599975585938
617.9478744,66.0800018310547
617.9634994,66.0999984741211
617.9791244,66.120002746582
617.9947494,66.1399993896484
618.0103744,66.1600036621094
618.0259994,66.1800003051758
618.0416244,66.1999969482422
618.0572494,66.2099990844727
618.0728744,66.2300033569336
618.0884994,66.25
618.1041244,66.2600021362305
618.1197494,66.2799987792969
618.1353744,66.2900009155273
618.1509994,66.3099975585938
618.1666244,66.3300018310547
618.1822494,66.3600006103516
618.1978744,66.379997253418
618.2134994,66.4000015258789
618.2291244,66.4300003051758
618.2447494,66.4499969482422
618.2603744,66.4800033569336
618.2759994,66.5
618.2916244,66.5299987792969
618.3072494,66.5500030517578
618.3228744,66.5699996948242
618.3384994,66.5899963378906
618.3541244,66.620002746582
618.3697494,66.6399993896484
618.3853744,66.6600036621094
618.4009994,66.6900024414063
618.4166244,66.7099990844727
618.4322494,66.7300033569336
618.4478744,66.7600021362305
618.4634994,66.7799987792969
618.4791244,66.8000030517578
618.4947494,66.8099975585938
618.5103744,66.8300018310547
618.5259994,66.8300018310547
618.5416244,66.8399963378906
618.5572494,66.8399963378906
618.5728744,66.8399963378906
618.5884994,66.8300018310547
618.6041244,66.8199996948242
618.6197494,66.8099975585938
618.6353744,66.7900009155273
618.6509994,66.7699966430664
618.6666244,66.75
618.6822494,66.7300033569336
618.6978744,66.7099990844727
618.7134994,66.6900024414063
618.7291244,66.6699981689453
618.7447494,66.6399993896484
618.7603744,66.629997253418
618.7759994,66.6100006103516
618.7916244,66.5899963378906
618.8072494,66.5800018310547
618.8228744,66.5599975585938
618.8384994,66.5500030517578
618.8541244,66.5400009155273
618.8697494,66.5199966430664
618.8853744,66.5100021362305
618.9009994,66.4899978637695
618.9166244,66.4800033569336
618.9322494,66.4700012207031
618.9478744,66.4599990844727
