Time(s),Value(%)
608.0103744,50.3400001525879
608.0259994,48.1100006103516
608.0416244,44.6500015258789
608.0572494,41.2099990844727
608.0728744,38.2999992370605
608.0884994,35.6599998474121
608.1041244,32.4500007629395
608.1197494,27.8600006103516
608.1353744,21.7000007629395
608.1509994,14.2299995422363
608.1666244,5.84999990463257
608.1822494,-2.83999991416931
608.1978744,-10.9799995422363
608.2134994,-17.5699996948242
608.2291244,-21.7600002288818
608.2447494,-23.2800006866455
608.2603744,-22.7999992370605
608.2759994,-21.7199993133545
608.2916244,-21.25
608.3072494,-21.7900009155273
608.3228744,-23.1900005340576
608.3384994,-25.1299991607666
608.3541244,-27.1299991607666
608.3697494,-28.6800003051758
608.3853744,-29.5400009155273
608.4009994,-29.8999996185303
608.4166244,-30.1900005340576
608.4322494,-30.5799999237061
608.4478744,-30.75
608.4634994,-30.0200004577637
608.4791244,-27.8700008392334
608.4947494,-24.2399997711182
608.5103744,-19.6700000762939
608.5259994,-15.1899995803833
608.5416244,-11.8400001525879
608.5572494,-9.86999988555908
608.5728744,-8.72000026702881
608.5884994,-7.76999998092651
608.6041244,-7.1100001335144
608.6197494,-7.32000017166138
608.6353744,-8.65999984741211
608.6509994,-10.5900001525879
608.6666244,-12.0100002288818
608.6822494,-11.8500003814697
608.6978744,-9.27999973297119
608.7134994,-3.5699999332428
608.7291244,5.53999996185303
608.7447494,17.4099998474121
608.7603744,30.3600006103516
608.7759994,42.2799987792969
608.7916244,51.2900009155273
608.8072494,56.3199996948242
608.8228744,57.2599983215332
608.8384994,54.9599990844727
608.8541244,50.7099990844727
608.8697494,45.7799987792969
608.8853744,41.0299987792969
608.9009994,36.5699996948242
608.9166244,31.7900009155273
608.9322494,26.0499992370605
608.9478744,19.0200004577637
608.9634994,10.7799997329712
608.9791244,1.91999995708466
608.9947494,-6.48000001907349
609.0103744,-13.289999961853
609.0259994,-17.7399997711182
609.0416244,-19.8999996185303
609.0572494,-20.6000003814697
609.0728744,-20.7600002288818
609.0884994,-20.8099994659424
609.1041244,-20.6599998474121
609.1197494,-20.0499992370605
609.1353744,-19.0599994659424
609.1509994,-18.1200008392334
609.1666244,-17.6700000762939
609.1822494,-17.7700004577637
609.1978744,-18.2000007629395
609.2134994,-18.7900009155273
609.2291244,-19.4099998474121
609.2447494,-19.7600002288818
609.2603744,-19.4799995422363
609.2759994,-18.4400005340576
609.2916244,-16.7199993133545
609.3072494,-14.3800001144409
609.3228744,-11.3599996566772
609.3384994,-7.78000020980835
609.3541244,-4.34999990463257
609.3697494,-2.09999990463257
609.3853744,-1.69000005722046
609.4009994,-2.86999988555908
609.4166244,-4.69000005722046
609.4322494,-6.15000009536743
609.4478744,-6.57000017166138
609.4634994,-5.57999992370605
609.4791244,-2.77999997138977
609.4947494,2.5699999332428
609.5103744,11.1300001144409
609.5259994,22.3899993896484
609.5416244,34.2900009155273
609.5572494,44.2000007629395
609.5728744,50.3199996948242
609.5884994,52.1800003051758
609.6041244,50.3899993896484
609.6197494,46.2900009155273
609.6353744,41.3300018310547
609.6509994,36.5
609.6666244,32.0099983215332
609.6822494,27.5900001525879
609.6978744,22.8600006103516
609.7134994,17.3899993896484
609.7291244,10.7299995422363
609.7447494,2.74000000953674
609.7603744,-5.8899998664856
609.7759994,-13.5299997329712
609.7916244,-18.2600002288818
609.8072494,-18.9699993133545
609.8228744,-16.1299991607666
609.8384994,-11.5600004196167
609.8541244,-7.42999982833862
609.8697494,-5.28000020980835
609.8853744,-5.59000015258789
609.9009994,-7.92000007629395
609.9166244,-11.4499998092651
609.9322494,-15.3500003814697
609.9478744,-18.9300003051758
609.9634994,-21.7099990844727
609.9791244,-23.4200000762939
609.9947494,-24.1499996185303
610.0103744,-24.1800003051758
610.0259994,-23.7800006866455
610.0416244,-22.9699993133545
610.0572494,-21.5300006866455
610.0728744,-19.25
610.0884994,-16.2700004577637
610.1041244,-13.4200000762939
610.1197494,-11.8500003814697
610.1353744,-12.1999998092651
610.1509994,-13.9099998474121
610.1666244,-15.5
610.1822494,-15.6899995803833
610.1978744,-14.1000003814697
610.2134994,-11.2799997329712
610.2291244,-8.22999954223633
610.2447494,-5.86999988555908
610.2603744,-4.48999977111816
610.2759994,-3.01999998092651
610.2916244,0.699999988079071
610.3072494,8.34000015258789
610.3228744,19.4400005340576
610.3384994,31.5599994659424
610.3541244,41.7999992370605
610.3697494,48.4500007629395
610.3853744,51.2700004577637
610.4009994,51.0499992370605
610.4166244,48.8600006103516
610.4322494,45.7200012207031
610.4478744,42.2700004577637
610.4634994,38.6199989318848
610.4791244,34.4900016784668
610.4947494,29.6700000762939
610.5103744,24.1100006103516
610.5259994,17.6399993896484
610.5416244,9.93000030517578
610.5572494,0.879999995231628
610.5728744,-8.88000011444092
610.5884994,-18.0200004577637
610.6041244,-25.0599994659424
610.6197494,-28.9799995422363
610.6353744,-29.6100006103516
610.6509994,-27.7800006866455
610.6666244,-24.8999996185303
610.6822494,-22.5799999237061
610.6978744,-22.1800003051758
610.7134994,-24.1900005340576
610.7291244,-27.8700008392334
610.7447494,-31.5599994659424
610.7603744,-33.560001373291
610.7759994,-33.0900001525879
610.7916244,-30.5300006866455
610.8072494,-27.0799999237061
610.8228744,-23.9099998474121
610.8384994,-21.7199993133545
610.8541244,-20.6299991607666
610.8697494,-20.3700008392334
610.8853744,-20.5400009155273
610.9009994,-20.8400001525879
610.9166244,-21.2299995422363
610.9322494,-21.5100002288818
610.9478744,-21.0499992370605
610.9634994,-19.1599998474121
610.9791244,-15.8800001144409
610.9947494,-11.9399995803833
611.0103744,-8.17000007629395
611.0259994,-5.11999988555908
611.0416244,-3.01999998092651
611.0572494,-1.42999994754791
611.0728744,1.1599999666214
611.0884994,6.78000020980835
611.1041244,16.3799991607666
611.1197494,28.6299991607666
611.1353744,40.5
611.1509994,48.8899993896484
611.1666244,52.2000007629395
611.1822494,50.810001373291
611.1978744,46.4500007629395
611.2134994,40.9700012207031
611.2291244,35.5099983215332
611.2447494,30.4400005340576
611.2603744,25.7999992370605
611.2759994,21.7700004577637
611.2916244,18.4300003051758
611.3072494,15.3599996566772
611.3228744,11.5900001525879
611.3384994,6.30000019073486
611.3541244,-0.430000007152557
611.3697494,-7.55999994277954
611.3853744,-13.6499996185303
611.4009994,-17.7800006866455
611.4166244,-19.8600006103516
611.4322494,-20.5599994659424
611.4478744,-20.9400005340576
611.4634994,-21.8099994659424
611.4791244,-23.3999996185303
611.4947494,-25.2999992370605
611.5103744,-26.7900009155273
611.5259994,-27.3099994659424
611.5416244,-26.8199996948242
611.5572494,-25.8500003814697
611.5728744,-24.9200000762939
611.5884994,-23.9899997711182
611.6041244,-22.6299991607666
611.6197494,-20.6299991607666
611.6353744,-18.4300003051758
611.6509994,-16.8099994659424
611.6666244,-16.1800003051758
611.6822494,-16.1900005340576
611.6978744,-16.1299991607666
611.7134994,-15.5799999237061
611.7291244,-14.6999998092651
611.7447494,-13.9099998474121
611.7603744,-13.3800001144409
611.7759994,-12.7600002288818
611.7916244,-11.5
611.8072494,-9.30000019073486
611.8228744,-6.21999979019165
611.8384994,-2.54999995231628
611.8541244,1.42999994754791
611.8697494,5.86999988555908
611.8853744,11.5600004196167
611.9009994,19.3199996948242
611.9166244,28.9899997711182
611.9322494,39.0900001525879
611.9478744,47.5200004577637
611.9634994,52.6100006103516
611.9791244,53.7999992370605
611.9947494,51.6199989318848
612.0103744,47.310001373291
612.0259994,42.2799987792969
612.0416244,37.5900001525879
612.0572494,33.8300018310547
612.0728744,31.1100006103516
612.0884994,28.9899997711182
612.1041244,26.5400009155273
612.1197494,22.75
612.1353744,17.0900001525879
612.1509994,10.0600004196167
612.1666244,2.96000003814697
612.1822494,-2.97000002861023
612.1978744,-7.30999994277954
612.2134994,-10.289999961853
612.2291244,-12.4700002670288
612.2447494,-14.3599996566772
612.2603744,-16.3899993896484
612.2759994,-18.7700004577637
612.2916244,-21.3799991607666
612.3072494,-23.7800006866455
612.3228744,-25.4500007629395
612.3384994,-26.1100006103516
612.3541244,-25.5900001525879
612.3697494,-23.6700000762939
612.3853744,-20.2399997711182
612.4009994,-15.789999961853
612.4166244,-11.3500003814697
612.4322494,-7.94000005722046
612.4478744,-6.07000017166138
612.4634994,-5.59000015258789
612.4791244,-6.13000011444092
612.4947494,-7.32999992370605
612.5103744,-8.78999996185303
612.5259994,-10.1000003814697
612.5416244,-11.2399997711182
612.5572494,-12.5799999237061
612.5728744,-14.3800001144409
612.5884994,-16.3799991607666
612.6041244,-17.7999992370605
612.6197494,-17.7399997711182
612.6353744,-15.1199998855591
612.6509994,-8.59000015258789
612.6666244,2.64000010490417
612.6822494,17.5699996948242
612.6978744,33.2400016784668
612.7134994,46.1500015258789
612.7291244,53.9199981689453
612.7447494,56.2099990844727
612.7603744,54.3800010681152
612.7759994,50.5400009155273
612.7916244,46.6699981689453
612.8072494,43.810001373291
612.8228744,41.6100006103516
612.8384994,38.7700004577637
612.8541244,34.1199989318848
612.8697494,27.1700000762939
612.8853744,17.9699993133545
612.9009994,7.28000020980835
612.9166244,-3.09999990463257
612.9322494,-10.9200000762939
612.9478744,-14.75
612.9634994,-14.8699998855591
612.9791244,-13.1199998855591
612.9947494,-11.789999961853
613.0103744,-12.3400001525879
613.0259994,-14.9099998474121
613.0416244,-18.6499996185303
613.0572494,-22.4300003051758
613.0728744,-25.3199996948242
613.0884994,-26.9500007629395
613.1041244,-27.5
613.1197494,-27.3899993896484
613.1353744,-26.9699993133545
613.1509994,-26.3600006103516
613.1666244,-25.5499992370605
613.1822494,-24.5599994659424
613.1978744,-23.5400009155273
613.2134994,-22.5400009155273
613.2291244,-21.2999992370605
613.2447494,-19.5799999237061
613.2603744,-17.5900001525879
613.2759994,-15.9899997711182
613.2916244,-15.4200000762939
613.3072494,-16.0
613.3228744,-17.1100006103516
613.3384994,-17.7399997711182
613.3541244,-17.0100002288818
613.3697494,-14.8800001144409
613.3853744,-12.2600002288818
613.4009994,-10.25
613.4166244,-8.75
613.4322494,-5.82999992370605
613.4478744,1.17999994754791
613.4634994,13.4499998092651
613.4791244,29.1700000762939
613.4947494,44.4799995422363
613.5103744,55.5800018310547
613.5259994,60.6500015258789
613.5416244,60.3600006103516
613.5572494,56.9599990844727
613.5728744,52.8400001525879
613.5884994,49.4799995422363
613.6041244,47.1599998474121
613.6197494,45.1500015258789
613.6353744,42.4099998474121
613.6509994,38.2700004577637
613.6666244,32.6599998474121
613.6822494,25.75
613.6978744,17.6000003814697
613.7134994,8.53999996185303
613.7291244,-0.560000002384186
613.7447494,-8.60999965667725
613.7603744,-14.8299999237061
613.7759994,-19.0
613.7916244,-21.5200004577637
613.8072494,-23.2700004577637
613.8228744,-25.1200008392334
613.8384994,-27.3799991607666
613.8541244,-29.6399993896484
613.8697494,-31.3400001525879
613.8853744,-32.4700012207031
613.9009994,-33.5499992370605
613.9166244,-35.2900009155273
613.9322494,-38.0200004577637
613.9478744,-41.4000015258789
613.9634994,-44.189998626709
613.9791244,-44.7200012207031
613.9947494,-41.8499984741211
614.0103744,-35.8199996948242
614.0259994,-28.3299999237061
614.0416244,-21.5900001525879
614.0572494,-17.2000007629395
614.0728744,-15.4700002670288
614.0884994,-15.5600004196167
614.1041244,-16.1900005340576
614.1197494,-16.5100002288818
614.1353744,-16.6499996185303
614.1509994,-17.2700004577637
614.1666244,-18.7800006866455
614.1822494,-20.8700008392334
614.1978744,-22.5300006866455
614.2134994,-22.1499996185303
614.2291244,-17.7600002288818
614.2447494,-7.63000011444092
614.2603744,8.35999965667725
614.2759994,27.7800006866455
614.2916244,46.3499984741211
614.3072494,60.1300010681152
614.3228744,67.1900024414063
614.3384994,68.0599975585938
614.3541244,64.9400024414063
614.3697494,60.3600006103516
614.3853744,55.9799995422363
614.4009994,52.1300010681152
614.4166244,48.1100006103516
614.4322494,43.0
614.4478744,36.2900009155273
614.4634994,27.9799995422363
614.4791244,18.2700004577637
614.4947494,7.53999996185303
614.5103744,-3.36999988555908
614.5259994,-13.1300001144409
614.5416244,-20.4400005340576
614.5572494,-24.6499996185303
614.5728744,-25.9200000762939
614.5884994,-25.0200004577637
614.6041244,-23.0
614.6197494,-21.0100002288818
614.6353744,-20.0300006866455
614.6509994,-20.6700000762939
614.6666244,-23.1499996185303
614.6822494,-27.2600002288818
614.6978744,-32.2799987792969
614.7134994,-36.8499984741211
614.7291244,-39.439998626709
614.7447494,-39.1500015258789
614.7603744,-36.2999992370605
614.7759994,-32.25
614.7916244,-28.4699993133545
614.8072494,-25.7099990844727
614.8228744,-23.9300003051758
614.8384994,-22.9099998474121
614.8541244,-22.4200000762939
614.8697494,-22.1800003051758
614.8853744,-22.0100002288818
614.9009994,-22.0300006866455
614.9166244,-22.3400001525879
614.9322494,-22.7299995422363
614.9478744,-22.8400001525879
614.9634994,-22.3299999237061
614.9791244,-20.9099998474121
614.9947494,-17.9599990844727
615.0103744,-12.2299995422363
615.0259994,-2.25
615.0416244,12.3900003433228
615.0572494,30.0799999237061
615.0728744,47.4199981689453
615.0884994,60.8899993896484
615.1041244,68.2600021362305
615.1197494,69.4400024414063
615.1353744,66.2600021362305
615.1509994,61.3199996948242
615.1666244,56.5400009155273
615.1822494,52.4300003051758
615.1978744,48.560001373291
615.2134994,44.25
615.2291244,38.810001373291
615.2447494,31.4899997711182
615.2603744,21.7600002288818
615.2759994,9.77999973297119
615.2916244,-2.92000007629395
615.3072494,-13.8000001907349
615.3228744,-20.5200004577637
615.3384994,-22.4099998474121
615.3541244,-20.8600006103516
615.3697494,-18.25
615.3853744,-16.5799999237061
615.4009994,-16.7800006866455
615.4166244,-18.6900005340576
615.4322494,-21.5900001525879
615.4478744,-24.6800003051758
615.4634994,-27.3899993896484
615.4791244,-29.3600006103516
615.4947494,-30.4699993133545
615.5103744,-30.7999992370605
615.5259994,-30.6399993896484
615.5416244,-30.2999992370605
615.5572494,-29.7999992370605
615.5728744,-28.8500003814697
615.5884994,-27.1599998474121
615.6041244,-24.8799991607666
615.6197494,-22.4300003051758
615.6353744,-20.1200008392334
615.6509994,-17.8799991607666
615.6666244,-15.460000038147
615.6822494,-12.9300003051758
615.6978744,-10.8999996185303
615.7134994,-10.210000038147
615.7291244,-11.25
615.7447494,-13.6700000762939
615.7603744,-16.5
615.7759994,-18.1800003051758
615.7916244,-16.4099998474121
615.8072494,-8.82999992370605
615.8228744,5.38000011444092
615.8384994,24.3700008392334
615.8541244,44.3199996948242
615.8697494,61.2299995422363
615.8853744,72.370002746582
615.9009994,77.0199966430664
615.9166244,76.3099975585938
615.9322494,72.379997253418
615.9478744,67.4100036621094
615.9634994,63.0200004577637
615.9791244,59.8899993896484
615.9947494,57.6699981689453
616.0103744,55.1800003051758
616.0259994,50.9500007629395
616.0416244,43.7999992370605
616.0572494,33.4099998474121
616.0728744,20.5900001525879
616.0884994,7.05999994277954
616.1041244,-5.23999977111816
616.1197494,-14.9399995803833
616.1353744,-21.5300006866455
616.1509994,-25.3600006103516
616.1666244,-27.3700008392334
616.1822494,-28.5699996948242
616.1978744,-29.6000003814697
616.2134994,-30.6200008392334
616.2291244,-31.5
616.2447494,-32.1300010681152
616.2603744,-32.7900009155273
616.2759994,-34.060001373291
616.2916244,-36.3300018310547
616.3072494,-39.3300018310547
616.3228744,-42.1199989318848
616.3384994,-43.7099990844727
616.3541244,-43.7099990844727
616.3697494,-42.3499984741211
616.3853744,-40.1199989318848
616.4009994,-37.5400009155273
616.4166244,-35.1199989318848
616.4322494,-33.2900009155273
616.4478744,-32.1500015258789
616.4634994,-31.2999992370605
616.4791244,-30.0499992370605
616.4947494,-28.0100002288818
616.5103744,-25.2900009155273
616.5259994,-22.0900001525879
616.5416244,-18.3899993896484
616.5572494,-13.9799995422363
616.5728744,-8.35999965667725
616.5884994,-0.330000013113022
616.6041244,11.5100002288818
616.6197494,27.3700008392334
616.6353744,45.2999992370605
616.6509994,61.9700012207031
616.6666244,74.3899993896484
616.6822494,81.1399993896484
616.6978744,82.6999969482422
616.7134994,80.6999969482422
616.7291244,76.8000030517578
616.7447494,72.0599975585938
616.7603744,67.0500030517578
616.7759994,61.9900016784668
616.7916244,56.7400016784668
616.8072494,50.5999984741211
616.8228744,42.5499992370605
616.8384994,31.8999996185303
616.8541244,19.0300006866455
616.8697494,5.51000022888184
616.8853744,-6.67999982833862
616.9009994,-15.8999996185303
616.9166244,-21.4099998474121
616.9322494,-23.7900009155273
616.9478744,-24.7099990844727
616.9634994,-26.0699996948242
616.9791244,-29.0200004577637
616.9947494,-33.5200004577637
617.0103744,-38.4300003051758
617.0259994,-42.3199996948242
617.0416244,-44.2299995422363
617.0572494,-43.9900016784668
617.0728744,-42.1399993896484
617.0884994,-39.6100006103516
617.1041244,-37.25
617.1197494,-35.2900009155273
617.1353744,-33.310001373291
617.1509994,-30.8400001525879
617.1666244,-27.8700008392334
617.1822494,-25.1000003814697
617.1978744,-23.5100002288818
617.2134994,-23.7099990844727
617.2291244,-25.4099998474121
617.2447494,-27.5900001525879
617.2603744,-29.1599998474121
617.2759994,-29.4899997711182
617.2916244,-28.7800006866455
617.3072494,-27.8600006103516
617.3228744,-27.4500007629395
617.3384994,-27.1100006103516
617.3541244,-24.8700008392334
617.3697494,-17.7700004577637
617.3853744,-3.49000000953674
617.4009994,17.6399993896484
617.4166244,42.0099983215332
617.4322494,64.2200012207031
617.4478744,79.5
617.4634994,85.7300033569336
617.4791244,83.9499969482422
617.4947494,77.370002746582
617.5103744,69.4499969482422
617.5259994,62.4099998474121
617.5416244,56.8499984741211
617.5572494,52.3499984741211
617.5728744,47.8899993896484
617.5884994,42.1100006103516
617.6041244,33.7000007629395
617.6197494,22.0300006866455
617.6353744,8.02000045776367
617.6509994,-5.69000005722046
617.6666244,-16.0400009155273
617.6822494,-21.2800006866455
617.6978744,-22.1000003814697
617.7134994,-20.9200000762939
617.7291244,-20.1399993896484
617.7447494,-21.0100002288818
617.7603744,-23.5400009155273
617.7759994,-27.1100006103516
617.7916244,-30.9099998474121
617.8072494,-34.189998626709
617.8228744,-36.3899993896484
617.8384994,-37.2000007629395
617.8541244,-36.7400016784668
617.8697494,-35.3600006103516
617.8853744,-33.5999984741211
617.9009994,-31.8299999237061
617.9166244,-29.9799995422363
617.9322494,-27.4400005340576
617.9478744,-23.5400009155273
617.9634994,-18.2099990844727
617.9791244,-12.460000038147
617.9947494,-7.92000007629395
618.0103744,-5.78000020980835
618.0259994,-6.23000001907349
618.0416244,-8.72999954223633
618.0572494,-12.6000003814697
618.0728744,-17.1200008392334
618.0884994,-21.4400005340576
618.1041244,-24.2199993133545
618.1197494,-23.3799991607666
618.1353744,-16.5400009155273
618.1509994,-2.40000009536743
618.1666244,17.9200000762939
618.1822494,41.0
618.1978744,62.4000015258789
618.2134994,78.5
618.2291244,87.5199966430664
618.2447494,89.5299987792969
618.2603744,86.0899963378906
618.2759994,79.5400009155273
618.2916244,71.9499969482422
618.3072494,64.1500015258789
618.3228744,55.8600006103516
618.3384994,46.6500015258789
618.3541244,36.5699996948242
618.3697494,26.0400009155273
618.3853744,15.4799995422363
618.4009994,5.07000017166138
618.4166244,-5.15000009536743
618.4322494,-15.1199998855591
618.4478744,-24.4899997711182
618.4634994,-32.4500007629395
618.4791244,-38.0800018310547
618.4947494,-41.0299987792969
618.5103744,-42.1199989318848
618.5259994,-42.6699981689453
618.5416244,-43.4599990844727
618.5572494,-44.2900009155273
618.5728744,-44.6300010681152
618.5884994,-44.2999992370605
618.6041244,-43.7900009155273
618.6197494,-43.7700004577637
618.6353744,-44.5
618.6509994,-45.4599990844727
618.6666244,-45.7299995422363
618.6822494,-44.6199989318848
618.6978744,-42.0400009155273
