Time(s),Value(%)
742.012673,0.0700000002980232
742.028298,5.90999984741211
742.043923,11.9799995422363
742.059548,18.2199993133545
742.075173,24.5300006866455
742.090798,30.8099994659424
742.106423,36.9199981689453
742.122048,42.4300003051758
742.137673,46.560001373291
742.153298,48.6100006103516
742.168923,48.4700012207031
742.184548,46.6300010681152
742.200173,43.8699989318848
742.215798,40.8600006103516
742.231423,38.0099983215332
742.247048,35.4700012207031
742.262673,33.2099990844727
742.278298,31.0200004577637
742.293923,28.6299991607666
742.309548,25.7999992370605
742.325173,22.5200004577637
742.340798,18.8400001525879
742.356423,14.9200000762939
742.372048,10.5699996948242
742.387673,5.8899998664856
742.403298,1.20000004768372
742.418923,-3.00999999046326
742.434548,-6.51000022888184
742.450173,-9.4399995803833
742.465798,-12.1700000762939
742.481423,-14.8800001144409
742.497048,-17.5499992370605
742.512673,-20.2600002288818
742.528298,-23.2099990844727
742.543923,-26.4899997711182
742.559548,-29.8299999237061
742.575173,-32.6599998474121
742.590798,-34.5900001525879
742.606423,-35.7200012207031
742.622048,-36.4099998474121
742.637673,-36.8600006103516
742.653298,-36.8899993896484
742.668923,-36.2700004577637
742.684548,-34.9599990844727
742.700173,-33.060001373291
742.715798,-30.5
742.731423,-26.8799991607666
742.747048,-21.7299995422363
742.762673,-14.9499998092651
742.778298,-6.84999990463257
742.793923,2.15000009536743
742.809548,11.7399997711182
742.825173,21.5499992370605
742.840798,31.1100006103516
742.856423,39.8800010681152
742.872048,47.4700012207031
742.887673,53.8800010681152
742.903298,59.2900009155273
742.918923,63.7999992370605
742.934548,67.3499984741211
742.950173,69.9599990844727
742.965798,71.8099975585938
742.981423,73.1900024414063
742.997048,74.2799987792969
743.012673,75.0800018310547
743.028298,75.4599990844727
743.043923,75.3499984741211
743.059548,74.7300033569336
743.075173,73.6500015258789
743.090798,72.1500015258789
743.106423,70.3399963378906
743.122048,68.4000015258789
743.137673,66.5400009155273
743.153298,64.8499984741211
743.168923,63.189998626709
743.184548,61.3899993896484
743.200173,59.4700012207031
743.215798,57.6199989318848
743.231423,56.0400009155273
743.247048,54.8199996948242
743.262673,53.8600006103516
743.278298,52.9000015258789
743.293923,51.560001373291
743.309548,49.5200004577637
743.325173,46.7200012207031
743.340798,43.2700004577637
743.356423,39.5099983215332
743.372048,35.1100006103516
743.387673,30.2299995422363
743.403298,25.3700008392334
743.418923,21.2800006866455
743.434548,18.4699993133545
743.450173,16.8199996948242
743.465798,15.7399997711182
743.481423,14.8400001525879
743.497048,14.1199998855591
743.512673,13.75
743.528298,13.8500003814697
743.543923,14.4099998474121
743.559548,15.5600004196167
743.575173,17.7000007629395
743.590798,21.2800006866455
743.606423,26.3799991607666
743.622048,32.7000007629395
743.637673,39.9000015258789
743.653298,47.6699981689453
743.668923,55.7200012207031
743.684548,63.5900001525879
743.700173,70.7600021362305
743.715798,76.9000015258789
743.731423,82.0299987792969
743.747048,86.3300018310547
743.762673,89.8499984741211
743.778298,92.4100036621094
743.793923,93.9599990844727
743.809548,94.629997253418
743.825173,94.7200012207031
743.840798,94.4499969482422
743.856423,93.8600006103516
743.872048,92.8199996948242
743.887673,91.2799987792969
743.903298,89.2200012207031
743.918923,86.6699981689453
743.934548,83.6800003051758
743.950173,80.3600006103516
743.965798,76.870002746582
743.981423,73.3600006103516
743.997048,69.870002746582
744.012673,66.2600021362305
744.028298,62.4199981689453
744.043923,58.4099998474121
744.059548,54.5
744.075173,50.9000015258789
744.090798,47.7200012207031
744.106423,44.8600006103516
744.122048,42.0400009155273
744.137673,38.8899993896484
744.153298,35.1199989318848
744.168923,30.6700000762939
744.184548,25.6000003814697
744.200173,19.9099998474121
744.215798,13.5600004196167
744.231423,6.69999980926514
744.247048,-0.140000000596046
744.262673,-6.21000003814697
744.278298,-11.0100002288818
744.293923,-14.75
744.309548,-18.0
744.325173,-21.1200008392334
744.340798,-23.9899997711182
744.356423,-26.3400001525879
744.372048,-28.0499992370605
744.387673,-29.1200008392334
744.403298,-29.4699993133545
744.418923,-28.6700000762939
744.434548,-26.2700004577637
744.450173,-22.1900005340576
744.465798,-16.75
744.481423,-10.3299999237061
744.497048,-3.24000000953674
744.512673,4.15999984741211
744.528298,11.4499998092651
744.543923,18.0900001525879
744.559548,23.7600002288818
744.575173,28.5400009155273
744.590798,32.6599998474121
744.606423,36.1100006103516
744.622048,38.7000007629395
744.637673,40.2999992370605
744.653298,41.0299987792969
744.668923,41.1800003051758
744.684548,40.9700012207031
744.700173,40.3800010681152
744.715798,39.25
744.731423,37.4099998474121
744.747048,34.8699989318848
744.762673,31.8299999237061
744.778298,28.5599994659424
744.793923,25.3199996948242
744.809548,22.25
744.825173,19.3600006103516
744.840798,16.4799995422363
744.856423,13.3000001907349
744.872048,9.53999996185303
744.887673,5.15000009536743
744.903298,0.180000007152557
744.918923,-5.30999994277954
744.934548,-11.3199996948242
744.950173,-17.7099990844727
744.965798,-24.0400009155273
744.981423,-29.7000007629395
744.997048,-34.310001373291
745.012673,-38.0
745.028298,-41.2000007629395
745.043923,-44.1500015258789
745.059548,-46.7700004577637
745.075173,-48.8699989318848
745.090798,-50.3800010681152
745.106423,-51.4500007629395
745.122048,-52.3800010681152
745.137673,-53.5999984741211
745.153298,-55.4000015258789
745.168923,-57.810001373291
745.184548,-60.6199989318848
745.200173,-63.4799995422363
745.215798,-66.129997253418
745.231423,-68.370002746582
745.247048,-69.9400024414063
745.262673,-70.3099975585938
745.278298,-68.8300018310547
745.293923,-65.0299987792969
745.309548,-58.9599990844727
745.325173,-51.25
745.340798,-42.8600006103516
745.356423,-34.689998626709
745.372048,-27.25
745.387673,-20.6499996185303
745.403298,-14.6800003051758
745.418923,-8.98999977111816
745.434548,-3.29999995231628
745.450173,2.5
745.465798,8.38000011444092
745.481423,14.2799997329712
745.497048,20.1800003051758
745.512673,25.9400005340576
745.528298,31.1700000762939
745.543923,35.1199989318848
745.559548,37.189998626709
745.575173,37.2900009155273
745.590798,35.8800010681152
745.606423,33.6100006103516
745.622048,31.0
745.637673,28.3400001525879
745.653298,25.75
745.668923,23.2299995422363
745.684548,20.6700000762939
745.700173,17.8600006103516
745.715798,14.6300001144409
745.731423,10.9499998092651
745.747048,6.90000009536743
745.762673,2.52999997138977
745.778298,-2.08999991416931
745.793923,-6.90000009536743
745.809548,-11.6599998474121
745.825173,-16.0699996948242
745.840798,-20.0
745.856423,-23.6000003814697
745.872048,-27.1499996185303
745.887673,-30.7199993133545
745.903298,-34.1399993896484
745.918923,-37.1800003051758
745.934548,-39.7299995422363
745.950173,-41.8499984741211
745.965798,-43.7599983215332
745.981423,-45.7900009155273
745.997048,-48.1699981689453
746.012673,-50.9199981689453
746.028298,-53.7999992370605
746.043923,-56.4199981689453
746.059548,-58.439998626709
746.075173,-59.7000007629395
746.090798,-60.1100006103516
746.106423,-59.4500007629395
746.122048,-57.2599983215332
746.137673,-53.0800018310547
746.153298,-46.8300018310547
746.168923,-39.0800018310547
746.184548,-30.8600006103516
746.200173,-23.1000003814697
746.215798,-16.3199996948242
746.231423,-10.5299997329712
746.247048,-5.40000009536743
746.262673,-0.5
746.278298,4.48000001907349
746.293923,9.61999988555908
746.309548,14.7700004577637
746.325173,19.7099990844727
746.340798,24.2399997711182
746.356423,28.2199993133545
746.372048,31.3099994659424
746.387673,32.8400001525879
746.403298,32.2299995422363
746.418923,29.4200000762939
746.434548,24.9099998474121
746.450173,19.3600006103516
746.465798,13.3000001907349
746.481423,7.1100001335144
746.497048,1.0900000333786
746.512673,-4.59000015258789
746.528298,-10.0100002288818
746.543923,-15.5
746.559548,-21.3299999237061
746.575173,-27.4099998474121
746.590798,-33.4900016784668
746.606423,-39.5699996948242
746.622048,-45.9099998474121
746.637673,-52.6699981689453
746.653298,-59.5299987792969
746.668923,-65.8300018310547
746.684548,-71.0800018310547
746.700173,-75.4599990844727
746.715798,-79.4499969482422
746.731423,-83.2200012207031
746.747048,-86.6699981689453
746.762673,-89.8399963378906
746.778298,-93.0100021362305
746.793923,-96.4000015258789
746.809548,-99.7600021362305
746.825173,-102.360000610352
746.840798,-103.459999084473
746.856423,-102.839996337891
746.872048,-100.709999084473
746.887673,-97.3499984741211
746.903298,-92.9499969482422
746.918923,-87.7600021362305
746.934548,-82.0800018310547
746.950173,-76.1900024414063
746.965798,-69.9599990844727
746.981423,-62.7000007629395
746.997048,-53.6500015258789
747.012673,-42.6300010681152
747.028298,-30.0799999237061
747.043923,-16.6399993896484
747.059548,-2.86999988555908
747.075173,10.6999998092651
747.090798,23.3600006103516
747.106423,34.1300010681152
747.122048,42.2700004577637
747.137673,47.7900009155273
747.153298,51.3300018310547
747.168923,53.5400009155273
747.184548,54.8400001525879
747.200173,55.4700012207031
747.215798,55.6300010681152
747.231423,55.5
747.247048,55.189998626709
747.262673,54.7099990844727
747.278298,53.9900016784668
747.293923,53.0099983215332
747.309548,51.810001373291
747.325173,50.5099983215332
747.340798,49.189998626709
747.356423,47.9199981689453
747.372048,46.6800003051758
747.387673,45.4099998474121
747.403298,44.0200004577637
747.418923,42.5
747.434548,40.8600006103516
747.450173,39.189998626709
747.465798,37.5400009155273
747.481423,35.9500007629395
747.497048,34.439998626709
747.512673,33.0
747.528298,31.5599994659424
747.543923,29.9599990844727
747.559548,28.0499992370605
747.575173,25.7999992370605
747.590798,23.2000007629395
747.606423,20.2199993133545
747.622048,16.8400001525879
747.637673,13.1099996566772
747.653298,9.28999996185303
747.668923,5.80000019073486
747.684548,3.09999990463257
747.700173,1.60000002384186
747.715798,1.55999994277954
747.731423,2.98000001907349
747.747048,5.55999994277954
747.762673,8.81999969482422
747.778298,12.2399997711182
747.793923,15.5
747.809548,18.7600002288818
747.825173,22.7199993133545
747.840798,28.1299991607666
747.856423,35.2000007629395
747.872048,43.6599998474121
747.887673,53.1399993896484
747.903298,63.3199996948242
747.918923,73.7200012207031
747.934548,83.4100036621094
747.950173,90.9899978637695
747.965798,95.4100036621094
747.981423,96.7099990844727
747.997048,95.75
748.012673,93.4700012207031
748.028298,90.3899993896484
748.043923,86.7099990844727
748.059548,82.6100006103516
748.075173,78.25
748.090798,73.8099975585938
748.106423,69.3499984741211
748.122048,64.870002746582
748.137673,60.3499984741211
748.153298,55.7999992370605
748.168923,51.2099990844727
748.184548,46.5999984741211
748.200173,41.9799995422363
748.215798,37.2999992370605
748.231423,32.4099998474121
748.247048,27.1100006103516
748.262673,21.2900009155273
748.278298,15.0600004196167
748.293923,8.69999980926514
748.309548,2.52999997138977
748.325173,-3.1800000667572
748.340798,-8.39999961853027
748.356423,-13.1800003051758
748.372048,-17.75
748.387673,-22.4099998474121
748.403298,-27.3799991607666
748.418923,-32.689998626709
748.434548,-38.2400016784668
748.450173,-43.9500007629395
748.465798,-49.75
748.481423,-55.5299987792969
748.497048,-61.0
748.512673,-65.6600036621094
748.528298,-68.8899993896484
748.543923,-70.120002746582
748.559548,-69.1100006103516
748.575173,-66.0599975585938
748.590798,-61.5900001525879
748.606423,-56.4799995422363
748.622048,-51.4000015258789
748.637673,-46.7000007629395
748.653298,-42.1599998474121
748.668923,-37.0400009155273
748.684548,-30.5799999237061
748.700173,-22.5799999237061
748.715798,-13.3199996948242
748.731423,-3.24000000953674
748.747048,7.28000020980835
748.762673,17.7800006866455
748.778298,27.3500003814697
748.793923,34.6100006103516
748.809548,38.4900016784668
748.825173,39.0099983215332
748.840798,37.1500015258789
748.856423,34.060001373291
748.872048,30.4699993133545
748.887673,26.7199993133545
748.903298,22.9200000762939
748.918923,19.1100006103516
748.934548,15.3000001907349
748.950173,11.4499998092651
748.965798,7.5
748.981423,3.46000003814697
748.997048,-0.540000021457672
749.012673,-4.36999988555908
749.028298,-7.90000009536743
749.043923,-11.0799999237061
749.059548,-14.0200004577637
749.075173,-16.8999996185303
749.090798,-19.7000007629395
749.106423,-22.1100006103516
749.122048,-23.6800003051758
749.137673,-24.2399997711182
749.153298,-24.0200004577637
749.168923,-23.4500007629395
749.184548,-22.9200000762939
749.200173,-22.6200008392334
749.215798,-22.3899993896484
749.231423,-21.8500003814697
749.247048,-20.5799999237061
749.262673,-18.4699993133545
749.278298,-15.6099996566772
749.293923,-12.1499996185303
749.309548,-8.19999980926514
749.325173,-4.01999998092651
749.340798,-0.170000001788139
749.356423,2.47000002861023
749.372048,3.4300000667572
749.387673,3.19000005722046
749.403298,2.78999996185303
749.418923,3.04999995231628
749.434548,4.3600001335144
749.450173,6.96000003814697
749.465798,11.0100002288818
749.481423,16.2800006866455
749.497048,21.8999996185303
749.512673,26.5699996948242
749.528298,29.1800003051758
749.543923,29.3899993896484
749.559548,27.4699993133545
749.575173,23.7299995422363
749.590798,18.3899993896484
749.606423,11.789999961853
749.622048,4.48999977111816
749.637673,-2.92000007629395
749.653298,-10.1599998474121
749.668923,-17.3700008392334
749.684548,-24.8999996185303
749.700173,-32.9500007629395
749.715798,-41.5099983215332
749.731423,-50.5099983215332
749.747048,-59.8499984741211
749.762673,-69.2900009155273
749.778298,-78.3600006103516
749.793923,-86.4599990844727
749.809548,-93.2900009155273
749.825173,-99.1600036621094
749.840798,-104.599998474121
749.856423,-109.849998474121
749.872048,-114.690002441406
749.887673,-118.790000915527
749.903298,-121.949996948242
749.918923,-124.279998779297
749.934548,-126.089996337891
749.950173,-127.769996643066
749.965798,-129.630004882813
749.981423,-131.75
749.997048,-134.160003662109
750.012673,-136.960006713867
750.028298,-140.259994506836
750.043923,-143.949996948242
750.059548,-147.440002441406
750.075173,-149.75
750.090798,-150.080001831055
750.106423,-148.309997558594
750.122048,-144.860000610352
750.137673,-140.270004272461
750.153298,-134.850006103516
750.168923,-128.850006103516
750.184548,-122.470001220703
750.200173,-115.849998474121
750.215798,-108.599998474121
750.231423,-99.7099990844727
750.247048,-88.2099990844727
750.262673,-73.879997253418
750.278298,-57.2700004577637
750.293923,-39.0800018310547
750.309548,-19.8799991607666
750.325173,-0.319999992847443
750.340798,18.4400005340576
750.356423,34.8699989318848
750.372048,47.810001373291
750.387673,57.2599983215332
750.403298,64.0699996948242
750.418923,68.9899978637695
750.434548,72.370002746582
750.450173,74.379997253418
750.465798,75.3199996948242
750.481423,75.620002746582
750.497048,75.7399978637695
750.512673,76.0
750.528298,76.5299987792969
750.543923,77.3199996948242
750.559548,78.3399963378906
750.575173,79.7099990844727
750.590798,81.5800018310547
750.606423,83.9199981689453
750.622048,86.3499984741211
750.637673,88.2399978637695
750.653298,89.120002746582
750.668923,89.0299987792969
750.684548,88.379997253418
750.700173,87.4700012207031
750.715798,86.3300018310547
750.731423,84.879997253418
750.747048,83.0999984741211
750.762673,81.0699996948242
750.778298,78.8499984741211
750.793923,76.4400024414063
750.809548,73.7799987792969
750.825173,70.8600006103516
750.840798,67.7099990844727
750.856423,64.379997253418
750.872048,60.9300003051758
750.887673,57.4000015258789
750.903298,53.8300018310547
750.918923,50.2099990844727
750.934548,46.6199989318848
750.950173,43.2799987792969
750.965798,40.5
750.981423,38.5099983215332
750.997048,37.2999992370605
751.012673,36.6599998474121
751.028298,36.2799987792969
751.043923,35.9700012207031
751.059548,35.9799995422363
751.075173,37.0400009155273
751.090798,39.8800010681152
751.106423,44.6699981689453
751.122048,51.0499992370605
751.137673,58.439998626709
751.153298,66.3899993896484
751.168923,74.3899993896484
751.184548,81.620002746582
751.200173,86.8399963378906
751.215798,89.0699996948242
751.231423,88.25
751.247048,85.1100006103516
751.262673,80.5800018310547
751.278298,75.3199996948242
751.293923,69.7300033569336
751.309548,64.0699996948242
751.325173,58.4900016784668
751.340798,53.0200004577637
751.356423,47.5400009155273
751.372048,41.9199981689453
751.387673,36.1100006103516
751.403298,30.0799999237061
751.418923,23.8199996948242
751.434548,17.2800006866455
751.450173,10.539999961853
751.465798,3.80999994277954
751.481423,-2.64000010490417
751.497048,-8.78999996185303
751.512673,-14.8699998855591
751.528298,-21.1900005340576
751.543923,-27.7299995422363
751.559548,-34.3800010681152
751.575173,-41.2299995422363
751.590798,-48.5099983215332
751.606423,-56.310001373291
751.622048,-64.2200012207031
751.637673,-71.4800033569336
751.653298,-77.6100006103516
751.668923,-82.7900009155273
751.684548,-87.5199966430664
751.700173,-91.9199981689453
751.715798,-95.620002746582
751.731423,-98.2399978637695
751.747048,-99.6699981689453
751.762673,-100.120002746582
751.778298,-99.8000030517578
751.793923,-98.6500015258789
751.809548,-96.4599990844727
751.825173,-93.1699981689453
751.840798,-88.8300018310547
751.856423,-83.4499969482422
751.872048,-77.0500030517578
751.887673,-69.8300018310547
751.903298,-62.0900001525879
751.918923,-54.1399993896484
751.934548,-46.0699996948242
751.950173,-37.7400016784668
751.965798,-29.1800003051758
751.981423,-20.7999992370605
751.997048,-13.2700004577637
752.012673,-7.0
752.028298,-1.97000002861023
752.043923,2.15000009536743
752.059548,5.65000009536743
752.075173,8.5
752.090798,10.460000038147
752.106423,11.4499998092651
752.122048,11.5799999237061
752.137673,11.0799999237061
752.153298,10.1800003051758
752.168923,9.09000015258789
752.184548,8.02000045776367
752.200173,7.1100001335144
752.215798,6.34999990463257
752.231423,5.53999996185303
752.247048,4.42000007629395
752.262673,3.01999998092651
752.278298,1.58000004291534
752.293923,0.389999985694885
752.309548,-0.389999985694885
752.325173,-0.839999973773956
752.340798,-1.25
752.356423,-2.07999992370605
752.372048,-3.71000003814697
752.387673,-6.21999979019165
752.403298,-9.53999996185303
752.418923,-13.5900001525879
752.434548,-18.3600006103516
752.450173,-23.6700000762939
752.465798,-28.8700008392334
752.481423,-33.0499992370605
752.497048,-35.5800018310547
752.512673,-36.6599998474121
752.528298,-36.9700012207031
752.543923,-36.9700012207031
752.559548,-36.6800003051758
752.575173,-35.8899993896484
752.590798,-34.5200004577637
752.606423,-32.5999984741211
752.622048,-30.1200008392334
752.637673,-26.7600002288818
752.653298,-22.1900005340576
752.668923,-16.3400001525879
752.684548,-9.36999988555908
752.700173,-1.41999995708466
752.715798,7.3899998664856
752.731423,16.8500003814697
752.747048,26.4699993133545
752.762673,35.7400016784668
752.778298,44.4099998474121
752.793923,52.6399993896484
752.809548,60.6399993896484
752.825173,68.2300033569336
752.840798,74.879997253418
752.856423,80.1999969482422
752.872048,84.1699981689453
752.887673,87.1500015258789
752.903298,89.4300003051758
752.918923,91.0999984741211
752.934548,92.0400009155273
752.950173,92.1699981689453
752.965798,91.5599975585938
752.981423,90.3300018310547
752.997048,88.620002746582
753.012673,86.5699996948242
753.028298,84.3000030517578
753.043923,81.8199996948242
753.059548,79.0
753.075173,75.629997253418
753.090798,71.6399993896484
753.106423,67.25
753.122048,62.8600006103516
753.137673,58.8199996948242
753.153298,55.2700004577637
753.168923,52.1300010681152
753.184548,49.1100006103516
753.200173,45.7999992370605
753.215798,41.9199981689453
753.231423,37.4099998474121
