Time(s),Value(%)
957.006733,-15.4300003051758
957.022358,-22.9799995422363
957.037983,-29.1100006103516
957.053608,-33.7299995422363
957.069233,-37.1500015258789
957.084858,-39.7700004577637
957.100483,-41.7599983215332
957.116108,-43.060001373291
957.131733,-43.4900016784668
957.147358,-43.0900001525879
957.162983,-42.1300010681152
957.178608,-40.9599990844727
957.194233,-39.9300003051758
957.209858,-39.1500015258789
957.225483,-38.0999984741211
957.241108,-35.8499984741211
957.256733,-31.8199996948242
957.272358,-26.0900001525879
957.287983,-19.2000007629395
957.303608,-11.789999961853
957.319233,-4.03999996185303
957.334858,4.28000020980835
957.350483,13.2600002288818
957.366108,22.2600002288818
957.381733,30.0900001525879
957.397358,35.7000007629395
957.412983,38.8800010681152
957.428608,40.189998626709
957.444233,40.439998626709
957.459858,39.9199981689453
957.475483,38.0900001525879
957.491108,34.1300010681152
957.506733,27.8299999237061
957.522358,20.0599994659424
957.537983,12.210000038147
957.553608,5.34999990463257
957.569233,-0.230000004172325
957.584858,-4.84000015258789
957.600483,-8.77999973297119
957.616108,-11.8100004196167
957.631733,-13.3900003433228
957.647358,-13.4700002670288
957.662983,-12.6899995803833
957.678608,-12.0100002288818
957.694233,-12.1400003433228
957.709858,-13.3400001525879
957.725483,-15.3599996566772
957.741108,-17.5300006866455
957.756733,-18.9099998474121
957.772358,-18.5699996948242
957.787983,-16.1399993896484
957.803608,-12.3800001144409
957.819233,-8.75
957.834858,-6.25
957.850483,-4.40999984741211
957.866108,-1.60000002384186
957.881733,3.75
957.897358,12.0699996948242
957.912983,22.3600006103516
957.928608,32.7299995422363
957.944233,41.0400009155273
957.959858,45.6399993896484
957.975483,46.0499992370605
957.991108,43.0499992370605
958.006733,38.1800003051758
958.022358,32.9300003051758
958.037983,28.0100002288818
958.053608,23.1800003051758
958.069233,17.7600002288818
958.084858,11.460000038147
958.100483,4.84000015258789
958.116108,-1.17999994754791
958.131733,-5.96999979019165
958.147358,-9.52999973297119
958.162983,-12.289999961853
958.178608,-14.8400001525879
958.194233,-17.7600002288818
958.209858,-21.3199996948242
958.225483,-25.25
958.241108,-28.6000003814697
958.256733,-30.5100002288818
958.272358,-31.0799999237061
958.287983,-31.1800003051758
958.303608,-31.6000003814697
958.319233,-32.4199981689453
958.334858,-33.3300018310547
958.350483,-33.9799995422363
958.366108,-34.1800003051758
958.381733,-33.6199989318848
958.397358,-31.6800003051758
958.412983,-27.3199996948242
958.428608,-19.6800003051758
958.444233,-8.98999977111816
958.459858,3.13000011444092
958.475483,14.4499998092651
958.491108,23.2099990844727
958.506733,29.0599994659424
958.522358,32.8800010681152
958.537983,35.9099998474121
958.553608,38.7200012207031
958.569233,40.9599990844727
958.584858,41.8300018310547
958.600483,40.6100006103516
958.616108,37.0499992370605
958.631733,31.5799999237061
958.647358,25.0599994659424
958.662983,18.4099998474121
958.678608,12.25
958.694233,6.67999982833862
958.709858,1.58000004291534
958.725483,-3.09999990463257
958.741108,-7.34000015258789
958.756733,-11.039999961853
958.772358,-13.9899997711182
958.787983,-15.9499998092651
958.803608,-16.8600006103516
958.819233,-16.9699993133545
958.834858,-16.7099990844727
958.850483,-16.5599994659424
958.866108,-16.7399997711182
958.881733,-17.1100006103516
958.897358,-17.25
958.912983,-16.9799995422363
958.928608,-16.5699996948242
958.944233,-16.3999996185303
958.959858,-16.2900009155273
958.975483,-15.2700004577637
958.991108,-11.9200000762939
959.006733,-5.17999982833862
959.022358,4.65000009536743
959.037983,15.8000001907349
959.053608,25.7999992370605
959.069233,32.9900016784668
959.084858,37.1399993896484
959.100483,39.1800003051758
959.116108,40.25
959.131733,41.0400009155273
959.147358,41.4900016784668
959.162983,40.939998626709
959.178608,38.5299987792969
959.194233,33.7299995422363
959.209858,26.7299995422363
959.225483,18.5400009155273
959.241108,10.6199998855591
959.256733,4.28999996185303
959.272358,0.0799999982118607
959.287983,-2.38000011444092
959.303608,-4.03000020980835
959.319233,-5.73999977111816
959.334858,-8.11999988555908
959.350483,-11.3699998855591
959.366108,-15.1899995803833
959.381733,-18.7700004577637
959.397358,-21.1100006103516
959.412983,-21.5400009155273
959.428608,-20.3199996948242
959.444233,-18.7000007629395
959.459858,-18.2700004577637
959.475483,-20.0799999237061
959.491108,-23.9400005340576
959.506733,-28.4200000762939
959.522358,-31.5699996948242
959.537983,-31.6499996185303
959.553608,-27.8099994659424
959.569233,-20.2800006866455
959.584858,-10.0500001907349
959.600483,1.67999994754791
959.616108,13.6800003051758
959.631733,24.6299991607666
959.647358,33.3400001525879
959.662983,39.0
959.678608,41.3699989318848
959.694233,40.5499992370605
959.709858,36.9199981689453
959.725483,31.2299995422363
959.741108,24.5400009155273
959.756733,17.7999992370605
959.772358,11.5200004577637
959.787983,5.71999979019165
959.803608,0.560000002384186
959.819233,-3.45000004768372
959.834858,-6.0
959.850483,-7.53000020980835
959.866108,-8.85000038146973
959.881733,-10.4399995803833
959.897358,-12.3199996948242
959.912983,-14.2200002670288
959.928608,-15.8400001525879
959.944233,-17.0699996948242
959.959858,-18.2199993133545
959.975483,-19.8199996948242
959.991108,-22.2900009155273
960.006733,-25.5599994659424
960.022358,-29.0
960.037983,-31.5799999237061
960.053608,-32.4300003051758
960.069233,-31.3999996185303
960.084858,-29.2999992370605
960.100483,-27.3299999237061
960.116108,-26.1299991607666
960.131733,-25.1000003814697
960.147358,-22.8799991607666
960.162983,-18.3099994659424
960.178608,-11.1899995803833
960.194233,-2.35999989509583
960.209858,6.94000005722046
960.225483,15.8400001525879
960.241108,23.8700008392334
960.256733,30.5900001525879
960.272358,35.4599990844727
960.287983,37.939998626709
960.303608,37.7299995422363
960.319233,34.7799987792969
960.334858,29.3999996185303
960.350483,22.3099994659424
960.366108,14.6099996566772
960.381733,7.46999979019165
960.397358,1.6599999666214
960.412983,-2.77999997138977
960.428608,-6.15999984741211
960.444233,-8.76000022888184
960.459858,-10.9399995803833
960.475483,-13.1999998092651
960.491108,-15.9399995803833
960.506733,-19.1700000762939
960.522358,-22.5599994659424
960.537983,-25.6800003051758
960.553608,-28.0100002288818
960.569233,-28.9200000762939
960.584858,-27.7199993133545
960.600483,-23.9799995422363
960.616108,-18.0599994659424
960.631733,-11.1700000762939
960.647358,-4.8600001335144
960.662983,-0.150000005960464
960.678608,2.89000010490417
960.694233,5.05000019073486
960.709858,7.3899998664856
960.725483,10.8500003814697
960.741108,15.8800001144409
960.756733,22.1000003814697
960.772358,28.4699993133545
960.787983,33.8600006103516
960.803608,37.7700004577637
960.819233,40.2299995422363
960.834858,41.2900009155273
960.850483,40.689998626709
960.866108,37.8400001525879
960.881733,32.1199989318848
960.897358,23.0200004577637
960.912983,10.5100002288818
960.928608,-4.26000022888184
960.944233,-18.6399993896484
960.959858,-29.3199996948242
960.975483,-33.9900016784668
960.991108,-32.5900001525879
961.006733,-27.0499992370605
961.022358,-20.0599994659424
961.037983,-13.7600002288818
961.053608,-9.42000007629395
961.069233,-7.42999982833862
961.084858,-7.51999998092651
961.100483,-8.97000026702881
961.116108,-11.0299997329712
961.131733,-13.1800003051758
961.147358,-15.0100002288818
961.162983,-16.0699996948242
961.178608,-16.0900001525879
961.194233,-15.3199996948242
961.209858,-14.3699998855591
961.225483,-13.7399997711182
961.241108,-13.5200004577637
961.256733,-13.3500003814697
961.272358,-12.5699996948242
961.287983,-10.3699998855591
961.303608,-6.23999977111816
961.319233,-0.360000014305115
961.334858,6.38000011444092
961.350483,13.0500001907349
961.366108,19.3799991607666
961.381733,25.6599998474121
961.397358,32.0400009155273
961.412983,37.8699989318848
961.428608,41.8600006103516
961.444233,42.9900016784668
961.459858,41.310001373291
961.475483,37.5400009155273
961.491108,32.1199989318848
961.506733,24.9699993133545
961.522358,16.2099990844727
961.537983,6.90999984741211
961.553608,-1.45000004768372
961.569233,-7.90999984741211
961.584858,-12.3299999237061
961.600483,-15.0699996948242
961.616108,-16.6200008392334
961.631733,-17.5699996948242
961.647358,-18.5699996948242
961.662983,-19.9799995422363
961.678608,-21.4599990844727
961.694233,-22.3400001525879
961.709858,-22.1700000762939
961.725483,-21.0100002288818
961.741108,-19.3899993896484
961.756733,-18.1700000762939
961.772358,-18.0699996948242
961.787983,-19.2600002288818
961.803608,-21.1599998474121
961.819233,-22.8099994659424
961.834858,-23.3700008392334
961.850483,-22.2900009155273
961.866108,-19.1800003051758
961.881733,-13.8199996948242
961.897358,-6.55999994277954
961.912983,1.49000000953674
961.928608,8.98999977111816
961.944233,15.039999961853
961.959858,19.6200008392334
961.975483,23.5
961.991108,27.5300006866455
962.006733,31.8600006103516
962.022358,35.5900001525879
962.037983,37.2900009155273
962.053608,35.9199981689453
962.069233,31.3400001525879
962.084858,24.3600006103516
962.100483,16.3400001525879
962.116108,8.67000007629395
962.131733,2.22000002861023
962.147358,-2.6800000667572
962.162983,-6.01999998092651
962.178608,-8.23999977111816
962.194233,-10.1000003814697
962.209858,-12.0
962.225483,-13.6899995803833
962.241108,-14.710000038147
962.256733,-15.0699996948242
962.272358,-15.1599998474121
962.287983,-15.3400001525879
962.303608,-15.5200004577637
962.319233,-15.3699998855591
962.334858,-14.8199996948242
962.350483,-14.3199996948242
962.366108,-14.4700002670288
962.381733,-15.4799995422363
962.397358,-17.1200008392334
962.412983,-18.6200008392334
962.428608,-18.4400005340576
962.444233,-14.7399997711182
962.459858,-6.57999992370605
962.475483,5.28000020980835
962.491108,18.8700008392334
962.506733,31.9300003051758
962.522358,42.7999992370605
962.537983,50.5800018310547
962.553608,54.9700012207031
962.569233,56.2099990844727
962.584858,54.8899993896484
962.600483,51.560001373291
962.616108,46.4900016784668
962.631733,39.5800018310547
962.647358,30.6599998474121
962.662983,20.1399993896484
962.678608,9.10999965667725
962.694233,-1.11000001430511
962.709858,-9.55000019073486
962.725483,-15.8100004196167
962.741108,-20.0699996948242
962.756733,-22.8500003814697
962.772358,-24.8299999237061
962.787983,-26.6299991607666
962.803608,-28.6399993896484
962.819233,-30.9899997711182
962.834858,-33.8499984741211
962.850483,-37.810001373291
962.866108,-43.5999984741211
962.881733,-51.3499984741211
962.897358,-60.2299995422363
962.912983,-68.8000030517578
962.928608,-75.2699966430664
962.944233,-77.7200012207031
962.959858,-74.7300033569336
962.975483,-66.0699996948242
962.991108,-52.5999984741211
963.006733,-35.6399993896484
963.022358,-16.4699993133545
963.037983,3.53999996185303
963.053608,22.6100006103516
963.069233,38.6599998474121
963.084858,50.1300010681152
963.100483,56.7999992370605
963.116108,59.560001373291
963.131733,59.6500015258789
963.147358,58.2000007629395
963.162983,55.9300003051758
963.178608,52.9799995422363
963.194233,48.9799995422363
963.209858,43.5
963.225483,36.5900001525879
963.241108,28.7800006866455
963.256733,20.7000007629395
963.272358,12.6899995803833
963.287983,4.90000009536743
963.303608,-2.41000008583069
963.319233,-8.85000038146973
963.334858,-14.039999961853
963.350483,-17.8799991607666
963.366108,-20.3700008392334
963.381733,-21.5499992370605
963.397358,-21.3799991607666
963.412983,-19.9500007629395
963.428608,-17.7900009155273
963.444233,-15.9899997711182
963.459858,-15.6300001144409
963.475483,-16.9599990844727
963.491108,-19.3199996948242
963.506733,-21.6399993896484
963.522358,-22.8899993896484
963.537983,-22.4400005340576
963.553608,-19.9799995422363
963.569233,-15.210000038147
963.584858,-7.80999994277954
963.600483,2.02999997138977
963.616108,13.0500001907349
963.631733,23.0599994659424
963.647358,30.0699996948242
963.662983,33.2400016784668
963.678608,33.1699981689453
963.694233,31.3199996948242
963.709858,29.1299991607666
963.725483,27.3600006103516
963.741108,25.8999996185303
963.756733,23.9799995422363
963.772358,20.7399997711182
963.787983,16.0100002288818
963.803608,10.6300001144409
963.819233,5.65999984741211
963.834858,1.44000005722046
963.850483,-2.21000003814697
963.866108,-5.42000007629395
963.881733,-7.80999994277954
963.897358,-9.02000045776367
963.912983,-9.32999992370605
963.928608,-9.5
963.944233,-10.0
963.959858,-10.7200002670288
963.975483,-11.3900003433228
963.991108,-12.0200004577637
964.006733,-12.8500003814697
964.022358,-13.9799995422363
964.037983,-15.2600002288818
964.053608,-16.5100002288818
964.069233,-17.6299991607666
964.084858,-18.3400001525879
964.100483,-18.3700008392334
964.116108,-17.3299999237061
964.131733,-14.4899997711182
964.147358,-9.10999965667725
964.162983,-1.25999999046326
964.178608,7.98000001907349
964.194233,17.1700000762939
964.209858,25.2700004577637
964.225483,31.8199996948242
964.241108,36.7700004577637
964.256733,40.1599998474121
964.272358,41.9599990844727
964.287983,42.1100006103516
964.303608,40.5299987792969
964.319233,37.1399993896484
964.334858,32.0099983215332
964.350483,25.5900001525879
964.366108,18.6399993896484
964.381733,11.8299999237061
964.397358,5.48999977111816
964.412983,-0.28999999165535
964.428608,-5.42000007629395
964.444233,-9.72999954223633
964.459858,-13.1999998092651
964.475483,-16.0100002288818
964.491108,-18.4599990844727
964.506733,-20.7000007629395
964.522358,-22.6200008392334
964.537983,-24.1000003814697
964.553608,-25.2700004577637
964.569233,-26.3099994659424
964.584858,-27.1399993896484
964.600483,-27.3700008392334
964.616108,-26.7199993133545
964.631733,-25.1800003051758
964.647358,-23.0200004577637
964.662983,-20.6100006103516
964.678608,-17.8999996185303
964.694233,-14.0299997329712
964.709858,-7.75
964.725483,1.41999995708466
964.741108,12.3500003814697
964.756733,22.6100006103516
964.772358,30.1000003814697
964.787983,34.2000007629395
964.803608,35.8499984741211
964.819233,36.6300010681152
964.834858,37.7099990844727
964.850483,39.189998626709
964.866108,40.189998626709
964.881733,39.2700004577637
964.897358,35.1800003051758
964.912983,27.5799999237061
964.928608,17.4300003051758
964.944233,6.84999990463257
964.959858,-1.92999994754791
964.975483,-7.90000009536743
964.991108,-11.5900001525879
965.006733,-14.2200002670288
965.022358,-16.7099990844727
965.037983,-19.2600002288818
965.053608,-21.6800003051758
965.069233,-23.8199996948242
965.084858,-25.7800006866455
965.100483,-27.6599998474121
965.116108,-29.4200000762939
965.131733,-30.8999996185303
965.147358,-31.9099998474121
965.162983,-32.2999992370605
965.178608,-32.0099983215332
965.194233,-31.2700004577637
965.209858,-30.9300003051758
965.225483,-32.2700004577637
965.241108,-35.7000007629395
965.256733,-39.7999992370605
965.272358,-41.8300018310547
965.287983,-39.6699981689453
965.303608,-33.3600006103516
965.319233,-24.9400005340576
965.334858,-16.5100002288818
965.350483,-8.71000003814697
965.366108,-0.720000028610229
965.381733,8.22000026702881
965.397358,17.7199993133545
965.412983,26.4099998474121
965.428608,33.0099983215332
965.444233,36.8600006103516
965.459858,37.75
965.475483,35.7000007629395
965.491108,30.9500007629395
965.506733,24.2000007629395
965.522358,16.6200008392334
965.537983,9.51000022888184
965.553608,3.60999989509583
965.569233,-1.12999999523163
965.584858,-5.1399998664856
965.600483,-8.42000007629395
965.616108,-10.5600004196167
965.631733,-11.1700000762939
965.647358,-10.4099998474121
965.662983,-8.9399995803833
965.678608,-7.57999992370605
965.694233,-7.03999996185303
965.709858,-7.76000022888184
965.725483,-9.81999969482422
965.741108,-12.8999996185303
965.756733,-16.5599994659424
965.772358,-20.2600002288818
965.787983,-23.1100006103516
965.803608,-23.8999996185303
965.819233,-21.7700004577637
965.834858,-16.6499996185303
965.850483,-9.17000007629395
965.866108,-0.649999976158142
965.881733,7.32000017166138
965.897358,13.5799999237061
965.912983,17.9200000762939
965.928608,20.9200000762939
965.944233,23.3400001525879
965.959858,25.4799995422363
965.975483,27.1100006103516
965.991108,27.6399993896484
966.006733,26.3099994659424
966.022358,22.5699996948242
966.037983,16.4899997711182
966.053608,8.94999980926514
966.069233,1.36000001430511
966.084858,-4.86999988555908
966.100483,-8.78999996185303
966.116108,-10.1199998855591
966.131733,-9.47000026702881
966.147358,-8.14000034332275
966.162983,-7.3899998664856
966.178608,-7.78999996185303
966.194233,-9.22000026702881
966.209858,-11.1499996185303
966.225483,-12.8900003433228
966.241108,-13.8199996948242
966.256733,-13.6800003051758
966.272358,-12.8000001907349
966.287983,-11.9399995803833
966.303608,-11.6599998474121
966.319233,-11.7399997711182
966.334858,-11.1599998474121
966.350483,-8.53999996185303
966.366108,-2.80999994277954
966.381733,6.15999984741211
966.397358,17.1499996185303
966.412983,27.8500003814697
966.428608,36.0
966.444233,40.5200004577637
966.459858,41.8800010681152
966.475483,41.5800018310547
966.491108,41.0900001525879
966.506733,41.1599998474121
966.522358,41.8499984741211
966.537983,42.6800003051758
966.553608,42.5999984741211
966.569233,40.2200012207031
966.584858,34.6100006103516
966.600483,26.0
966.616108,15.7600002288818
966.631733,5.98999977111816
966.647358,-1.24000000953674
966.662983,-5.07000017166138
966.678608,-6.21999979019165
966.694233,-6.30999994277954
966.709858,-6.76000022888184
966.725483,-8.07999992370605
966.741108,-9.98999977111816
966.756733,-12.0100002288818
966.772358,-14.1300001144409
966.787983,-16.9200000762939
966.803608,-20.7600002288818
966.819233,-25.1800003051758
966.834858,-28.9099998474121
966.850483,-30.6499996185303
966.866108,-29.8400001525879
966.881733,-27.0900001525879
966.897358,-23.8299999237061
966.912983,-21.0100002288818
966.928608,-18.1499996185303
966.944233,-13.9200000762939
966.959858,-7.46999979019165
966.975483,0.75
966.991108,9.32999992370605
967.006733,16.5900001525879
967.022358,21.4400005340576
967.037983,23.8600006103516
967.053608,24.6000003814697
967.069233,24.5599994659424
967.084858,24.2600002288818
967.100483,23.5599994659424
967.116108,21.9099998474121
967.131733,18.8999996185303
967.147358,14.789999961853
967.162983,10.1599998474121
967.178608,5.1100001335144
967.194233,-1.3400000333786
967.209858,-11.0
967.225483,-25.3199996948242
967.241108,-43.9000015258789
967.256733,-63.7999992370605
967.272358,-80.0899963378906
967.287983,-87.6900024414063
967.303608,-83.7600021362305
967.319233,-69.5500030517578
967.334858,-49.9199981689453
967.350483,-30.7999992370605
967.366108,-16.4200000762939
967.381733,-8.17000007629395
967.397358,-5.17000007629395
967.412983,-5.6100001335144
967.428608,-7.6100001335144
967.444233,-9.8100004196167
967.459858,-11.539999961853
967.475483,-12.5699996948242
967.491108,-12.4200000762939
967.506733,-9.82999992370605
967.522358,-3.15000009536743
967.537983,8.21000003814697
967.553608,22.75
967.569233,37.0800018310547
967.584858,47.6800003051758
967.600483,52.7900009155273
967.616108,53.4900016784668
967.631733,52.7099990844727
967.647358,52.7999992370605
967.662983,53.8300018310547
967.678608,53.939998626709
967.694233,51.1100006103516
967.709858,44.9300003051758
967.725483,36.7799987792969
967.741108,28.6000003814697
967.756733,21.5
967.772358,15.3999996185303
967.787983,9.55000019073486
967.803608,3.4300000667572
967.819233,-2.79999995231628
967.834858,-8.59000015258789
967.850483,-13.5200004577637
967.866108,-17.5900001525879
967.881733,-20.9899997711182
967.897358,-23.8799991607666
967.912983,-26.3099994659424
967.928608,-28.3999996185303
967.944233,-30.1399993896484
967.959858,-31.1399993896484
967.975483,-30.8299999237061
967.991108,-28.7399997711182
968.006733,-24.75
968.022358,-19.0
968.037983,-11.7700004577637
968.053608,-3.41000008583069
968.069233,5.73999977111816
968.084858,15.210000038147
