Time(s),Value(%)
0.1743069,61.3199996948242
0.1899319,59.4900016784668
0.2055569,59.4300003051758
0.2211819,59.7099990844727
0.2368069,58.810001373291
0.2524319,56.1300010681152
0.2680569,52.060001373291
0.2836819,47.5800018310547
0.2993069,43.8800010681152
0.3149319,42.060001373291
0.3305569,42.8499984741211
0.3461819,46.5900001525879
0.3618069,53.060001373291
0.3774319,61.0400009155273
0.3930569,68.3300018310547
0.4086819,72.5
0.4243069,71.8399963378906
0.4399319,66.120002746582
0.4555569,56.6100006103516
0.4711819,45.7000007629395
0.4868069,36.1800003051758
0.5024319,30.2700004577637
0.5180569,29.0
0.5336819,31.9400005340576
0.5493069,37.5299987792969
0.5649319,44.0499992370605
0.5805569,50.8600006103516
0.5961819,58.6100006103516
0.6118069,68.120002746582
0.6274319,78.870002746582
0.6430569,88.6900024414063
0.6586819,94.7900009155273
0.6743069,95.1399993896484
0.6899319,89.25
0.7055569,78.3000030517578
0.7211819,64.4400024414063
0.7368069,49.7200012207031
0.7524319,35.2400016784668
0.7680569,21.1200008392334
0.7836819,7.0
0.7993069,-7.44000005722046
0.8149319,-22.2099990844727
0.8305569,-37.0999984741211
0.8461819,-51.8800010681152
0.8618069,-66.129997253418
0.8774319,-79.0
0.8930569,-89.3199996948242
0.9086819,-96.120002746582
0.9243069,-99.0699996948242
0.9399319,-98.2200012207031
0.9555569,-93.7399978637695
0.9711819,-86.3399963378906
0.9868069,-77.620002746582
1.0024319,-69.4599990844727
1.0180569,-62.8400001525879
1.0336819,-57.6100006103516
1.0493069,-53.2400016784668
1.0649319,-49.2299995422363
1.0805569,-44.9500007629395
1.0961819,-39.7000007629395
1.1118069,-33.0400009155273
1.1274319,-25.2399997711182
1.1430569,-17.1100006103516
1.1586819,-9.40999984741211
1.1743069,-2.42000007629395
1.1899319,3.86999988555908
1.2055569,9.43000030517578
1.2211819,14.3599996566772
1.2368069,19.2900009155273
1.2524319,25.1800003051758
1.2680569,32.4599990844727
1.2836819,40.5499992370605
1.2993069,48.3600006103516
1.3149319,55.0099983215332
1.3305569,59.9500007629395
1.3461819,62.7000007629395
1.3618069,62.939998626709
1.3774319,60.9000015258789
1.3930569,57.4199981689453
1.4086819,53.4199981689453
1.4243069,49.2299995422363
1.4399319,44.4500007629395
1.4555569,38.4500007629395
1.4711819,30.9300003051758
1.4868069,22.4099998474121
1.5024319,14.1499996185303
1.5180569,7.55999994277954
1.5336819,3.58999991416931
1.5493069,2.53999996185303
1.5649319,4.01000022888184
1.5805569,7.05000019073486
1.5961819,10.1999998092651
1.6118069,11.960000038147
1.6274319,11.3100004196167
1.6430569,8.28999996185303
1.6586819,3.88000011444092
1.6743069,-0.5
1.6899319,-3.83999991416931
1.7055569,-5.90999984741211
1.7211819,-7.3600001335144
1.7368069,-9.05000019073486
1.7524319,-11.1499996185303
1.7680569,-13.0299997329712
1.7836819,-13.5100002288818
1.7993069,-11.4399995803833
1.8149319,-6.19999980926514
1.8305569,1.94000005722046
1.8461819,12.460000038147
1.8618069,25.3299999237061
1.8774319,41.0400009155273
1.8930569,59.5099983215332
1.9086819,79.1999969482422
1.9243069,97.3399963378906
1.9399319,110.98999786377
1.9555569,118.019996643066
1.9711819,117.819999694824
1.9868069,111.529998779297
2.0024319,101.769996643066
2.0180569,91.8399963378906
2.0336819,84.4300003051758
2.0493069,80.4899978637695
2.0649319,78.8899993896484
2.0805569,77.2799987792969
2.0961819,73.4400024414063
2.1118069,66.2600021362305
2.1274319,56.060001373291
2.1430569,44.3300018310547
2.1586819,32.7900009155273
2.1743069,22.5400009155273
2.1899319,13.8000001907349
2.2055569,6.17999982833862
2.2211819,-0.939999997615814
2.2368069,-8.27000045776367
2.2524319,-16.4200000762939
2.2680569,-25.7399997711182
2.2836819,-36.0499992370605
2.2993069,-46.5
2.3149319,-56.0
2.3305569,-63.7999992370605
2.3461819,-69.8600006103516
2.3618069,-74.629997253418
2.3774319,-78.4700012207031
2.3930569,-81.3899993896484
2.4086819,-83.3600006103516
2.4243069,-84.8199996948242
2.4399319,-86.4899978637695
2.4555569,-88.5699996948242
2.4711819,-90.5
2.4868069,-91.7300033569336
2.5024319,-92.2099990844727
2.5180569,-91.9000015258789
2.5336819,-90.0199966430664
2.5493069,-85.0699996948242
2.5649319,-76.0299987792969
2.5805569,-63.7299995422363
2.5961819,-50.8400001525879
2.6118069,-39.9099998474121
2.6274319,-31.2999992370605
2.6430569,-23.7900009155273
2.6586819,-16.7199993133545
2.6743069,-11.3299999237061
2.6899319,-9.98999977111816
2.7055569,-14.4300003051758
2.7211819,-24.2199993133545
2.7368069,-36.5900001525879
2.7524319,-47.560001373291
2.7680569,-53.7099990844727
2.7836819,-53.7999992370605
2.7993069,-49.810001373291
2.8149319,-45.8499984741211
2.8305569,-45.2999992370605
2.8461819,-48.5099983215332
2.8618069,-53.4000015258789
2.8774319,-57.7799987792969
2.8930569,-60.8300018310547
2.9086819,-63.2799987792969
2.9243069,-66.5699996948242
2.9399319,-71.4700012207031
2.9555569,-77.2200012207031
2.9711819,-81.8199996948242
2.9868069,-83.3300018310547
3.0024319,-80.8399963378906
3.0180569,-74.8000030517578
3.0336819,-66.8300018310547
3.0493069,-59.0099983215332
3.0649319,-53.1800003051758
3.0805569,-50.5999984741211
3.0961819,-52.3400001525879
3.1118069,-60.0400009155273
3.1274319,-76.5299987792969
3.1430569,-104.76000213623
3.1586819,-144.630004882813
3.1743069,-190.070007324219
3.1899319,-229.960006713867
3.2055569,-253.050003051758
3.2211819,-253.229995727539
3.2368069,-231.429992675781
3.2524319,-193.520004272461
3.2680569,-147.490005493164
3.2836819,-101.580001831055
3.2993069,-62.689998626709
3.3149319,-34.4199981689453
3.3305569,-16.4300003051758
3.3461819,-5.5
3.3618069,2.17000007629395
3.3774319,9.0
3.3930569,15.6000003814697
3.4086819,22.1100006103516
3.4243069,29.3600006103516
3.4399319,38.7700004577637
3.4555569,51.2799987792969
3.4711819,66.2900009155273
3.4868069,81.9599990844727
3.5024319,96.2300033569336
3.5180569,107.790000915527
3.5336819,116.440002441406
3.5493069,122.870002746582
3.5649319,128.179992675781
3.5805569,133.339996337891
3.5961819,138.740005493164
3.6118069,143.940002441406
3.6274319,147.910003662109
3.6430569,149.839996337891
3.6586819,149.770004272461
3.6743069,148.490005493164
3.6899319,147.059997558594
3.7055569,146.130004882813
3.7211819,145.509994506836
3.7368069,144.470001220703
3.7524319,142.330001831055
3.7680569,139.119995117188
3.7836819,135.660003662109
3.7993069,133.25
3.8149319,133.080001831055
3.8305569,135.789993286133
3.8461819,140.940002441406
3.8618069,147.110000610352
3.8774319,152.559997558594
3.8930569,155.899993896484
3.9086819,156.389999389648
3.9243069,154.179992675781
3.9399319,150.059997558594
3.9555569,144.929992675781
3.9711819,139.279998779297
3.9868069,133.179992675781
4.0024319,126.360000610352
4.0180569,118.309997558594
4.0336819,108.650001525879
4.0493069,97.3000030517578
4.0649319,84.7200012207031
4.0805569,72.1399993896484
4.0961819,61.2000007629395
4.1118069,53.0299987792969
4.1274319,47.5200004577637
4.1430569,43.3400001525879
4.1586819,38.8499984741211
4.1743069,33.0499992370605
4.1899319,26.0200004577637
4.2055569,18.6100006103516
4.2211819,11.7399997711182
4.2368069,5.92000007629395
4.2524319,1.22000002861023
4.2680569,-2.5
4.2836819,-5.25
4.2993069,-6.76999998092651
4.3149319,-6.78000020980835
4.3305569,-5.25
4.3461819,-2.83999991416931
4.3618069,-1.02999997138977
4.3774319,-1.33000004291534
4.3930569,-4.34000015258789
4.4086819,-9.64000034332275
4.4243069,-16.3299999237061
4.4399319,-23.3099994659424
4.4555569,-29.3799991607666
4.4711819,-33.3400001525879
4.4868069,-34.2299995422363
4.5024319,-31.7199993133545
4.5180569,-26.2199993133545
4.5336819,-18.5799999237061
4.5493069,-9.89000034332275
4.5649319,-1.24000000953674
4.5805569,6.25
4.5961819,11.6899995803833
4.6118069,14.5299997329712
4.6274319,14.6300001144409
4.6430569,12.3199996948242
4.6586819,8.0
4.6743069,1.64999997615814
4.6899319,-6.90000009536743
4.7055569,-17.3500003814697
4.7211819,-28.3700008392334
4.7368069,-38.0800018310547
4.7524319,-45.0200004577637
4.7680569,-48.9199981689453
4.7836819,-50.5200004577637
4.7993069,-50.4500007629395
4.8149319,-48.7099990844727
4.8305569,-44.9300003051758
4.8461819,-39.0499992370605
4.8618069,-31.4599990844727
4.8774319,-22.7900009155273
4.8930569,-13.4399995803833
4.9086819,-3.46000003814697
4.9243069,6.92000007629395
4.9399319,16.7900009155273
4.9555569,24.7199993133545
4.9711819,29.8099994659424
4.9868069,32.1500015258789
5.0024319,32.3800010681152
5.0180569,31.0
5.0336819,28.3600006103516
5.0493069,24.8700008392334
5.0649319,21.1100006103516
5.0805569,17.7099990844727
5.0961819,15.3599996566772
5.1118069,14.8800001144409
5.1274319,16.8700008392334
5.1430569,21.0200004577637
5.1586819,25.6700000762939
5.1743069,28.1100006103516
5.1899319,25.6399993896484
5.2055569,17.0699996948242
5.2211819,3.33999991416931
5.2368069,-13.2600002288818
5.2524319,-30.7800006866455
5.2680569,-48.5400009155273
5.2836819,-66.7699966430664
5.2993069,-85.6600036621094
5.3149319,-104.449996948242
5.3305569,-121.129997253418
5.3461819,-132.949996948242
5.3618069,-137.589996337891
5.3774319,-134.550003051758
5.3930569,-125.790000915527
5.4086819,-115.379997253418
5.4243069,-108.0
5.4399319,-106.790000915527
5.4555569,-111.839996337891
5.4711819,-120.800003051758
5.4868069,-131.039993286133
5.5024319,-141.130004882813
5.5180569,-150.910003662109
5.5336819,-160.5
5.5493069,-169.509994506836
5.5649319,-176.740005493164
5.5805569,-180.600006103516
5.5961819,-179.889999389648
5.6118069,-174.449996948242
5.6274319,-165.009994506836
5.6430569,-152.919998168945
5.6586819,-139.860000610352
5.6743069,-127.559997558594
5.6899319,-117.269996643066
5.7055569,-109.480003356934
5.7211819,-103.839996337891
5.7368069,-99.5199966430664
5.7524319,-95.25
5.7680569,-89.5299987792969
5.7836819,-80.7799987792969
5.7993069,-67.9800033569336
5.8149319,-51.2799987792969
5.8305569,-32.1500015258789
5.8461819,-12.8900003433228
5.8618069,4.32999992370605
5.8774319,18.0900001525879
5.8930569,27.7900009155273
5.9086819,33.4900016784668
5.9243069,35.689998626709
5.9399319,34.9799995422363
5.9555569,31.7099990844727
5.9711819,26.0799999237061
5.9868069,18.6100006103516
6.0024319,10.2700004577637
6.0180569,2.1800000667572
6.0336819,-4.69999980926514
6.0493069,-9.84000015258789
6.0649319,-13.2600002288818
6.0805569,-15.0799999237061
6.0961819,-15.0900001525879
6.1118069,-12.7799997329712
6.1274319,-7.84999990463257
6.1430569,-0.479999989271164
6.1586819,8.42000007629395
6.1743069,17.3099994659424
6.1899319,24.5100002288818
6.2055569,28.8099994659424
6.2211819,29.8400001525879
6.2368069,28.2299995422363
6.2524319,25.3999996185303
6.2680569,22.9300003051758
6.2836819,21.7900009155273
6.2993069,22.3899993896484
6.3149319,24.6399993896484
6.3305569,27.9200000762939
6.3461819,31.1200008392334
6.3618069,33.0099983215332
6.3774319,32.8300018310547
6.3930569,30.4799995422363
6.4086819,26.5100002288818
6.4243069,22.2600002288818
6.4399319,19.8299999237061
6.4555569,21.2399997711182
6.4711819,27.5
6.4868069,38.1300010681152
6.5024319,51.6300010681152
6.5180569,66.120002746582
6.5336819,79.8300018310547
6.5493069,91.3399963378906
6.5649319,99.5199966430664
6.5805569,103.639999389648
6.5961819,103.580001831055
6.6118069,99.8300018310547
6.6274319,93.0999984741211
6.6430569,83.9700012207031
6.6586819,73.2200012207031
6.6743069,62.0299987792969
6.6899319,51.6300010681152
6.7055569,42.7400016784668
6.7211819,35.5099983215332
6.7368069,29.8600006103516
6.7524319,25.7700004577637
6.7680569,23.2299995422363
6.7836819,21.9400005340576
6.7993069,21.25
6.8149319,20.3600006103516
6.8305569,18.6800003051758
6.8461819,16.3600006103516
6.8618069,14.3100004196167
6.8774319,13.6800003051758
6.8930569,15.1199998855591
6.9086819,18.2800006866455
6.9243069,21.8199996948242
6.9399319,24.1299991607666
6.9555569,24.4899997711182
6.9711819,23.3899993896484
6.9868069,21.9500007629395
7.0024319,21.0100002288818
7.0180569,20.9200000762939
7.0336819,21.7399997711182
7.0493069,23.2700004577637
7.0649319,25.2399997711182
7.0805569,27.6700000762939
7.0961819,31.1200008392334
7.1118069,36.3499984741211
7.1274319,43.6599998474121
7.1430569,52.5800018310547
7.1586819,62.1399993896484
7.1743069,71.2200012207031
7.1899319,78.8099975585938
7.2055569,84.25
7.2211819,87.3199996948242
7.2368069,88.2200012207031
7.2524319,87.2300033569336
7.2680569,84.2900009155273
7.2836819,78.8300018310547
7.2993069,70.2200012207031
7.3149319,58.5400009155273
7.3305569,44.8800010681152
7.3461819,30.8500003814697
7.3618069,17.9599990844727
7.3774319,7.3600001335144
7.3930569,-0.140000000596046
7.4086819,-4.32999992370605
7.4243069,-5.76999998092651
7.4399319,-5.55000019073486
7.4555569,-4.69999980926514
7.4711819,-4.0
7.4868069,-4.1100001335144
7.5024319,-5.48999977111816
7.5180569,-8.0600004196167
7.5336819,-11.1099996566772
7.5493069,-13.6400003433228
7.5649319,-14.8400001525879
7.5805569,-14.3699998855591
7.5961819,-12.3100004196167
7.6118069,-9.15999984741211
7.6274319,-5.73000001907349
7.6430569,-2.94000005722046
7.6586819,-1.4099999666214
7.6743069,-1.16999995708466
7.6899319,-1.83000004291534
7.7055569,-2.89000010490417
7.7211819,-3.78999996185303
7.7368069,-3.78999996185303
7.7524319,-1.87999999523163
7.7680569,2.86999988555908
7.7836819,10.789999961853
7.7993069,21.1299991607666
7.8149319,32.3300018310547
7.8305569,42.7099990844727
7.8461819,50.9799995422363
7.8618069,56.2900009155273
7.8774319,58.1100006103516
7.8930569,56.5699996948242
7.9086819,52.7099990844727
7.9243069,48.0200004577637
7.9399319,43.310001373291
7.9555569,38.0900001525879
7.9711819,31.1599998474121
7.9868069,21.6399993896484
8.0024319,9.76000022888184
8.0180569,-3.00999999046326
8.0336819,-14.4099998474121
8.0493069,-22.3899993896484
8.0649319,-26.3299999237061
8.0805569,-27.3600006103516
8.0961819,-27.5699996948242
8.1118069,-28.5699996948242
8.1274319,-30.4899997711182
8.1430569,-32.3300018310547
8.1586819,-33.2299995422363
8.1743069,-33.4500007629395
8.1899319,-34.0400009155273
8.2055569,-35.8400001525879
8.2211819,-38.7099990844727
8.2368069,-41.7900009155273
8.2524319,-44.2000007629395
8.2680569,-45.439998626709
8.2836819,-45.2799987792969
8.2993069,-43.6500015258789
8.3149319,-40.6399993896484
8.3305569,-36.5900001525879
8.3461819,-32.0200004577637
8.3618069,-27.7000007629395
8.3774319,-24.5200004577637
8.3930569,-23.0799999237061
8.4086819,-23.1000003814697
8.4243069,-23.2900009155273
8.4399319,-21.8299999237061
8.4555569,-17.2999992370605
8.4711819,-9.52000045776367
8.4868069,0.340000003576279
8.5024319,10.2299995422363
8.5180569,18.25
8.5336819,23.3400001525879
8.5493069,25.2999992370605
8.5649319,24.3799991607666
8.5805569,21.2800006866455
8.5961819,17.0599994659424
8.6118069,12.6499996185303
8.6274319,8.35000038146973
8.6430569,3.71000003814697
8.6586819,-1.94000005722046
8.6743069,-8.68000030517578
8.6899319,-15.6899995803833
8.7055569,-21.8500003814697
8.7211819,-26.5699996948242
8.7368069,-30.2399997711182
8.7524319,-33.7099990844727
8.7680569,-37.5699996948242
8.7836819,-41.5200004577637
8.7993069,-44.6199989318848
8.8149319,-46.0900001525879
8.8305569,-45.7999992370605
8.8461819,-44.4000015258789
8.8618069,-42.9099998474121
8.8774319,-42.2799987792969
8.8930569,-42.8800010681152
8.9086819,-44.2200012207031
8.9243069,-45.0999984741211
8.9399319,-44.2999992370605
8.9555569,-41.4300003051758
8.9711819,-37.2299995422363
8.9868069,-32.8400001525879
9.0024319,-28.9599990844727
9.0180569,-25.5699996948242
9.0336819,-22.4899997711182
9.0493069,-19.5200004577637
9.0649319,-16.3700008392334
9.0805569,-12.9200000762939
9.0961819,-9.39000034332275
9.1118069,-5.92999982833862
9.1274319,-2.26999998092651
9.1430569,2.05999994277954
9.1586819,7.23000001907349
9.1743069,12.8500003814697
9.1899319,18.2700004577637
9.2055569,22.9400005340576
9.2211819,26.5499992370605
9.2368069,28.9699993133545
9.2524319,30.1900005340576
9.2680569,30.3099994659424
9.2836819,29.3199996948242
9.2993069,27.1100006103516
9.3149319,23.4400005340576
9.3305569,18.2000007629395
9.3461819,11.5100002288818
9.3618069,3.88000011444092
9.3774319,-4.01999998092651
9.3930569,-11.6000003814697
9.4086819,-18.3099994659424
9.4243069,-23.6599998474121
9.4399319,-27.2700004577637
9.4555569,-29.0599994659424
9.4711819,-29.2900009155273
9.4868069,-28.5499992370605
9.5024319,-27.4899997711182
9.5180569,-26.5599994659424
9.5336819,-25.6900005340576
9.5493069,-24.5300006866455
9.5649319,-22.9799995422363
9.5805569,-21.4500007629395
9.5961819,-20.4899997711182
9.6118069,-20.2800006866455
9.6274319,-20.6299991607666
9.6430569,-21.3199996948242
9.6586819,-22.5
9.6743069,-24.4899997711182
9.6899319,-27.0400009155273
9.7055569,-28.9599990844727
9.7211819,-28.6100006103516
9.7368069,-25.1399993896484
9.7524319,-18.9599990844727
9.7680569,-11.25
9.7836819,-3.07999992370605
9.7993069,5.01000022888184
9.8149319,12.9200000762939
9.8305569,20.6100006103516
9.8461819,27.8899993896484
9.8618069,34.2999992370605
9.8774319,39.4000015258789
9.8930569,43.0800018310547
9.9086819,45.3400001525879
9.9243069,46.0499992370605
9.9399319,44.9799995422363
9.9555569,42.0499992370605
9.9711819,37.3800010681152
9.9868069,31.0499992370605
10.0024319,23.1000003814697
10.0180569,14.0
10.0336819,4.76000022888184
10.0493069,-3.52999997138977
10.0649319,-10.3999996185303
10.0805569,-15.789999961853
10.0961819,-19.75
10.1118069,-22.3400001525879
10.1274319,-23.7999992370605
10.1430569,-24.3199996948242
10.1586819,-23.9099998474121
10.1743069,-22.7199993133545
10.1899319,-21.2800006866455
10.2055569,-20.2399997711182
10.2211819,-20.0100002288818
10.2368069,-20.5
10.2524319,-21.4599990844727
10.2680569,-22.9300003051758
10.2836819,-25.1900005340576
10.2993069,-27.9899997711182
10.3149319,-30.2700004577637
10.3305569,-30.7399997711182
10.3461819,-28.9500007629395
10.3618069,-25.5100002288818
10.3774319,-21.5100002288818
10.3930569,-17.8500003814697
10.4086819,-14.9499998092651
10.4243069,-12.7399997711182
10.4399319,-10.7600002288818
10.4555569,-8.15999984741211
10.4711819,-3.85999989509583
10.4868069,3.16000008583069
10.5024319,13.5
10.5180569,26.75
10.5336819,41.4500007629395
10.5493069,55.7299995422363
10.5649319,68.120002746582
10.5805569,77.5199966430664
10.5961819,83.0
10.6118069,84.0
10.6274319,80.7200012207031
10.6430569,74.0
10.6586819,64.7300033569336
10.6743069,53.560001373291
10.6899319,41.0
10.7055569,27.7700004577637
10.7211819,14.8699998855591
10.7368069,3.27999997138977
10.7524319,-6.19999980926514
10.7680569,-13.1700000762939
10.7836819,-17.6599998474121
10.7993069,-20.1299991607666
10.8149319,-21.0599994659424
10.8305569,-20.8799991607666
10.8461819,-20.3700008392334
10.8618069,-20.6700000762939
10.8774319,-22.5900001525879
10.8930569,-25.9899997711182
10.9086819,-29.9400005340576
10.9243069,-33.439998626709
10.9399319,-35.8499984741211
10.9555569,-36.7599983215332
10.9711819,-35.7799987792969
10.9868069,-32.6699981689453
11.0024319,-27.7700004577637
11.0180569,-21.8600006103516
11.0336819,-15.6199998855591
11.0493069,-9.52000045776367
11.0649319,-4.03000020980835
11.0805569,0.340000003576279
11.0961819,3.13000011444092
11.1118069,3.91000008583069
11.1274319,2.89000010490417
11.1430569,1.44000005722046
11.1586819,1.77999997138977
11.1743069,5.6100001335144
11.1899319,13.1800003051758
11.2055569,23.4200000762939
11.2211819,34.310001373291
11.2368069,43.5699996948242
11.2524319,49.4500007629395
11.2680569,51.5099983215332
11.2836819,50.3600006103516
11.2993069,46.9900016784668
11.3149319,42.189998626709
11.3305569,36.25
11.3461819,28.9699993133545
11.3618069,20.0499992370605
11.3774319,9.84000015258789
11.3930569,-0.150000005960464
11.4086819,-7.73000001907349
11.4243069,-11.1899995803833
11.4399319,-10.3699998855591
11.4555569,-6.73000001907349
11.4711819,-2.51999998092651
11.4868069,0.170000001788139
11.5024319,0.330000013113022
11.5180569,-1.48000001907349
11.5336819,-3.4300000667572
11.5493069,-3.45000004768372
11.5649319,-0.579999983310699
11.5805569,4.48000001907349
11.5961819,10.0200004577637
11.6118069,14.4300003051758
11.6274319,16.9500007629395
11.6430569,17.3700008392334
11.6586819,15.4399995803833
11.6743069,10.7700004577637
11.6899319,3.26999998092651
11.7055569,-6.07999992370605
11.7211819,-15.3199996948242
