Time(s),Value(%)
1356.0134825,28.4799995422363
1356.0291075,21.5599994659424
1356.0447325,16.1000003814697
1356.0603575,12.0900001525879
1356.0759825,8.60000038146973
1356.0916075,4.55000019073486
1356.1072325,-0.540000021457672
1356.1228575,-6.51999998092651
1356.1384825,-12.9300003051758
1356.1541075,-19.2299995422363
1356.1697325,-24.6000003814697
1356.1853575,-28.1100006103516
1356.2009825,-29.4099998474121
1356.2166075,-29.0499992370605
1356.2322325,-28.1399993896484
1356.2478575,-27.7900009155273
1356.2634825,-28.3199996948242
1356.2791075,-28.5699996948242
1356.2947325,-26.2999992370605
1356.3103575,-20.1000003814697
1356.3259825,-10.6899995803833
1356.3416075,-0.670000016689301
1356.3572325,7.0
1356.3728575,10.4099998474121
1356.3884825,9.15999984741211
1356.4041075,4.07000017166138
1356.4197325,-3.35999989509583
1356.4353575,-11.960000038147
1356.4509825,-21.4500007629395
1356.4666075,-32.1699981689453
1356.4822325,-44.0499992370605
1356.4978575,-56.0
1356.5134825,-66.3399963378906
1356.5291075,-73.7600021362305
1356.5447325,-77.7900009155273
1356.5603575,-78.5699996948242
1356.5759825,-76.7399978637695
1356.5916075,-73.5500030517578
1356.6072325,-70.6999969482422
1356.6228575,-69.620002746582
1356.6384825,-70.5
1356.6541075,-72.2099990844727
1356.6697325,-73.3300018310547
1356.6853575,-73.7099990844727
1356.7009825,-74.4700012207031
1356.7166075,-76.6100006103516
1356.7322325,-79.7900009155273
1356.7478575,-82.6900024414063
1356.7634825,-84.1800003051758
1356.7791075,-84.0699996948242
1356.7947325,-83.1500015258789
1356.8103575,-82.5999984741211
1356.8259825,-83.0699996948242
1356.8416075,-83.9700012207031
1356.8572325,-83.7099990844727
1356.8728575,-80.7200012207031
1356.8884825,-74.370002746582
1356.9041075,-64.9800033569336
1356.9197325,-53.4900016784668
1356.9353575,-41.189998626709
1356.9509825,-29.7000007629395
1356.9666075,-20.8799991607666
1356.9822325,-16.4699993133545
1356.9978575,-17.3299999237061
1357.0134825,-22.75
1357.0291075,-30.5400009155273
1357.0447325,-38.2700004577637
1357.0603575,-44.7099990844727
1357.0759825,-50.3199996948242
1357.0916075,-56.310001373291
1357.1072325,-63.3600006103516
1357.1228575,-71.0100021362305
1357.1384825,-77.7300033569336
1357.1541075,-81.7699966430664
1357.1697325,-82.2799987792969
1357.1853575,-79.9499969482422
1357.2009825,-76.4499969482422
1357.2166075,-73.2699966430664
1357.2322325,-71.0899963378906
1357.2478575,-69.7699966430664
1357.2634825,-68.7099990844727
1357.2791075,-67.5100021362305
1357.2947325,-66.2200012207031
1357.3103575,-65.1399993896484
1357.3259825,-64.5100021362305
1357.3416075,-64.120002746582
1357.3572325,-63.3800010681152
1357.3728575,-61.9300003051758
1357.3884825,-59.9599990844727
1357.4041075,-58.060001373291
1357.4197325,-56.5999984741211
1357.4353575,-55.3699989318848
1357.4509825,-53.560001373291
1357.4666075,-50.0200004577637
1357.4822325,-43.5099983215332
1357.4978575,-33.3300018310547
1357.5134825,-19.8500003814697
1357.5291075,-4.67000007629395
1357.5447325,9.78999996185303
1357.5603575,21.1299991607666
1357.5759825,27.7000007629395
1357.5916075,29.0100002288818
1357.6072325,25.7700004577637
1357.6228575,19.6200008392334
1357.6384825,12.8900003433228
1357.6541075,7.57000017166138
1357.6697325,4.15000009536743
1357.6853575,1.29999995231628
1357.7009825,-3.0
1357.7166075,-9.65999984741211
1357.7322325,-17.1700000762939
1357.7478575,-22.4400005340576
1357.7634825,-23.0900001525879
1357.7791075,-19.1499996185303
1357.7947325,-12.9200000762939
1357.8103575,-7.40999984741211
1357.8259825,-4.8899998664856
1357.8416075,-5.90000009536743
1357.8572325,-9.0600004196167
1357.8728575,-11.8199996948242
1357.8884825,-12.1300001144409
1357.9041075,-9.94999980926514
1357.9197325,-7.30000019073486
1357.9353575,-6.71999979019165
1357.9509825,-9.14999961853027
1357.9666075,-13.2299995422363
1357.9822325,-16.4400005340576
1357.9978575,-17.0400009155273
1358.0134825,-15.3400001525879
1358.0291075,-12.9200000762939
1358.0447325,-10.7399997711182
1358.0603575,-7.8899998664856
1358.0759825,-2.34999990463257
1358.0916075,6.98999977111816
1358.1072325,19.2299995422363
1358.1228575,31.9899997711182
1358.1384825,43.1100006103516
1358.1541075,51.6500015258789
1358.1697325,57.5900001525879
1358.1853575,60.939998626709
1358.2009825,61.3899993896484
1358.2166075,58.5900001525879
1358.2322325,52.6800003051758
1358.2478575,44.3800010681152
1358.2634825,34.8300018310547
1358.2791075,25.2999992370605
1358.2947325,17.1000003814697
1358.3103575,11.4899997711182
1358.3259825,9.14000034332275
1358.3416075,9.59000015258789
1358.3572325,11.3000001907349
1358.3728575,12.6099996566772
1358.3884825,12.9200000762939
1358.4041075,12.8000001907349
1358.4197325,12.8599996566772
1358.4353575,12.9700002670288
1358.4509825,12.6499996185303
1358.4666075,11.7799997329712
1358.4822325,10.5799999237061
1358.4978575,8.94999980926514
1358.5134825,6.19999980926514
1358.5291075,2.13000011444092
1358.5447325,-2.23000001907349
1358.5603575,-5.26999998092651
1358.5759825,-6.17000007629395
1358.5916075,-5.42000007629395
1358.6072325,-3.89000010490417
1358.6228575,-2.07999992370605
1358.6384825,0.129999995231628
1358.6541075,3.25
1358.6697325,7.96000003814697
1358.6853575,15.2299995422363
1358.7009825,25.8299999237061
1358.7166075,39.3899993896484
1358.7322325,53.8199996948242
1358.7478575,65.9000015258789
1358.7634825,72.7799987792969
1358.7791075,73.5500030517578
1358.7947325,69.4100036621094
1358.8103575,62.5200004577637
1358.8259825,54.7400016784668
1358.8416075,46.9799995422363
1358.8572325,39.3499984741211
1358.8728575,31.6299991607666
1358.8884825,23.8500003814697
1358.9041075,16.4099998474121
1358.9197325,9.84000015258789
1358.9353575,4.28000020980835
1358.9509825,-0.439999997615814
1358.9666075,-4.21000003814697
1358.9822325,-6.19000005722046
1358.9978575,-5.59000015258789
1359.0134825,-2.5
1359.0291075,2.03999996185303
1359.0447325,6.73000001907349
1359.0603575,10.3999996185303
1359.0759825,12.1999998092651
1359.0916075,11.8100004196167
1359.1072325,9.64999961853027
1359.1228575,6.6100001335144
1359.1384825,3.34999990463257
1359.1541075,0.189999997615814
1359.1697325,-2.54999995231628
1359.1853575,-4.46999979019165
1359.2009825,-5.44999980926514
1359.2166075,-5.71999979019165
1359.2322325,-5.59999990463257
1359.2478575,-5.30000019073486
1359.2634825,-4.80000019073486
1359.2791075,-3.52999997138977
1359.2947325,0.0
1359.3103575,7.42000007629395
1359.3259825,19.0499992370605
1359.3416075,32.9500007629395
1359.3572325,45.8600006103516
1359.3728575,54.9000015258789
1359.3884825,58.8300018310547
1359.4041075,58.2400016784668
1359.4197325,54.9599990844727
1359.4353575,50.8600006103516
1359.4509825,46.6100006103516
1359.4666075,41.2900009155273
1359.4822325,33.5400009155273
1359.4978575,23.2800006866455
1359.5134825,12.210000038147
1359.5291075,2.52999997138977
1359.5447325,-4.44999980926514
1359.5603575,-8.35000038146973
1359.5759825,-9.22999954223633
1359.5916075,-8.10000038146973
1359.6072325,-7.42000007629395
1359.6228575,-9.93000030517578
1359.6384825,-16.1700000762939
1359.6541075,-23.0799999237061
1359.6697325,-25.75
1359.6853575,-21.2999992370605
1359.7009825,-11.8000001907349
1359.7166075,-3.26999998092651
1359.7322325,-0.660000026226044
1359.7478575,-3.39000010490417
1359.7634825,-5.82999992370605
1359.7791075,-2.19000005722046
1359.7947325,8.64000034332275
1359.8103575,21.9699993133545
1359.8259825,30.6599998474121
1359.8416075,30.2299995422363
1359.8572325,22.0100002288818
1359.8728575,12.2600002288818
1359.8884825,8.27000045776367
1359.9041075,13.7399997711182
1359.9197325,26.7999992370605
1359.9353575,41.8899993896484
1359.9509825,53.7700004577637
1359.9666075,59.689998626709
1359.9822325,58.8899993896484
1359.9978575,51.0900001525879
1360.0134825,36.9599990844727
1360.0291075,19.9899997711182
1360.0447325,6.09000015258789
1360.0603575,-0.170000001788139
1360.0759825,0.519999980926514
1360.0916075,3.26999998092651
1360.1072325,4.28000020980835
1360.1228575,4.8899998664856
1360.1384825,9.69999980926514
1360.1541075,20.8899993896484
1360.1697325,34.7900009155273
1360.1853575,44.1800003051758
1360.2009825,43.9099998474121
1360.2166075,34.5099983215332
1360.2322325,20.4799995422363
1360.2478575,6.42999982833862
1360.2634825,-4.57000017166138
1360.2791075,-10.7399997711182
1360.2947325,-12.1599998474121
1360.3103575,-11.5200004577637
1360.3259825,-12.9200000762939
1360.3416075,-18.8700008392334
1360.3572325,-28.3600006103516
1360.3728575,-37.6599998474121
1360.3884825,-43.1800003051758
1360.4041075,-44.1100006103516
1360.4197325,-42.560001373291
1360.4353575,-41.0699996948242
1360.4509825,-40.1800003051758
1360.4666075,-38.0
1360.4822325,-31.75
1360.4978575,-20.0900001525879
1360.5134825,-4.65000009536743
1360.5291075,10.6400003433228
1360.5447325,22.25
1360.5603575,29.3199996948242
1360.5759825,33.2900009155273
1360.5916075,35.6800003051758
1360.6072325,36.689998626709
1360.6228575,35.5400009155273
1360.6384825,31.7900009155273
1360.6541075,26.0300006866455
1360.6697325,19.4200000762939
1360.6853575,12.5699996948242
1360.7009825,5.09000015258789
1360.7166075,-3.61999988555908
1360.7322325,-12.9099998474121
1360.7478575,-20.3400001525879
1360.7634825,-23.2399997711182
1360.7791075,-21.0499992370605
1360.7947325,-16.2299995422363
1360.8103575,-13.0799999237061
1360.8259825,-15.210000038147
1360.8416075,-23.2399997711182
1360.8572325,-34.4300003051758
1360.8728575,-44.4199981689453
1360.8884825,-50.060001373291
1360.9041075,-50.9300003051758
1360.9197325,-49.0200004577637
1360.9353575,-47.0200004577637
1360.9509825,-46.560001373291
1360.9666075,-47.7599983215332
1360.9822325,-49.7400016784668
1360.9978575,-51.4099998474121
1361.0134825,-52.2099990844727
1361.0291075,-52.1800003051758
1361.0447325,-51.3800010681152
1361.0603575,-48.939998626709
1361.0759825,-42.6500015258789
1361.0916075,-30.0499992370605
1361.1072325,-10.6199998855591
1361.1228575,13.2399997711182
1361.1384825,37.5800018310547
1361.1541075,59.0299987792969
1361.1697325,75.5899963378906
1361.1853575,86.129997253418
1361.2009825,89.8099975585938
1361.2166075,86.5699996948242
1361.2322325,77.870002746582
1361.2478575,66.8600006103516
1361.2634825,57.3499984741211
1361.2791075,51.2999992370605
1361.2947325,46.6800003051758
1361.3103575,38.6199989318848
1361.3259825,23.2700004577637
1361.3416075,1.1599999666214
1361.3572325,-22.6599998474121
1361.3728575,-41.5499992370605
1361.3884825,-51.5200004577637
1361.4041075,-53.560001373291
1361.4197325,-51.5499992370605
1361.4353575,-48.4900016784668
1361.4509825,-45.6100006103516
1361.4666075,-43.8699989318848
1361.4822325,-44.8600006103516
1361.4978575,-49.2999992370605
1361.5134825,-55.3800010681152
1361.5291075,-59.4900016784668
1361.5447325,-59.3199996948242
1361.5603575,-55.7799987792969
1361.5759825,-51.439998626709
1361.5916075,-48.0099983215332
1361.6072325,-45.8300018310547
1361.6228575,-44.4599990844727
1361.6384825,-42.7000007629395
1361.6541075,-38.1500015258789
1361.6697325,-28.3500003814697
1361.6853575,-12.8900003433228
1361.7009825,5.5
1361.7166075,22.6000003814697
1361.7322325,35.5999984741211
1361.7478575,44.8699989318848
1361.7634825,52.5299987792969
1361.7791075,59.6199989318848
1361.7947325,64.879997253418
1361.8103575,65.7200012207031
1361.8259825,60.1599998474121
1361.8416075,48.5800018310547
1361.8572325,33.9799995422363
1361.8728575,20.25
1361.8884825,9.89000034332275
1361.9041075,2.86999988555908
1361.9197325,-2.91000008583069
1361.9353575,-9.96000003814697
1361.9509825,-19.9699993133545
1361.9666075,-33.1599998474121
1361.9822325,-47.9900016784668
1361.9978575,-61.8199996948242
1362.0134825,-72.25
1362.0291075,-78.25
1362.0447325,-80.2099990844727
1362.0603575,-79.3899993896484
1362.0759825,-77.4199981689453
1362.0916075,-75.870002746582
1362.1072325,-75.5599975585938
1362.1228575,-75.9700012207031
1362.1384825,-75.6100006103516
1362.1541075,-73.25
1362.1697325,-69.120002746582
1362.1853575,-65.2099990844727
1362.2009825,-63.8800010681152
1362.2166075,-65.8000030517578
1362.2322325,-68.7399978637695
1362.2478575,-68.379997253418
1362.2634825,-60.810001373291
1362.2791075,-45.0999984741211
1362.2947325,-23.9400005340576
1362.3103575,-1.89999997615814
1362.3259825,17.1900005340576
1362.3416075,31.8299999237061
1362.3572325,42.2799987792969
1362.3728575,48.9500007629395
1362.3884825,51.25
1362.4041075,48.1599998474121
1362.4197325,39.4599990844727
1362.4353575,26.3400001525879
1362.4509825,10.6899995803833
1362.4666075,-5.94000005722046
1362.4822325,-22.4899997711182
1362.4978575,-37.6500015258789
1362.5134825,-49.8499984741211
1362.5291075,-58.2400016784668
1362.5447325,-63.9900016784668
1362.5603575,-69.7099990844727
1362.5759825,-77.0299987792969
1362.5916075,-84.5500030517578
1362.6072325,-88.5599975585938
1362.6228575,-85.8099975585938
1362.6384825,-75.7699966430664
1362.6541075,-60.7999992370605
1362.6697325,-44.7099990844727
1362.6853575,-30.8500003814697
1362.7009825,-20.6000003814697
1362.7166075,-12.8299999237061
1362.7322325,-5.1100001335144
1362.7478575,4.03000020980835
1362.7634825,13.8500003814697
1362.7791075,22.3500003814697
1362.7947325,28.6599998474121
1362.8103575,34.5099983215332
1362.8259825,43.4000015258789
1362.8416075,58.4700012207031
1362.8572325,80.3600006103516
1362.8728575,106.569999694824
1362.8884825,132.970001220703
1362.9041075,155.630004882813
1362.9197325,171.490005493164
1362.9353575,178.320007324219
1362.9509825,175.009994506836
1362.9666075,162.550003051758
1362.9822325,144.119995117188
1362.9978575,123.849998474121
1363.0134825,104.870002746582
1363.0291075,88.1999969482422
1363.0447325,73.1500015258789
1363.0603575,58.8699989318848
1363.0759825,45.7999992370605
1363.0916075,35.7000007629395
1363.1072325,30.2600002288818
1363.1228575,29.9899997711182
1363.1384825,34.0900001525879
1363.1541075,40.8899993896484
1363.1697325,48.6100006103516
1363.1853575,55.6599998474121
1363.2009825,60.3400001525879
1363.2166075,61.0900001525879
1363.2322325,57.9300003051758
1363.2478575,54.0
1363.2634825,54.6500015258789
1363.2791075,63.5099983215332
1363.2947325,78.5500030517578
1363.3103575,92.4199981689453
1363.3259825,97.1100006103516
1363.3416075,88.9800033569336
1363.3572325,70.1900024414063
1363.3728575,46.8300018310547
1363.3884825,25.7399997711182
1363.4041075,11.8500003814697
1363.4197325,7.05000019073486
1363.4353575,10.5600004196167
1363.4509825,19.9699993133545
1363.4666075,32.1399993896484
1363.4822325,43.689998626709
1363.4978575,51.5
1363.5134825,53.4300003051758
1363.5291075,49.1500015258789
1363.5447325,40.4900016784668
1363.5603575,30.8199996948242
1363.5759825,23.4200000762939
1363.5916075,19.2399997711182
1363.6072325,15.8800001144409
1363.6228575,9.14000034332275
1363.6384825,-3.75999999046326
1363.6541075,-22.0499992370605
1363.6697325,-41.8199996948242
1363.6853575,-58.4700012207031
1363.7009825,-69.3199996948242
1363.7166075,-74.6600036621094
1363.7322325,-76.6999969482422
1363.7478575,-77.370002746582
1363.7634825,-77.1900024414063
1363.7791075,-76.1600036621094
1363.7947325,-75.2799987792969
1363.8103575,-76.5699996948242
1363.8259825,-81.2600021362305
1363.8416075,-88.4199981689453
1363.8572325,-95.5500030517578
1363.8728575,-100.360000610352
1363.8884825,-101.889999389648
1363.9041075,-100.459999084473
1363.9197325,-96.8499984741211
1363.9353575,-91.8600006103516
1363.9509825,-85.9899978637695
1363.9666075,-78.8399963378906
1363.9822325,-69.0
1363.9978575,-54.9199981689453
1364.0134825,-36.25
1364.0291075,-14.9099998474121
1364.0447325,4.98999977111816
1364.0603575,18.7999992370605
1364.0759825,23.7199993133545
1364.0916075,20.1599998474121
1364.1072325,10.9700002670288
1364.1228575,-0.349999994039536
1364.1384825,-11.0100002288818
1364.1541075,-19.3999996185303
1364.1697325,-25.7600002288818
1364.1853575,-32.2799987792969
1364.2009825,-41.6399993896484
1364.2166075,-54.4500007629395
1364.2322325,-67.5599975585938
1364.2478575,-75.7799987792969
1364.2634825,-75.7699966430664
1364.2791075,-68.7300033569336
1364.2947325,-59.4700012207031
1364.3103575,-53.0800018310547
1364.3259825,-51.5400009155273
1364.3416075,-52.7999992370605
1364.3572325,-52.8400001525879
1364.3728575,-49.0999984741211
1364.3884825,-42.5999984741211
1364.4041075,-37.0
1364.4197325,-35.689998626709
1364.4353575,-39.2799987792969
1364.4509825,-45.3600006103516
1364.4666075,-50.2299995422363
1364.4822325,-51.0800018310547
1364.4978575,-46.5299987792969
1364.5134825,-35.7599983215332
1364.5291075,-17.8899993896484
1364.5447325,7.13000011444092
1364.5603575,37.0800018310547
1364.5759825,67.0400009155273
1364.5916075,91.2099990844727
1364.6072325,105.769996643066
1364.6228575,110.529998779297
1364.6384825,108.389999389648
1364.6541075,103.400001525879
1364.6697325,98.8099975585938
1364.6853575,95.8399963378906
1364.7009825,93.4800033569336
1364.7166075,89.5400009155273
1364.7322325,82.1699981689453
1364.7478575,70.9499969482422
1364.7634825,57.1500015258789
1364.7791075,43.0800018310547
1364.7947325,30.8799991607666
1364.8103575,21.5300006866455
1364.8259825,14.7700004577637
1364.8416075,9.67000007629395
1364.8572325,5.30000019073486
1364.8728575,1.28999996185303
1364.8884825,-2.19000005722046
1364.9041075,-5.13000011444092
1364.9197325,-8.0
1364.9353575,-11.4399995803833
1364.9509825,-15.5299997329712
1364.9666075,-19.5799999237061
1364.9822325,-22.4899997711182
1364.9978575,-23.5499992370605
1365.0134825,-23.1399993896484
1365.0291075,-22.3600006103516
1365.0447325,-21.5900001525879
1365.0603575,-19.1100006103516
1365.0759825,-11.1599998474121
1365.0916075,5.76999998092651
1365.1072325,31.7099990844727
1365.1228575,61.8800010681152
1365.1384825,88.8600006103516
1365.1541075,106.540000915527
1365.1697325,112.790000915527
1365.1853575,109.25
1365.2009825,99.4599990844727
1365.2166075,86.9899978637695
1365.2322325,74.3499984741211
1365.2478575,62.5200004577637
1365.2634825,51.0
1365.2791075,38.4199981689453
1365.2947325,23.6900005340576
1365.3103575,7.21999979019165
1365.3259825,-8.94999980926514
1365.3416075,-22.3199996948242
1365.3572325,-31.0799999237061
1365.3728575,-34.7900009155273
1365.3884825,-34.560001373291
1365.4041075,-32.6500015258789
1365.4197325,-31.3899993896484
1365.4353575,-31.9300003051758
1365.4509825,-33.75
1365.4666075,-35.3600006103516
1365.4822325,-35.5800018310547
1365.4978575,-34.7700004577637
1365.5134825,-34.7400016784668
1365.5291075,-37.189998626709
1365.5447325,-42.1300010681152
1365.5603575,-48.0699996948242
1365.5759825,-53.1199989318848
1365.5916075,-55.6399993896484
1365.6072325,-53.9900016784668
1365.6228575,-46.3199996948242
1365.6384825,-30.8999996185303
1365.6541075,-7.57999992370605
1365.6697325,20.7700004577637
1365.6853575,48.5299987792969
1365.7009825,69.879997253418
1365.7166075,81.370002746582
1365.7322325,82.7200012207031
1365.7478575,75.9599990844727
1365.7634825,63.9700012207031
1365.7791075,49.6399993896484
1365.7947325,35.6100006103516
1365.8103575,23.7099990844727
1365.8259825,13.9899997711182
1365.8416075,4.69999980926514
1365.8572325,-6.19999980926514
1365.8728575,-19.2800006866455
1365.8884825,-32.9099998474121
1365.9041075,-44.25
1365.9197325,-51.0400009155273
1365.9353575,-52.9900016784668
1365.9509825,-51.9300003051758
1365.9666075,-50.4599990844727
1365.9822325,-50.2700004577637
1365.9978575,-51.5200004577637
1366.0134825,-53.4799995422363
1366.0291075,-55.5299987792969
1366.0447325,-57.4300003051758
1366.0603575,-58.9900016784668
1366.0759825,-59.9700012207031
1366.0916075,-60.2200012207031
1366.1072325,-59.9000015258789
1366.1228575,-59.2299995422363
1366.1384825,-58.1300010681152
1366.1541075,-56.1599998474121
1366.1697325,-52.4500007629395
1366.1853575,-45.1500015258789
1366.2009825,-31.4799995422363
1366.2166075,-9.39000034332275
1366.2322325,19.8600006103516
1366.2478575,50.8800010681152
1366.2634825,76.3099975585938
1366.2791075,90.8000030517578
1366.2947325,93.4899978637695
1366.3103575,87.3899993896484
1366.3259825,76.7799987792969
1366.3416075,64.8600006103516
1366.3572325,52.9000015258789
1366.3728575,40.7299995422363
1366.3884825,28.0
1366.4041075,14.8299999237061
