Time(s),Value(%)
1356.0134825,16.5599994659424
1356.0291075,17.0699996948242
1356.0447325,17.1700000762939
1356.0603575,16.9200000762939
1356.0759825,16.4300003051758
1356.0916075,15.8000001907349
1356.1072325,15.1300001144409
1356.1228575,14.3999996185303
1356.1384825,13.4700002670288
1356.1541075,12.1999998092651
1356.1697325,10.5799999237061
1356.1853575,8.46000003814697
1356.2009825,5.69999980926514
1356.2166075,2.16000008583069
1356.2322325,-2.0699999332428
1356.2478575,-6.6100001335144
1356.2634825,-10.9099998474121
1356.2791075,-14.5699996948242
1356.2947325,-17.6700000762939
1356.3103575,-20.4799995422363
1356.3259825,-23.0799999237061
1356.3416075,-25.2399997711182
1356.3572325,-26.7600002288818
1356.3728575,-27.6100006103516
1356.3884825,-28.0499992370605
1356.4041075,-28.5900001525879
1356.4197325,-29.9699993133545
1356.4353575,-32.75
1356.4509825,-36.9500007629395
1356.4666075,-41.8600006103516
1356.4822325,-46.3699989318848
1356.4978575,-49.5400009155273
1356.5134825,-50.939998626709
1356.5291075,-50.5
1356.5447325,-48.0299987792969
1356.5603575,-43.2400016784668
1356.5759825,-36.1199989318848
1356.5916075,-27.3099994659424
1356.6072325,-18.0400009155273
1356.6228575,-9.64999961853027
1356.6384825,-2.91000008583069
1356.6541075,2.17000007629395
1356.6697325,6.09999990463257
1356.6853575,9.30000019073486
1356.7009825,11.8500003814697
1356.7166075,13.5200004577637
1356.7322325,14.1800003051758
1356.7478575,13.9899997711182
1356.7634825,13.2700004577637
1356.7791075,12.3900003433228
1356.7947325,11.5799999237061
1356.8103575,10.9700002670288
1356.8259825,10.6000003814697
1356.8416075,10.4399995803833
1356.8572325,10.3699998855591
1356.8728575,10.2799997329712
1356.8884825,10.0799999237061
1356.9041075,9.77999973297119
1356.9197325,9.42000007629395
1356.9353575,9.03999996185303
1356.9509825,8.65999984741211
1356.9666075,8.18000030517578
1356.9822325,7.42000007629395
1356.9978575,6.21999979019165
1357.0134825,4.53000020980835
1357.0291075,2.50999999046326
1357.0447325,0.360000014305115
1357.0603575,-1.74000000953674
1357.0759825,-3.67000007629395
1357.0916075,-5.30999994277954
1357.1072325,-6.42999982833862
1357.1228575,-6.75
1357.1384825,-6.0
1357.1541075,-4.11999988555908
1357.1697325,-1.36000001430511
1357.1853575,1.96000003814697
1357.2009825,5.46000003814697
1357.2166075,8.86999988555908
1357.2322325,12.0500001907349
1357.2478575,14.8299999237061
1357.2634825,16.9400005340576
1357.2791075,18.1100006103516
1357.2947325,18.3299999237061
1357.3103575,17.7999992370605
1357.3259825,16.7999992370605
1357.3416075,15.5699996948242
1357.3572325,14.2700004577637
1357.3728575,12.9899997711182
1357.3884825,11.789999961853
1357.4041075,10.710000038147
1357.4197325,9.72000026702881
1357.4353575,8.80000019073486
1357.4509825,7.8899998664856
1357.4666075,7.0
1357.4822325,6.13000011444092
1357.4978575,5.28000020980835
1357.5134825,4.42000007629395
1357.5291075,3.47000002861023
1357.5447325,2.39000010490417
1357.5603575,1.16999995708466
1357.5759825,-0.209999993443489
1357.5916075,-1.76999998092651
1357.6072325,-3.5
1357.6228575,-5.3600001335144
1357.6384825,-7.26999998092651
1357.6541075,-9.14999961853027
1357.6697325,-10.8999996185303
1357.6853575,-12.2399997711182
1357.7009825,-12.6700000762939
1357.7166075,-11.7399997711182
1357.7322325,-9.36999988555908
1357.7478575,-5.82000017166138
1357.7634825,-1.37000000476837
1357.7791075,3.76999998092651
1357.7947325,9.31999969482422
1357.8103575,14.710000038147
1357.8259825,19.1599998474121
1357.8416075,22.1000003814697
1357.8572325,23.5599994659424
1357.8728575,23.9400005340576
1357.8884825,23.5799999237061
1357.9041075,22.5499992370605
1357.9197325,20.8500003814697
1357.9353575,18.6299991607666
1357.9509825,16.0900001525879
1357.9666075,13.4300003051758
1357.9822325,10.7200002670288
1357.9978575,7.92000007629395
1358.0134825,5.0
1358.0291075,2.0
1358.0447325,-0.949999988079071
1358.0603575,-3.75999999046326
1358.0759825,-6.34999990463257
1358.0916075,-8.78999996185303
1358.1072325,-11.2399997711182
1358.1228575,-13.8800001144409
1358.1384825,-16.7999992370605
1358.1541075,-19.9699993133545
1358.1697325,-23.5100002288818
1358.1853575,-27.1200008392334
1358.2009825,-30.6599998474121
1358.2166075,-34.0499992370605
1358.2322325,-37.2299995422363
1358.2478575,-40.0499992370605
1358.2634825,-42.2400016784668
1358.2791075,-43.560001373291
1358.2947325,-43.9799995422363
1358.3103575,-43.7400016784668
1358.3259825,-43.189998626709
1358.3416075,-42.6599998474121
1358.3572325,-42.25
1358.3728575,-41.7700004577637
1358.3884825,-40.7000007629395
1358.4041075,-38.5299987792969
1358.4197325,-35.1399993896484
1358.4353575,-30.8199996948242
1358.4509825,-25.9899997711182
1358.4666075,-21.0100002288818
1358.4822325,-16.2099990844727
1358.4978575,-12.0900001525879
1358.5134825,-9.39999961853027
1358.5291075,-8.72000026702881
1358.5447325,-10.0
1358.5603575,-12.5799999237061
1358.5759825,-15.6999998092651
1358.5916075,-18.7600002288818
1358.6072325,-21.4599990844727
1358.6228575,-23.6900005340576
1358.6384825,-25.5400009155273
1358.6541075,-27.2199993133545
1358.6697325,-28.9799995422363
1358.6853575,-31.0400009155273
1358.7009825,-33.4599990844727
1358.7166075,-36.1800003051758
1358.7322325,-39.0900001525879
1358.7478575,-42.0999984741211
1358.7634825,-45.1100006103516
1358.7791075,-48.0200004577637
1358.7947325,-50.75
1358.8103575,-53.2599983215332
1358.8259825,-55.5299987792969
1358.8416075,-57.5999984741211
1358.8572325,-59.4099998474121
1358.8728575,-60.5999984741211
1358.8884825,-60.4199981689453
1358.9041075,-58.1699981689453
1358.9197325,-53.7999992370605
1358.9353575,-47.9199981689453
1358.9509825,-41.4099998474121
1358.9666075,-34.7599983215332
1358.9822325,-27.8400001525879
1358.9978575,-20.4899997711182
1359.0134825,-13.210000038147
1359.0291075,-7.0
1359.0447325,-2.60999989509583
1359.0603575,-0.0599999986588955
1359.0759825,1.20000004768372
1359.0916075,1.86000001430511
1359.1072325,2.28999996185303
1359.1228575,2.54999995231628
1359.1384825,2.5699999332428
1359.1541075,2.46000003814697
1359.1697325,2.55999994277954
1359.1853575,3.26999998092651
1359.2009825,4.67999982833862
1359.2166075,6.3899998664856
1359.2322325,7.59000015258789
1359.2478575,7.61999988555908
1359.2634825,6.34000015258789
1359.2791075,4.1100001335144
1359.2947325,1.29999995231628
1359.3103575,-1.85000002384186
1359.3259825,-5.23000001907349
1359.3416075,-8.72999954223633
1359.3572325,-12.1999998092651
1359.3728575,-15.5500001907349
1359.3884825,-18.7299995422363
1359.4041075,-21.75
1359.4197325,-24.6100006103516
1359.4353575,-27.0499992370605
1359.4509825,-28.5699996948242
1359.4666075,-28.7000007629395
1359.4822325,-27.3799991607666
1359.4978575,-25.0799999237061
1359.5134825,-22.3799991607666
1359.5291075,-19.3500003814697
1359.5447325,-15.1800003051758
1359.5603575,-9.01000022888184
1359.5759825,-0.879999995231628
1359.5916075,8.34000015258789
1359.6072325,17.8600006103516
1359.6228575,27.3799991607666
1359.6384825,36.7599983215332
1359.6541075,45.3499984741211
1359.6697325,51.8800010681152
1359.6853575,55.1500015258789
1359.7009825,55.0499992370605
1359.7166075,52.4000015258789
1359.7322325,48.1300010681152
1359.7478575,42.8899993896484
1359.7634825,37.0499992370605
1359.7791075,30.9099998474121
1359.7947325,24.7600002288818
1359.8103575,18.7999992370605
1359.8259825,13.0900001525879
1359.8416075,7.6100001335144
1359.8572325,2.27999997138977
1359.8728575,-2.91000008583069
1359.8884825,-7.98000001907349
1359.9041075,-12.9200000762939
1359.9197325,-17.7199993133545
1359.9353575,-22.3899993896484
1359.9509825,-27.0499992370605
1359.9666075,-31.8400001525879
1359.9822325,-36.8300018310547
1359.9978575,-41.9300003051758
1360.0134825,-46.9000015258789
1360.0291075,-51.5
1360.0447325,-55.5699996948242
1360.0603575,-59.0999984741211
1360.0759825,-62.0800018310547
1360.0916075,-64.1699981689453
1360.1072325,-64.5999984741211
1360.1228575,-62.5900001525879
1360.1384825,-58.0099983215332
1360.1541075,-51.2799987792969
1360.1697325,-42.939998626709
1360.1853575,-33.4000015258789
1360.2009825,-23.1900005340576
1360.2166075,-13.2600002288818
1360.2322325,-4.94000005722046
1360.2478575,0.709999978542328
1360.2634825,3.52999997138977
1360.2791075,4.05000019073486
1360.2947325,2.85999989509583
1360.3103575,0.360000014305115
1360.3259825,-3.08999991416931
1360.3416075,-7.09999990463257
1360.3572325,-11.2399997711182
1360.3728575,-15.3100004196167
1360.3884825,-19.4500007629395
1360.4041075,-23.9300003051758
1360.4197325,-28.9099998474121
1360.4353575,-34.4300003051758
1360.4509825,-40.5499992370605
1360.4666075,-47.2799987792969
1360.4822325,-54.4599990844727
1360.4978575,-61.6199989318848
1360.5134825,-68.2099990844727
1360.5291075,-74.0
1360.5447325,-79.3899993896484
1360.5603575,-84.9100036621094
1360.5759825,-90.629997253418
1360.5916075,-96.0299987792969
1360.6072325,-100.519996643066
1360.6228575,-103.819999694824
1360.6384825,-105.959999084473
1360.6541075,-106.910003662109
1360.6697325,-106.319999694824
1360.6853575,-103.73999786377
1360.7009825,-99.0899963378906
1360.7166075,-92.5999984741211
1360.7322325,-84.4599990844727
1360.7478575,-74.8199996948242
1360.7634825,-64.0400009155273
1360.7791075,-52.75
1360.7947325,-41.7000007629395
1360.8103575,-31.3999996185303
1360.8259825,-21.9099998474121
1360.8416075,-13.210000038147
1360.8572325,-5.59999990463257
1360.8728575,0.439999997615814
1360.8884825,4.73999977111816
1360.9041075,7.61999988555908
1360.9197325,9.64000034332275
1360.9353575,11.0900001525879
1360.9509825,11.6899995803833
1360.9666075,10.9300003051758
1360.9822325,8.60999965667725
1360.9978575,4.96999979019165
1361.0134825,0.419999986886978
1361.0291075,-4.6100001335144
1361.0447325,-9.72999954223633
1361.0603575,-14.4099998474121
1361.0759825,-18.0599994659424
1361.0916075,-20.4500007629395
1361.1072325,-22.0
1361.1228575,-23.4300003051758
1361.1384825,-25.1200008392334
1361.1541075,-26.8899993896484
1361.1697325,-28.3299999237061
1361.1853575,-29.1399993896484
1361.2009825,-29.3400001525879
1361.2166075,-29.3199996948242
1361.2322325,-29.7999992370605
1361.2478575,-31.3799991607666
1361.2634825,-34.2099990844727
1361.2791075,-38.1399993896484
1361.2947325,-43.0099983215332
1361.3103575,-48.7000007629395
1361.3259825,-54.8899993896484
1361.3416075,-60.6500015258789
1361.3572325,-64.6699981689453
1361.3728575,-66.370002746582
1361.3884825,-66.8499984741211
1361.4041075,-67.9800033569336
1361.4197325,-70.7799987792969
1361.4353575,-74.8099975585938
1361.4509825,-78.8600006103516
1361.4666075,-81.8600006103516
1361.4822325,-83.4599990844727
1361.4978575,-84.1600036621094
1361.5134825,-85.0400009155273
1361.5291075,-87.120002746582
1361.5447325,-90.6900024414063
1361.5603575,-95.4199981689453
1361.5759825,-100.699996948242
1361.5916075,-106.0
1361.6072325,-110.75
1361.6228575,-113.709999084473
1361.6384825,-112.809997558594
1361.6541075,-106.370002746582
1361.6697325,-94.5500030517578
1361.6853575,-79.2900009155273
1361.7009825,-62.9599990844727
1361.7166075,-47.25
1361.7322325,-32.810001373291
1361.7478575,-19.5300006866455
1361.7634825,-7.09000015258789
1361.7791075,4.34000015258789
1361.7947325,13.8900003433228
1361.8103575,20.5499992370605
1361.8259825,24.1100006103516
1361.8416075,25.3199996948242
1361.8572325,25.4899997711182
1361.8728575,25.7600002288818
1361.8884825,26.9099998474121
1361.9041075,29.7000007629395
1361.9197325,35.2200012207031
1361.9353575,44.1599998474121
1361.9509825,56.060001373291
1361.9666075,69.2900009155273
1361.9822325,81.9800033569336
1361.9978575,92.4300003051758
1362.0134825,99.2900009155273
1362.0291075,101.919998168945
1362.0447325,100.879997253418
1362.0603575,97.7900009155273
1362.0759825,94.5500030517578
1362.0916075,91.9700012207031
1362.1072325,89.1999969482422
1362.1228575,85.0
1362.1384825,79.5
1362.1541075,74.2200012207031
1362.1697325,70.6600036621094
1362.1853575,69.5800018310547
1362.2009825,70.4199981689453
1362.2166075,71.8300018310547
1362.2322325,72.1600036621094
1362.2478575,70.3099975585938
1362.2634825,66.0400009155273
1362.2791075,59.4700012207031
1362.2947325,50.3699989318848
1362.3103575,38.4000015258789
1362.3259825,24.0599994659424
1362.3416075,9.5600004196167
1362.3572325,-1.5900000333786
1362.3728575,-6.84999990463257
1362.3884825,-6.46000003814697
1362.4041075,-2.66000008583069
1362.4197325,2.69000005722046
1362.4353575,9.14999961853027
1362.4509825,16.8899993896484
1362.4666075,25.9599990844727
1362.4822325,35.9700012207031
1362.4978575,46.6300010681152
1362.5134825,58.0999984741211
1362.5291075,70.7600021362305
1362.5447325,84.6399993896484
1362.5603575,99.0800018310547
1362.5759825,112.98999786377
1362.5916075,125.360000610352
1362.6072325,135.830001831055
1362.6228575,144.800003051758
1362.6384825,153.210006713867
1362.6541075,161.800003051758
1362.6697325,170.559997558594
1362.6853575,179.020004272461
1362.7009825,186.809997558594
1362.7166075,193.929992675781
1362.7322325,200.589996337891
1362.7478575,206.960006713867
1362.7634825,213.050003051758
1362.7791075,218.850006103516
1362.7947325,224.429992675781
1362.8103575,229.889999389648
1362.8259825,235.270004272461
1362.8416075,240.600006103516
1362.8572325,246.0
1362.8728575,251.580001831055
1362.8884825,257.309997558594
1362.9041075,263.019989013672
1362.9197325,268.579986572266
1362.9353575,274.059997558594
1362.9509825,279.739990234375
1362.9666075,285.670013427734
1362.9822325,291.459991455078
1362.9978575,296.380004882813
1363.0134825,299.869995117188
1363.0291075,301.809997558594
1363.0447325,302.510009765625
1363.0603575,302.630004882813
1363.0759825,303.049987792969
1363.0916075,304.410003662109
1363.1072325,306.570007324219
1363.1228575,307.980010986328
1363.1384825,305.929992675781
1363.1541075,298.0
1363.1697325,281.470001220703
1363.1853575,260.220001220703
1363.2009825,236.080001831055
1363.2166075,210.179992675781
1363.2322325,182.990005493164
1363.2478575,155.539993286133
1363.2634825,130.119995117188
1363.2791075,109.389999389648
1363.2947325,94.5199966430664
1363.3103575,84.6399993896484
1363.3259825,77.75
1363.3416075,72.3600006103516
1363.3572325,68.4800033569336
1363.3728575,67.0199966430664
1363.3884825,68.620002746582
1363.4041075,73.4499969482422
1363.4197325,81.6800003051758
1363.4353575,93.2799987792969
1363.4509825,107.5
1363.4666075,122.599998474121
1363.4822325,136.339996337891
1363.4978575,146.809997558594
1363.5134825,152.869995117188
1363.5291075,153.949996948242
1363.5447325,149.720001220703
1363.5603575,140.270004272461
1363.5759825,126.629997253418
1363.5916075,110.639999389648
1363.6072325,94.0500030517578
1363.6228575,77.4100036621094
1363.6384825,59.7000007629395
1363.6541075,39.3699989318848
1363.6697325,15.6199998855591
1363.6853575,-11.7600002288818
1363.7009825,-43.2099990844727
1363.7166075,-79.0199966430664
1363.7322325,-118.230003356934
1363.7478575,-157.800003051758
1363.7634825,-193.619995117188
1363.7791075,-223.350006103516
1363.7947325,-248.429992675781
1363.8103575,-272.019989013672
1363.8259825,-295.339996337891
1363.8416075,-316.929992675781
1363.8572325,-327.679992675781
1363.8728575,-327.679992675781
1363.8884825,-327.679992675781
1363.9041075,-327.679992675781
1363.9197325,-327.679992675781
1363.9353575,-327.679992675781
1363.9509825,-327.679992675781
1363.9666075,-327.679992675781
1363.9822325,-327.679992675781
1363.9978575,-327.679992675781
1364.0134825,-327.679992675781
1364.0291075,-327.679992675781
1364.0447325,-327.679992675781
1364.0603575,-327.679992675781
1364.0759825,-327.679992675781
1364.0916075,-327.679992675781
1364.1072325,-327.679992675781
1364.1228575,-327.679992675781
1364.1384825,-327.679992675781
1364.1541075,-327.679992675781
1364.1697325,-327.679992675781
1364.1853575,-327.679992675781
1364.2009825,-327.679992675781
1364.2166075,-327.679992675781
1364.2322325,-327.679992675781
1364.2478575,-314.890014648438
1364.2634825,-300.790008544922
1364.2791075,-289.200012207031
1364.2947325,-279.720001220703
1364.3103575,-270.640014648438
1364.3259825,-259.220001220703
1364.3416075,-243.369995117188
1364.3572325,-223.240005493164
1364.3728575,-200.729995727539
1364.3884825,-177.770004272461
1364.4041075,-155.389999389648
1364.4197325,-133.820007324219
1364.4353575,-113.0
1364.4509825,-92.870002746582
1364.4666075,-73.3000030517578
1364.4822325,-53.9900016784668
1364.4978575,-34.6800003051758
1364.5134825,-15.3100004196167
1364.5291075,3.95000004768372
1364.5447325,22.9699993133545
1364.5603575,41.6699981689453
1364.5759825,59.9099998474121
1364.5916075,77.5699996948242
1364.6072325,94.6699981689453
1364.6228575,111.660003662109
1364.6384825,129.380004882813
1364.6541075,148.389999389648
1364.6697325,168.389999389648
1364.6853575,188.440002441406
1364.7009825,207.820007324219
1364.7166075,226.279998779297
1364.7322325,243.720001220703
1364.7478575,259.679992675781
1364.7634825,273.170013427734
1364.7791075,283.390014648438
1364.7947325,290.470001220703
1364.8103575,295.25
1364.8259825,298.510009765625
1364.8416075,300.559997558594
1364.8572325,301.459991455078
1364.8728575,301.290008544922
1364.8884825,300.25
1364.9041075,298.579986572266
1364.9197325,296.510009765625
1364.9353575,294.179992675781
1364.9509825,291.670013427734
1364.9666075,289.160003662109
1364.9822325,287.100006103516
1364.9978575,285.890014648438
1365.0134825,285.529998779297
1365.0291075,285.440002441406
1365.0447325,284.75
1365.0603575,283.25
1365.0759825,281.910003662109
1365.0916075,281.980010986328
1365.1072325,283.790008544922
1365.1228575,286.380004882813
1365.1384825,288.380004882813
1365.1541075,288.850006103516
1365.1697325,288.220001220703
1365.1853575,285.769989013672
1365.2009825,281.450012207031
1365.2166075,275.140014648438
1365.2322325,267.059997558594
1365.2478575,258.100006103516
1365.2634825,249.720001220703
1365.2791075,243.229995727539
1365.2947325,238.949996948242
1365.3103575,235.889999389648
1365.3259825,232.309997558594
1365.3416075,227.080001831055
1365.3572325,220.539993286133
1365.3728575,213.779998779297
1365.3884825,207.289993286133
1365.4041075,200.559997558594
1365.4197325,192.800003051758
1365.4353575,183.630004882813
1365.4509825,173.309997558594
1365.4666075,162.589996337891
1365.4822325,152.380004882813
1365.4978575,143.369995117188
1365.5134825,135.729995727539
1365.5291075,129.440002441406
1365.5447325,124.690002441406
1365.5603575,121.720001220703
1365.5759825,120.23999786377
1365.5916075,118.879997253418
1365.6072325,115.449996948242
1365.6228575,108.330001831055
1365.6384825,97.75
1365.6541075,85.2399978637695
1365.6697325,72.0899963378906
1365.6853575,58.6599998474121
1365.7009825,44.8199996948242
1365.7166075,30.4400005340576
1365.7322325,15.7399997711182
1365.7478575,1.33000004291534
1365.7634825,-11.9799995422363
1365.7791075,-23.5499992370605
1365.7947325,-33.1599998474121
1365.8103575,-40.5900001525879
1365.8259825,-45.1800003051758
1365.8416075,-46.2700004577637
1365.8572325,-44.1699981689453
1365.8728575,-40.6500015258789
1365.8884825,-38.3899993896484
1365.9041075,-39.1300010681152
1365.9197325,-42.2700004577637
1365.9353575,-46.0699996948242
1365.9509825,-49.7700004577637
1365.9666075,-54.060001373291
1365.9822325,-60.0099983215332
1365.9978575,-68.0100021362305
1366.0134825,-77.629997253418
1366.0291075,-88.1600036621094
1366.0447325,-99.25
1366.0603575,-110.940002441406
1366.0759825,-123.169998168945
1366.0916075,-135.460006713867
1366.1072325,-146.839996337891
1366.1228575,-156.419998168945
1366.1384825,-163.970001220703
1366.1541075,-170.399993896484
1366.1697325,-179.410003662109
1366.1853575,-190.330001831055
1366.2009825,-203.160003662109
1366.2166075,-216.889999389648
1366.2322325,-230.539993286133
1366.2478575,-243.809997558594
1366.2634825,-256.820007324219
1366.2791075,-269.690002441406
1366.2947325,-282.329986572266
1366.3103575,-294.350006103516
1366.3259825,-305.140014648438
1366.3416075,-314.230010986328
1366.3572325,-321.359985351563
1366.3728575,-326.070007324219
1366.3884825,-327.299987792969
1366.4041075,-324.019989013672
1366.4197325,-316.390014648438
1366.4353575,-306.260009765625
