Time(s),Value(%)
1443.0047644,-25.0799999237061
1443.0203894,-25.25
1443.0360144,-27.0799999237061
1443.0516394,-29.8999996185303
1443.0672644,-32.5999984741211
1443.0828894,-33.8499984741211
1443.0985144,-32.3600006103516
1443.1141394,-27.2099990844727
1443.1297644,-18.1800003051758
1443.1453894,-6.01000022888184
1443.1610144,7.67999982833862
1443.1766394,20.7199993133545
1443.1922644,30.9799995422363
1443.2078894,37.1500015258789
1443.2235144,39.25
1443.2391394,38.4199981689453
1443.2547644,36.3899993896484
1443.2703894,34.7400016784668
1443.2860144,34.1500015258789
1443.3016394,33.9799995422363
1443.3172644,32.7700004577637
1443.3328894,29.2700004577637
1443.3485144,23.1700000762939
1443.3641394,15.289999961853
1443.3797644,7.17999982833862
1443.3953894,0.280000001192093
1443.4110144,-4.82000017166138
1443.4266394,-8.4399995803833
1443.4422644,-11.2700004577637
1443.4578894,-14.0600004196167
1443.4735144,-17.4699993133545
1443.4891394,-21.7900009155273
1443.5047644,-26.6100006103516
1443.5203894,-30.9699993133545
1443.5360144,-34.0
1443.5516394,-35.2799987792969
1443.5672644,-35.0800018310547
1443.5828894,-34.2099990844727
1443.5985144,-33.689998626709
1443.6141394,-34.2299995422363
1443.6297644,-35.9300003051758
1443.6453894,-38.1300010681152
1443.6610144,-39.6599998474121
1443.6766394,-39.4500007629395
1443.6922644,-37.189998626709
1443.7078894,-33.3600006103516
1443.7235144,-28.6700000762939
1443.7391394,-23.4200000762939
1443.7547644,-17.1100006103516
1443.7703894,-8.77000045776367
1443.7860144,2.03999996185303
1443.8016394,14.5
1443.8172644,26.8400001525879
1443.8328894,37.4900016784668
1443.8485144,45.6300010681152
1443.8641394,50.9700012207031
1443.8797644,53.6199989318848
1443.8953894,53.9799995422363
1443.9110144,52.439998626709
1443.9266394,48.9799995422363
1443.9422644,43.3699989318848
1443.9578894,35.6599998474121
1443.9735144,26.4099998474121
1443.9891394,16.5200004577637
1444.0047644,6.90000009536743
1444.0203894,-1.63999998569489
1444.0360144,-8.51000022888184
1444.0516394,-13.5200004577637
1444.0672644,-16.9300003051758
1444.0828894,-19.1100006103516
1444.0985144,-20.5300006866455
1444.1141394,-21.8199996948242
1444.1297644,-23.8400001525879
1444.1453894,-27.1700000762939
1444.1610144,-31.6800003051758
1444.1766394,-36.5400009155273
1444.1922644,-40.7299995422363
1444.2078894,-43.5400009155273
1444.2235144,-44.8199996948242
1444.2391394,-44.810001373291
1444.2547644,-43.8199996948242
1444.2703894,-42.1199989318848
1444.2860144,-39.9599990844727
1444.3016394,-37.6199989318848
1444.3172644,-35.2999992370605
1444.3328894,-33.0400009155273
1444.3485144,-30.4500007629395
1444.3641394,-26.5699996948242
1444.3797644,-20.0400009155273
1444.3953894,-9.73999977111816
1444.4110144,4.28999996185303
1444.4266394,20.2900009155273
1444.4422644,35.4000015258789
1444.4578894,47.0299987792969
1444.4735144,54.0299987792969
1444.4891394,56.8300018310547
1444.5047644,56.75
1444.5203894,55.2599983215332
1444.5360144,53.3600006103516
1444.5516394,51.1500015258789
1444.5672644,47.7299995422363
1444.5828894,42.0200004577637
1444.5985144,33.9099998474121
1444.6141394,24.5900001525879
1444.6297644,15.8100004196167
1444.6453894,8.65999984741211
1444.6610144,3.23000001907349
1444.6766394,-0.959999978542328
1444.6922644,-4.44000005722046
1444.7078894,-7.61999988555908
1444.7235144,-10.9799995422363
1444.7391394,-14.8599996566772
1444.7547644,-19.2199993133545
1444.7703894,-23.5499992370605
1444.7860144,-27.1599998474121
1444.8016394,-29.5300006866455
1444.8172644,-30.3799991607666
1444.8328894,-29.8400001525879
1444.8485144,-28.4599990844727
1444.8641394,-26.9699993133545
1444.8797644,-25.9200000762939
1444.8953894,-25.4899997711182
1444.9110144,-25.6299991607666
1444.9266394,-26.2900009155273
1444.9422644,-27.2900009155273
1444.9578894,-27.7999992370605
1444.9735144,-26.1200008392334
1444.9891394,-20.4500007629395
1445.0047644,-10.1199998855591
1445.0203894,3.70000004768372
1445.0360144,18.6800003051758
1445.0516394,32.2400016784668
1445.0672644,42.5099983215332
1445.0828894,48.7400016784668
1445.0985144,51.3499984741211
1445.1141394,51.25
1445.1297644,49.4599990844727
1445.1453894,46.8899993896484
1445.1610144,44.0699996948242
1445.1766394,40.75
1445.1922644,36.1100006103516
1445.2078894,29.5
1445.2235144,21.0699996948242
1445.2391394,11.7799997329712
1445.2547644,2.88000011444092
1445.2703894,-4.53999996185303
1445.2860144,-9.96000003814697
1445.3016394,-13.5100002288818
1445.3172644,-15.6499996185303
1445.3328894,-16.8700008392334
1445.3485144,-17.5400009155273
1445.3641394,-17.9699993133545
1445.3797644,-18.3299999237061
1445.3953894,-18.6700000762939
1445.4110144,-19.0900001525879
1445.4266394,-20.0
1445.4422644,-22.0799999237061
1445.4578894,-25.6700000762939
1445.4735144,-30.2000007629395
1445.4891394,-34.4199981689453
1445.5047644,-37.2599983215332
1445.5203894,-38.4300003051758
1445.5360144,-38.1500015258789
1445.5516394,-36.4099998474121
1445.5672644,-32.7299995422363
1445.5828894,-26.2099990844727
1445.5985144,-15.8800001144409
1445.6141394,-1.67999994754791
1445.6297644,14.9200000762939
1445.6453894,31.4099998474121
1445.6610144,45.1699981689453
1445.6766394,54.5499992370605
1445.6922644,59.2999992370605
1445.7078894,60.3899993896484
1445.7235144,59.2400016784668
1445.7391394,57.0099983215332
1445.7547644,54.2099990844727
1445.7703894,50.7799987792969
1445.7860144,46.1500015258789
1445.8016394,39.4599990844727
1445.8172644,30.1100006103516
1445.8328894,18.5699996948242
1445.8485144,6.5
1445.8641394,-4.05000019073486
1445.8797644,-11.7299995422363
1445.8953894,-16.2600002288818
1445.9110144,-18.3099994659424
1445.9266394,-19.0499992370605
1445.9422644,-19.7299995422363
1445.9578894,-21.1900005340576
1445.9735144,-23.6100006103516
1445.9891394,-26.6399993896484
1446.0047644,-29.6800003051758
1446.0203894,-32.189998626709
1446.0360144,-33.9799995422363
1446.0516394,-35.2200012207031
1446.0672644,-36.2299995422363
1446.0828894,-37.2999992370605
1446.0985144,-38.6599998474121
1446.1141394,-40.4599990844727
1446.1297644,-42.310001373291
1446.1453894,-42.9799995422363
1446.1610144,-40.6699981689453
1446.1766394,-33.8499984741211
1446.1922644,-22.0200004577637
1446.2078894,-6.19999980926514
1446.2235144,11.289999961853
1446.2391394,27.8099994659424
1446.2547644,41.4300003051758
1446.2703894,51.3499984741211
1446.2860144,57.7000007629395
1446.3016394,61.1100006103516
1446.3172644,62.2700004577637
1446.3328894,61.5
1446.3485144,58.8499984741211
1446.3641394,54.2099990844727
1446.3797644,47.4300003051758
1446.3953894,38.4199981689453
1446.4110144,27.4799995422363
1446.4266394,15.789999961853
1446.4422644,5.09999990463257
1446.4578894,-3.17000007629395
1446.4735144,-8.65999984741211
1446.4891394,-12.0100002288818
1446.5047644,-14.289999961853
1446.5203894,-16.4500007629395
1446.5360144,-19.0200004577637
1446.5516394,-22.0799999237061
1446.5672644,-25.2099990844727
1446.5828894,-27.8700008392334
1446.5985144,-29.8199996948242
1446.6141394,-31.2800006866455
1446.6297644,-32.7400016784668
1446.6453894,-34.6199989318848
1446.6610144,-36.8800010681152
1446.6766394,-39.0400009155273
1446.6922644,-40.5200004577637
1446.7078894,-41.2700004577637
1446.7235144,-41.7299995422363
1446.7391394,-42.2900009155273
1446.7547644,-42.6500015258789
1446.7703894,-41.5
1446.7860144,-36.5800018310547
1446.8016394,-25.8099994659424
1446.8172644,-8.98999977111816
1446.8328894,11.4499998092651
1446.8485144,31.4599990844727
1446.8641394,47.3199996948242
1446.8797644,57.3600006103516
1446.8953894,62.3600006103516
1446.9110144,64.4800033569336
1446.9266394,65.5199966430664
1446.9422644,65.8899993896484
1446.9578894,64.9000015258789
1446.9735144,61.6599998474121
1446.9891394,55.7400016784668
1447.0047644,47.1300010681152
1447.0203894,36.060001373291
1447.0360144,23.1200008392334
1447.0516394,9.64999961853027
1447.0672644,-2.30999994277954
1447.0828894,-10.9899997711182
1447.0985144,-15.7799997329712
1447.1141394,-17.7000007629395
1447.1297644,-18.8299999237061
1447.1453894,-21.0599994659424
1447.1610144,-25.0100002288818
1447.1766394,-30.0200004577637
1447.1922644,-34.9099998474121
1447.2078894,-38.8499984741211
1447.2235144,-41.6199989318848
1447.2391394,-43.3899993896484
1447.2547644,-44.439998626709
1447.2703894,-44.9500007629395
1447.2860144,-45.0699996948242
1447.3016394,-45.0299987792969
1447.3172644,-44.9700012207031
1447.3328894,-44.5200004577637
1447.3485144,-42.5400009155273
1447.3641394,-37.3199996948242
1447.3797644,-27.2999992370605
1447.3953894,-12.1599998474121
1447.4110144,6.36999988555908
1447.4266394,25.0499992370605
1447.4422644,40.4000015258789
1447.4578894,50.3600006103516
1447.4735144,54.9599990844727
1447.4891394,55.6800003051758
1447.5047644,54.2099990844727
1447.5203894,51.6599998474121
1447.5360144,48.5
1447.5516394,44.8600006103516
1447.5672644,40.4700012207031
1447.5828894,34.75
1447.5985144,27.4500007629395
1447.6141394,19.2099990844727
1447.6297644,11.3999996185303
1447.6453894,5.26000022888184
1447.6610144,1.03999996185303
1447.6766394,-2.0
1447.6922644,-5.11999988555908
1447.7078894,-9.1899995803833
1447.7235144,-14.2399997711182
1447.7391394,-19.5200004577637
1447.7547644,-24.0799999237061
1447.7703894,-27.2700004577637
1447.7860144,-29.2199993133545
1447.8016394,-30.7800006866455
1447.8172644,-32.6699981689453
1447.8328894,-34.7700004577637
1447.8485144,-36.3499984741211
1447.8641394,-36.6500015258789
1447.8797644,-35.3899993896484
1447.8953894,-32.75
1447.9110144,-28.9400005340576
1447.9266394,-23.6800003051758
1447.9422644,-16.0599994659424
1447.9578894,-5.13000011444092
1447.9735144,9.09000015258789
1447.9891394,25.1800003051758
1448.0047644,40.7099990844727
1448.0203894,53.4700012207031
1448.0360144,62.2900009155273
1448.0516394,67.2399978637695
1448.0672644,69.0500030517578
1448.0828894,68.4000015258789
1448.0985144,65.6600036621094
1448.1141394,61.0900001525879
1448.1297644,54.8600006103516
1448.1453894,46.7999992370605
1448.1610144,36.6399993896484
1448.1766394,24.6700000762939
1448.1922644,12.210000038147
1448.2078894,0.980000019073486
1448.2235144,-7.69000005722046
1448.2391394,-13.3500003814697
1448.2547644,-16.3199996948242
1448.2703894,-17.4899997711182
1448.2860144,-18.2199993133545
1448.3016394,-19.9599990844727
1448.3172644,-23.5100002288818
1448.3328894,-28.3999996185303
1448.3485144,-33.2200012207031
1448.3641394,-36.689998626709
1448.3797644,-38.4500007629395
1448.3953894,-38.939998626709
1448.4110144,-38.9599990844727
1448.4266394,-39.2099990844727
1448.4422644,-40.2200012207031
1448.4578894,-41.9500007629395
1448.4735144,-43.310001373291
1448.4891394,-42.1399993896484
1448.5047644,-36.0900001525879
1448.5203894,-24.2199993133545
1448.5360144,-7.76000022888184
1448.5516394,10.6300001144409
1448.5672644,28.1599998474121
1448.5828894,42.6100006103516
1448.5985144,52.3300018310547
1448.6141394,56.5099983215332
1448.6297644,55.6100006103516
1448.6453894,51.4000015258789
1448.6610144,46.2599983215332
1448.6766394,42.1300010681152
1448.6922644,39.4700012207031
1448.7078894,37.060001373291
1448.7235144,33.1399993896484
1448.7391394,26.8500003814697
1448.7547644,18.7999992370605
1448.7703894,10.4899997711182
1448.7860144,3.33999991416931
1448.8016394,-2.02999997138977
1448.8172644,-6.15000009536743
1448.8328894,-10.25
1448.8485144,-15.7299995422363
1448.8641394,-23.3199996948242
1448.8797644,-32.6500015258789
1448.8953894,-42.25
1448.9110144,-50.2700004577637
1448.9266394,-55.310001373291
1448.9422644,-56.9700012207031
1448.9578894,-55.8899993896484
1448.9735144,-53.439998626709
1448.9891394,-51.1399993896484
1449.0047644,-49.8699989318848
1449.0203894,-49.310001373291
1449.0360144,-48.0699996948242
1449.0516394,-44.2200012207031
1449.0672644,-36.2299995422363
1449.0828894,-23.75
1449.0985144,-7.90999984741211
1449.1141394,8.97999954223633
1449.1297644,24.2900009155273
1449.1453894,36.189998626709
1449.1610144,44.3699989318848
1449.1766394,49.7599983215332
1449.1922644,53.4500007629395
1449.2078894,55.9900016784668
1449.2235144,57.0699996948242
1449.2391394,55.6800003051758
1449.2547644,50.6300010681152
1449.2703894,41.3800010681152
1449.2860144,28.5499992370605
1449.3016394,13.7600002288818
1449.3172644,-0.810000002384186
1449.3328894,-13.25
1449.3485144,-22.4799995422363
1449.3641394,-28.7600002288818
1449.3797644,-33.3600006103516
1449.3953894,-37.6699981689453
1449.4110144,-42.2400016784668
1449.4266394,-46.5999984741211
1449.4422644,-49.8899993896484
1449.4578894,-51.7400016784668
1449.4735144,-52.4000015258789
1449.4891394,-52.3600006103516
1449.5047644,-51.9000015258789
1449.5203894,-51.25
1449.5360144,-50.9099998474121
1449.5516394,-51.3600006103516
1449.5672644,-52.3400001525879
1449.5828894,-52.6500015258789
1449.5985144,-50.6800003051758
1449.6141394,-44.9599990844727
1449.6297644,-34.5299987792969
1449.6453894,-19.3199996948242
1449.6610144,-0.639999985694885
1449.6766394,19.0100002288818
1449.6922644,36.8600006103516
1449.7078894,50.7000007629395
1449.7235144,59.4599990844727
1449.7391394,63.4099998474121
1449.7547644,63.8899993896484
1449.7703894,62.560001373291
1449.7860144,60.4099998474121
1449.8016394,57.4199981689453
1449.8172644,52.8699989318848
1449.8328894,45.8199996948242
1449.8485144,35.8600006103516
1449.8641394,23.6900005340576
1449.8797644,11.0299997329712
1449.8953894,0.0199999995529652
1449.9110144,-7.53999996185303
1449.9266394,-11.1099996566772
1449.9422644,-11.8699998855591
1449.9578894,-12.1199998855591
1449.9735144,-13.960000038147
1449.9891394,-18.1200008392334
1450.0047644,-23.8299999237061
1450.0203894,-29.4799995422363
1450.0360144,-33.7200012207031
1450.0516394,-36.2000007629395
1450.0672644,-37.5
1450.0828894,-38.3800010681152
1450.0985144,-39.2200012207031
1450.1141394,-39.8199996948242
1450.1297644,-39.7000007629395
1450.1453894,-38.2900009155273
1450.1610144,-34.7999992370605
1450.1766394,-28.1700000762939
1450.1922644,-17.4099998474121
1450.2078894,-2.49000000953674
1450.2235144,15.1800003051758
1450.2391394,32.8600006103516
1450.2547644,47.5499992370605
1450.2703894,57.2099990844727
1450.2860144,61.8300018310547
1450.3016394,63.2400016784668
1450.3172644,63.6399993896484
1450.3328894,63.9099998474121
1450.3485144,63.2000007629395
1450.3641394,59.8300018310547
1450.3797644,52.2999992370605
1450.3953894,40.2000007629395
1450.4110144,24.7299995422363
1450.4266394,8.73999977111816
1450.4422644,-4.48000001907349
1450.4578894,-12.7399997711182
1450.4735144,-15.8199996948242
1450.4891394,-15.3699998855591
1450.5047644,-13.7799997329712
1450.5203894,-12.75
1450.5360144,-12.4399995803833
1450.5516394,-12.0500001907349
1450.5672644,-10.9899997711182
1450.5828894,-9.72000026702881
1450.5985144,-9.55000019073486
1450.6141394,-11.6400003433228
1450.6297644,-16.0400009155273
1450.6453894,-21.5599994659424
1450.6610144,-26.4799995422363
1450.6766394,-29.3099994659424
1450.6922644,-29.2000007629395
1450.7078894,-25.7299995422363
1450.7235144,-18.5599994659424
1450.7391394,-7.46999979019165
1450.7547644,7.1399998664856
1450.7703894,23.7900009155273
1450.7860144,40.0
1450.8016394,52.9099998474121
1450.8172644,60.3899993896484
1450.8328894,62.2000007629395
1450.8485144,59.939998626709
1450.8641394,55.7700004577637
1450.8797644,51.1500015258789
1450.8953894,46.4199981689453
1450.9110144,41.2799987792969
1450.9266394,35.3400001525879
1450.9422644,28.3700008392334
1450.9578894,20.5300006866455
1450.9735144,12.5
1450.9891394,5.5
1451.0047644,0.610000014305115
1451.0203894,-2.0
1451.0360144,-3.41000008583069
1451.0516394,-5.17999982833862
1451.0672644,-8.28999996185303
1451.0828894,-12.5200004577637
1451.0985144,-16.7900009155273
1451.1141394,-19.9899997711182
1451.1297644,-21.5900001525879
1451.1453894,-21.7299995422363
1451.1610144,-20.8899993896484
1451.1766394,-19.5900001525879
1451.1922644,-18.2000007629395
1451.2078894,-17.1299991607666
1451.2235144,-16.5
1451.2391394,-15.5500001907349
1451.2547644,-12.7200002670288
1451.2703894,-6.6399998664856
1451.2860144,2.8199999332428
1451.3016394,14.3100004196167
1451.3172644,25.6299991607666
1451.3328894,35.060001373291
1451.3485144,42.2200012207031
1451.3641394,47.75
1451.3797644,52.1100006103516
1451.3953894,55.0499992370605
1451.4110144,55.9799995422363
1451.4266394,54.5299987792969
1451.4422644,50.689998626709
1451.4578894,44.5800018310547
1451.4735144,36.310001373291
1451.4891394,26.1399993896484
1451.5047644,14.7399997711182
1451.5203894,3.38000011444092
1451.5360144,-6.40999984741211
1451.5516394,-13.6199998855591
1451.5672644,-18.25
1451.5828894,-21.1299991607666
1451.5985144,-23.25
1451.6141394,-25.2600002288818
1451.6297644,-27.4799995422363
1451.6453894,-30.0
1451.6610144,-33.0200004577637
1451.6766394,-36.7599983215332
1451.6922644,-40.9300003051758
1451.7078894,-44.7799987792969
1451.7235144,-47.6199989318848
1451.7391394,-49.2099990844727
1451.7547644,-49.560001373291
1451.7703894,-48.189998626709
1451.7860144,-43.7999992370605
1451.8016394,-34.8899993896484
1451.8172644,-20.9899997711182
1451.8328894,-3.60999989509583
1451.8485144,13.8500003814697
1451.8641394,27.7199993133545
1451.8797644,36.0200004577637
1451.8953894,39.3800010681152
1451.9110144,40.1399993896484
1451.9266394,40.4300003051758
1451.9422644,40.6300010681152
1451.9578894,39.7200012207031
1451.9735144,36.6100006103516
1451.9891394,31.0400009155273
1452.0047644,23.3600006103516
1452.0203894,14.0600004196167
1452.0360144,3.91000008583069
1452.0516394,-5.80999994277954
1452.0672644,-13.789999961853
1452.0828894,-19.2600002288818
1452.0985144,-22.3400001525879
1452.1141394,-23.6900005340576
1452.1297644,-24.1299991607666
1452.1453894,-24.5200004577637
1452.1610144,-25.7999992370605
1452.1766394,-28.5699996948242
1452.1922644,-32.7400016784668
1452.2078894,-37.4700012207031
1452.2235144,-41.6800003051758
1452.2391394,-44.5400009155273
1452.2547644,-45.8600006103516
1452.2703894,-46.2900009155273
1452.2860144,-46.8199996948242
1452.3016394,-47.6599998474121
1452.3172644,-47.4599990844727
1452.3328894,-43.6699981689453
1452.3485144,-34.1800003051758
1452.3641394,-18.9500007629395
1452.3797644,-0.419999986886978
1452.3953894,17.5699996948242
1452.4110144,31.6700000762939
1452.4266394,40.25
1452.4422644,43.6500015258789
1452.4578894,43.5099983215332
1452.4735144,41.8600006103516
1452.4891394,40.2799987792969
1452.5047644,39.2299995422363
1452.5203894,37.9799995422363
1452.5360144,35.2099990844727
1452.5516394,29.9899997711182
1452.5672644,22.5200004577637
1452.5828894,13.9899997711182
1452.5985144,5.71999979019165
1452.6141394,-1.51999998092651
1452.6297644,-7.65999984741211
1452.6453894,-12.9399995803833
1452.6610144,-17.6800003051758
1452.6766394,-21.9300003051758
1452.6922644,-25.5200004577637
1452.7078894,-28.1800003051758
1452.7235144,-29.9200000762939
1452.7391394,-31.1399993896484
1452.7547644,-32.5699996948242
1452.7703894,-34.6199989318848
1452.7860144,-36.9099998474121
1452.8016394,-38.5499992370605
1452.8172644,-38.7900009155273
1452.8328894,-37.3600006103516
1452.8485144,-34.1500015258789
1452.8641394,-28.8700008392334
1452.8797644,-21.1599998474121
1452.8953894,-11.1199998855591
1452.9110144,0.25
1452.9266394,11.460000038147
1452.9422644,21.0400009155273
1452.9578894,28.1399993896484
1452.9735144,32.6300010681152
1452.9891394,34.7700004577637
1453.0047644,34.8800010681152
1453.0203894,33.3899993896484
1453.0360144,31.0499992370605
1453.0516394,28.6299991607666
1453.0672644,26.1399993896484
1453.0828894,22.5799999237061
1453.0985144,16.8400001525879
1453.1141394,8.80000019073486
1453.1297644,-0.319999992847443
1453.1453894,-8.65999984741211
1453.1610144,-14.7700004577637
1453.1766394,-18.2700004577637
1453.1922644,-19.6700000762939
1453.2078894,-19.8500003814697
1453.2235144,-19.7800006866455
1453.2391394,-20.2800006866455
1453.2547644,-21.9400005340576
1453.2703894,-24.8199996948242
1453.2860144,-28.4899997711182
1453.3016394,-32.2999992370605
1453.3172644,-35.5900001525879
1453.3328894,-37.8499984741211
1453.3485144,-38.9199981689453
1453.3641394,-39.0499992370605
1453.3797644,-38.2299995422363
1453.3953894,-35.6500015258789
1453.4110144,-29.8400001525879
