Time(s),Value(%)
1058.0083798,-38.8400001525879
1058.0240048,-38.1100006103516
1058.0396298,-37.7799987792969
1058.0552548,-37.8400001525879
1058.0708798,-38.5800018310547
1058.0865048,-40.4300003051758
1058.1021298,-43.5900001525879
1058.1177548,-47.7400016784668
1058.1333798,-52.2900009155273
1058.1490048,-56.4099998474121
1058.1646298,-58.8699989318848
1058.1802548,-58.0400009155273
1058.1958798,-52.6199989318848
1058.2115048,-42.4199981689453
1058.2271298,-28.5
1058.2427548,-12.6700000762939
1058.2583798,2.84999990463257
1058.2740048,15.5799999237061
1058.2896298,23.4300003051758
1058.3052548,25.8899993896484
1058.3208798,24.5900001525879
1058.3365048,22.2299995422363
1058.3521298,20.9400005340576
1058.3677548,21.25
1058.3833798,22.1900005340576
1058.3990048,22.4899997711182
1058.4146298,21.6299991607666
1058.4302548,19.8999996185303
1058.4458798,17.8500003814697
1058.4615048,15.6899995803833
1058.4771298,13.4399995803833
1058.4927548,11.1999998092651
1058.5083798,9.26000022888184
1058.5240048,8.11999988555908
1058.5396298,8.32999992370605
1058.5552548,9.94999980926514
1058.5708798,12.1599998474121
1058.5865048,13.5600004196167
1058.6021298,13.2200002670288
1058.6177548,11.3699998855591
1058.6333798,9.32999992370605
1058.6490048,8.43000030517578
1058.6646298,9.14999961853027
1058.6802548,10.9200000762939
1058.6958798,12.460000038147
1058.7115048,12.4799995422363
1058.7271298,10.3199996948242
1058.7427548,6.26000022888184
1058.7583798,1.5
1058.7740048,-2.34999990463257
1058.7896298,-4.05999994277954
1058.8052548,-3.29999995231628
1058.8208798,-0.46000000834465
1058.8365048,4.09999990463257
1058.8521298,10.210000038147
1058.8677548,17.4200000762939
1058.8833798,24.9599990844727
1058.8990048,32.1800003051758
1058.9146298,38.810001373291
1058.9302548,44.5900001525879
1058.9458798,48.9099998474121
1058.9615048,50.9700012207031
1058.9771298,50.2400016784668
1058.9927548,46.7700004577637
1059.0083798,41.2299995422363
1059.0240048,34.6800003051758
1059.0396298,27.9699993133545
1059.0552548,21.3299999237061
1059.0708798,14.5200004577637
1059.0865048,7.36999988555908
1059.1021298,0.330000013113022
1059.1177548,-5.55999994277954
1059.1333798,-9.60000038146973
1059.1490048,-11.8400001525879
1059.1646298,-12.8500003814697
1059.1802548,-13.25
1059.1958798,-13.6199998855591
1059.2115048,-14.3599996566772
1059.2271298,-15.539999961853
1059.2427548,-16.9400005340576
1059.2583798,-18.3500003814697
1059.2740048,-19.6000003814697
1059.2896298,-20.5400009155273
1059.3052548,-21.0300006866455
1059.3208798,-21.0400009155273
1059.3365048,-20.7199993133545
1059.3521298,-20.1599998474121
1059.3677548,-19.3099994659424
1059.3833798,-18.1399993896484
1059.3990048,-16.8400001525879
1059.4146298,-15.7399997711182
1059.4302548,-15.1499996185303
1059.4458798,-15.1400003433228
1059.4615048,-15.3599996566772
1059.4771298,-15.210000038147
1059.4927548,-14.0799999237061
1059.5083798,-11.6400003433228
1059.5240048,-7.94000005722046
1059.5396298,-3.21000003814697
1059.5552548,2.45000004768372
1059.5708798,8.89999961853027
1059.5865048,15.6499996185303
1059.6021298,21.8600006103516
1059.6177548,26.7099990844727
1059.6333798,29.8500003814697
1059.6490048,31.5400009155273
1059.6646298,32.1399993896484
1059.6802548,31.7600002288818
1059.6958798,30.3600006103516
1059.7115048,28.0599994659424
1059.7271298,25.25
1059.7427548,22.2600002288818
1059.7583798,19.2099990844727
1059.7740048,16.0100002288818
1059.7896298,12.4399995803833
1059.8052548,8.38000011444092
1059.8208798,4.11999988555908
1059.8365048,0.230000004172325
1059.8521298,-2.94000005722046
1059.8677548,-5.55999994277954
1059.8833798,-8.02000045776367
1059.8990048,-10.460000038147
1059.9146298,-12.7600002288818
1059.9302548,-14.6400003433228
1059.9458798,-15.8900003433228
1059.9615048,-16.5400009155273
1059.9771298,-16.9400005340576
1059.9927548,-17.6299991607666
1060.0083798,-18.9599990844727
1060.0240048,-20.6399993896484
1060.0396298,-21.9799995422363
1060.0552548,-22.4400005340576
1060.0708798,-22.1800003051758
1060.0865048,-21.8799991607666
1060.1021298,-22.2700004577637
1060.1177548,-23.6000003814697
1060.1333798,-25.3899993896484
1060.1490048,-26.7800006866455
1060.1646298,-27.2099990844727
1060.1802548,-26.7900009155273
1060.1958798,-25.7800006866455
1060.2115048,-24.0900001525879
1060.2271298,-21.0400009155273
1060.2427548,-15.6999998092651
1060.2583798,-7.51000022888184
1060.2740048,3.01999998092651
1060.2896298,14.3299999237061
1060.3052548,24.3799991607666
1060.3208798,31.5699996948242
1060.3365048,35.2799987792969
1060.3521298,35.8199996948242
1060.3677548,33.9900016784668
1060.3833798,30.6499996185303
1060.3990048,26.5799999237061
1060.4146298,22.5499992370605
1060.4302548,19.0300006866455
1060.4458798,15.710000038147
1060.4615048,11.7700004577637
1060.4771298,6.69000005722046
1060.4927548,0.829999983310699
1060.5083798,-4.76999998092651
1060.5240048,-9.15999984741211
1060.5396298,-11.8900003433228
1060.5552548,-13.0799999237061
1060.5708798,-13.3100004196167
1060.5865048,-13.2200002670288
1060.6021298,-13.0699996948242
1060.6177548,-12.6899995803833
1060.6333798,-11.9399995803833
1060.6490048,-11.1999998092651
1060.6646298,-11.0100002288818
1060.6802548,-11.460000038147
1060.6958798,-11.9899997711182
1060.7115048,-11.960000038147
1060.7271298,-11.3199996948242
1060.7427548,-10.5299997329712
1060.7583798,-10.0299997329712
1060.7740048,-9.85000038146973
1060.7896298,-9.81999969482422
1060.8052548,-9.98999977111816
1060.8208798,-10.5200004577637
1060.8365048,-11.289999961853
1060.8521298,-11.9799995422363
1060.8677548,-12.3000001907349
1060.8833798,-11.8699998855591
1060.8990048,-9.97000026702881
1060.9146298,-5.73000001907349
1060.9302548,1.26999998092651
1060.9458798,10.5799999237061
1060.9615048,20.8099994659424
1060.9771298,30.1800003051758
1060.9927548,37.3199996948242
1061.0083798,41.6500015258789
1061.0240048,43.4700012207031
1061.0396298,43.4099998474121
1061.0552548,41.75
1061.0708798,38.2700004577637
1061.0865048,32.8300018310547
1061.1021298,25.8999996185303
1061.1177548,18.4099998474121
1061.1333798,11.3999996185303
1061.1490048,5.6399998664856
1061.1646298,1.32000005245209
1061.1802548,-1.94000005722046
1061.1958798,-4.73999977111816
1061.2115048,-7.32000017166138
1061.2271298,-9.47000026702881
1061.2427548,-10.7799997329712
1061.2583798,-11.0799999237061
1061.2740048,-10.7399997711182
1061.2896298,-10.539999961853
1061.3052548,-11.0900001525879
1061.3208798,-12.3199996948242
1061.3365048,-13.7600002288818
1061.3521298,-14.9700002670288
1061.3677548,-15.6599998474121
1061.3833798,-15.7700004577637
1061.3990048,-15.3699998855591
1061.4146298,-14.4499998092651
1061.4302548,-12.960000038147
1061.4458798,-11.0900001525879
1061.4615048,-9.39999961853027
1061.4771298,-8.47999954223633
1061.4927548,-8.36999988555908
1061.5083798,-8.40999984741211
1061.5240048,-7.69999980926514
1061.5396298,-5.65000009536743
1061.5552548,-2.23000001907349
1061.5708798,2.45000004768372
1061.5865048,8.34000015258789
1061.6021298,15.0299997329712
1061.6177548,21.6700000762939
1061.6333798,27.2399997711182
1061.6490048,31.1100006103516
1061.6646298,33.4300003051758
1061.6802548,34.9500007629395
1061.6958798,36.2099990844727
1061.7115048,37.0200004577637
1061.7271298,36.8199996948242
1061.7427548,35.4500007629395
1061.7583798,33.2400016784668
1061.7740048,30.4899997711182
1061.7896298,26.8700008392334
1061.8052548,21.8099994659424
1061.8208798,15.2299995422363
1061.8365048,7.90999984741211
1061.8521298,1.01999998092651
1061.8677548,-4.59999990463257
1061.8833798,-8.72999954223633
1061.8990048,-11.3999996185303
1061.9146298,-12.789999961853
1061.9302548,-13.2200002670288
1061.9458798,-13.3000001907349
1061.9615048,-13.7200002670288
1061.9771298,-14.8400001525879
1061.9927548,-16.6299991607666
1062.0083798,-18.8799991607666
1062.0240048,-21.3199996948242
1062.0396298,-23.6499996185303
1062.0552548,-25.7199993133545
1062.0708798,-27.5200004577637
1062.0865048,-29.0
1062.1021298,-29.8799991607666
1062.1177548,-29.7999992370605
1062.1333798,-28.6000003814697
1062.1490048,-26.6200008392334
1062.1646298,-24.6399993896484
1062.1802548,-23.4400005340576
1062.1958798,-23.1399993896484
1062.2115048,-23.1200008392334
1062.2271298,-22.2900009155273
1062.2427548,-19.3600006103516
1062.2583798,-13.3900003433228
1062.2740048,-4.25
1062.2896298,6.94000005722046
1062.3052548,18.1000003814697
1062.3208798,27.0699996948242
1062.3365048,32.7799987792969
1062.3521298,35.5800018310547
1062.3677548,36.6500015258789
1062.3833798,37.0299987792969
1062.3990048,37.0
1062.4146298,36.0499992370605
1062.4302548,33.4300003051758
1062.4458798,28.7700004577637
1062.4615048,22.3600006103516
1062.4771298,15.1099996566772
1062.4927548,8.11999988555908
1062.5083798,2.24000000953674
1062.5240048,-2.25
1062.5396298,-5.51000022888184
1062.5552548,-7.76000022888184
1062.5708798,-9.25
1062.5865048,-10.3000001907349
1062.6021298,-11.3100004196167
1062.6177548,-12.5
1062.6333798,-13.7200002670288
1062.6490048,-14.6700000762939
1062.6646298,-15.3400001525879
1062.6802548,-15.9899997711182
1062.6958798,-16.9899997711182
1062.7115048,-18.6399993896484
1062.7271298,-21.2700004577637
1062.7427548,-24.8299999237061
1062.7583798,-28.5499992370605
1062.7740048,-31.0100002288818
1062.7896298,-30.9899997711182
1062.8052548,-28.4500007629395
1062.8208798,-24.8099994659424
1062.8365048,-21.9400005340576
1062.8521298,-20.7900009155273
1062.8677548,-20.9200000762939
1062.8833798,-20.8700008392334
1062.8990048,-18.8500003814697
1062.9146298,-13.4399995803833
1062.9302548,-4.34000015258789
1062.9458798,7.21999979019165
1062.9615048,18.9699993133545
1062.9771298,28.5400009155273
1062.9927548,34.5400009155273
1063.0083798,36.9799995422363
1063.0240048,37.0
1063.0396298,35.9000015258789
1063.0552548,34.3899993896484
1063.0708798,32.5200004577637
1063.0865048,30.0200004577637
1063.1021298,26.7199993133545
1063.1177548,22.5900001525879
1063.1333798,17.7900009155273
1063.1490048,12.6599998474121
1063.1646298,7.75
1063.1802548,3.79999995231628
1063.1958798,1.29999995231628
1063.2115048,0.0
1063.2271298,-0.970000028610229
1063.2427548,-2.39000010490417
1063.2583798,-4.6100001335144
1063.2740048,-7.55999994277954
1063.2896298,-10.8699998855591
1063.3052548,-13.960000038147
1063.3208798,-16.0300006866455
1063.3365048,-16.3999996185303
1063.3521298,-15.0100002288818
1063.3677548,-12.6599998474121
1063.3833798,-10.5200004577637
1063.3990048,-9.27000045776367
1063.4146298,-8.6899995803833
1063.4302548,-8.22000026702881
1063.4458798,-7.69999980926514
1063.4615048,-7.53000020980835
1063.4771298,-8.02999973297119
1063.4927548,-9.05000019073486
1063.5083798,-10.1499996185303
1063.5240048,-10.9899997711182
1063.5396298,-11.3699998855591
1063.5552548,-11.1000003814697
1063.5708798,-9.85999965667725
1063.5865048,-7.21000003814697
1063.6021298,-2.75
1063.6177548,3.53999996185303
1063.6333798,11.0600004196167
1063.6490048,18.5400009155273
1063.6646298,24.5
1063.6802548,27.6900005340576
1063.6958798,27.6200008392334
1063.7115048,24.6900005340576
1063.7271298,19.9099998474121
1063.7427548,14.4499998092651
1063.7583798,9.17000007629395
1063.7740048,4.30999994277954
1063.7896298,-0.509999990463257
1063.8052548,-5.98000001907349
1063.8208798,-12.5500001907349
1063.8365048,-19.9699993133545
1063.8521298,-27.2700004577637
1063.8677548,-33.2999992370605
1063.8833798,-37.2700004577637
1063.8990048,-38.9099998474121
1063.9146298,-38.560001373291
1063.9302548,-36.9500007629395
1063.9458798,-34.939998626709
1063.9615048,-33.1699981689453
1063.9771298,-31.8500003814697
1063.9927548,-30.9300003051758
1064.0083798,-30.2000007629395
1064.0240048,-29.3899993896484
1064.0396298,-28.2800006866455
1064.0552548,-26.7800006866455
1064.0708798,-24.8500003814697
1064.0865048,-22.4300003051758
1064.1021298,-19.5799999237061
1064.1177548,-16.5400009155273
1064.1333798,-13.7399997711182
1064.1490048,-11.6400003433228
1064.1646298,-10.3900003433228
1064.1802548,-9.46000003814697
1064.1958798,-7.73999977111816
1064.2115048,-4.19000005722046
1064.2271298,1.52999997138977
1064.2427548,8.93000030517578
1064.2583798,17.2199993133545
1064.2740048,25.7600002288818
1064.2896298,34.1399993896484
1064.3052548,41.8899993896484
1064.3208798,48.3600006103516
1064.3365048,52.7799987792969
1064.3521298,54.7400016784668
1064.3677548,54.4199981689453
1064.3833798,52.5099983215332
1064.3990048,49.7299995422363
1064.4146298,46.5800018310547
1064.4302548,43.1399993896484
1064.4458798,39.2299995422363
1064.4615048,34.7799987792969
1064.4771298,30.0799999237061
1064.4927548,25.6399993896484
1064.5083798,21.8299999237061
1064.5240048,18.7199993133545
1064.5396298,16.0699996948242
1064.5552548,13.3400001525879
1064.5708798,9.80000019073486
1064.5865048,5.17999982833862
1064.6021298,-0.0099999997764825
1064.6177548,-4.75
1064.6333798,-8.0600004196167
1064.6490048,-9.55000019073486
1064.6646298,-9.60999965667725
1064.6802548,-9.13000011444092
1064.6958798,-9.01000022888184
1064.7115048,-9.55000019073486
1064.7271298,-10.4799995422363
1064.7427548,-11.3699998855591
1064.7583798,-12.1099996566772
1064.7740048,-12.8999996185303
1064.7896298,-14.1099996566772
1064.8052548,-15.8199996948242
1064.8208798,-17.6000003814697
1064.8365048,-18.7000007629395
1064.8521298,-18.6800003051758
1064.8677548,-17.5400009155273
1064.8833798,-15.3900003433228
1064.8990048,-12.0
1064.9146298,-6.76999998092651
1064.9302548,0.529999971389771
1064.9458798,9.30000019073486
1064.9615048,18.4699993133545
1064.9771298,26.9400005340576
1064.9927548,33.7999992370605
1065.0083798,38.4000015258789
1065.0240048,40.6199989318848
1065.0396298,40.8499984741211
1065.0552548,39.689998626709
1065.0708798,37.689998626709
1065.0865048,35.2799987792969
1065.1021298,32.5999984741211
1065.1177548,29.5200004577637
1065.1333798,25.6200008392334
1065.1490048,20.4899997711182
1065.1646298,14.1700000762939
1065.1802548,7.34000015258789
1065.1958798,0.959999978542328
1065.2115048,-4.26999998092651
1065.2271298,-8.21000003814697
1065.2427548,-11.1199998855591
1065.2583798,-13.3199996948242
1065.2740048,-15.1099996566772
1065.2896298,-16.6399993896484
1065.3052548,-17.8299999237061
1065.3208798,-18.5
1065.3365048,-18.5200004577637
1065.3521298,-17.8099994659424
1065.3677548,-16.4599990844727
1065.3833798,-14.8999996185303
1065.3990048,-13.8100004196167
1065.4146298,-13.7700004577637
1065.4302548,-15.0200004577637
1065.4458798,-17.3899993896484
1065.4615048,-20.2999992370605
1065.4771298,-22.9500007629395
1065.4927548,-24.7900009155273
1065.5083798,-25.7099990844727
1065.5240048,-25.8199996948242
1065.5396298,-25.1499996185303
1065.5552548,-23.4500007629395
1065.5708798,-20.4400005340576
1065.5865048,-15.9099998474121
1065.6021298,-9.68000030517578
1065.6177548,-1.47000002861023
1065.6333798,8.55000019073486
1065.6490048,19.1100006103516
1065.6646298,28.0900001525879
1065.6802548,33.7900009155273
1065.6958798,35.8699989318848
1065.7115048,35.189998626709
1065.7271298,33.1800003051758
1065.7427548,31.1399993896484
1065.7583798,29.7900009155273
1065.7740048,29.0499992370605
1065.7896298,28.3099994659424
1065.8052548,26.8400001525879
1065.8208798,24.1800003051758
1065.8365048,20.1900005340576
1065.8521298,14.9499998092651
1065.8677548,8.69999980926514
1065.8833798,2.00999999046326
1065.8990048,-4.09000015258789
1065.9146298,-8.47999954223633
1065.9302548,-10.7799997329712
1065.9458798,-11.7399997711182
1065.9615048,-12.6199998855591
1065.9771298,-14.2200002670288
1065.9927548,-16.6200008392334
1066.0083798,-19.4799995422363
1066.0240048,-22.3600006103516
1066.0396298,-24.7600002288818
1066.0552548,-26.1700000762939
1066.0708798,-26.5200004577637
1066.0865048,-26.4899997711182
1066.1021298,-26.9599990844727
1066.1177548,-28.2999992370605
1066.1333798,-30.1399993896484
1066.1490048,-31.6900005340576
1066.1646298,-32.3699989318848
1066.1802548,-32.2200012207031
1066.1958798,-31.5300006866455
1066.2115048,-30.5499992370605
1066.2271298,-29.3500003814697
1066.2427548,-27.7900009155273
1066.2583798,-25.3400001525879
1066.2740048,-21.3299999237061
1066.2896298,-15.4799995422363
1066.3052548,-8.13000011444092
1066.3208798,-0.100000001490116
1066.3365048,7.51000022888184
1066.3521298,13.6700000762939
1066.3677548,17.7700004577637
1066.3833798,19.7999992370605
1066.3990048,20.1599998474121
1066.4146298,19.3500003814697
1066.4302548,17.8899993896484
1066.4458798,16.2399997711182
1066.4615048,14.7200002670288
1066.4771298,13.25
1066.4927548,11.3999996185303
1066.5083798,8.78999996185303
1066.5240048,5.6100001335144
1066.5396298,2.77999997138977
1066.5552548,1.25
1066.5708798,1.0900000333786
1066.5865048,1.26999998092651
1066.6021298,0.579999983310699
1066.6177548,-1.47000002861023
1066.6333798,-4.48999977111816
1066.6490048,-7.6399998664856
1066.6646298,-10.3400001525879
1066.6802548,-12.460000038147
1066.6958798,-14.0900001525879
1066.7115048,-15.289999961853
1066.7271298,-16.2600002288818
1066.7427548,-17.0900001525879
1066.7583798,-17.4400005340576
1066.7740048,-16.6900005340576
1066.7896298,-14.4499998092651
1066.8052548,-11.0799999237061
1066.8208798,-7.67999982833862
1066.8365048,-5.36999988555908
1066.8521298,-4.44999980926514
1066.8677548,-4.19999980926514
1066.8833798,-3.30999994277954
1066.8990048,-0.790000021457672
1066.9146298,3.4300000667572
1066.9302548,8.77999973297119
1066.9458798,14.8699998855591
1066.9615048,21.9200000762939
1066.9771298,30.2099990844727
1066.9927548,39.5200004577637
1067.0083798,49.060001373291
1067.0240048,57.8199996948242
1067.0396298,64.7200012207031
1067.0552548,68.7200012207031
1067.0708798,69.0500030517578
1067.0865048,65.7699966430664
1067.1021298,59.8899993896484
1067.1177548,52.8300018310547
1067.1333798,45.6699981689453
1067.1490048,38.8400001525879
1067.1646298,32.2999992370605
1067.1802548,25.7900009155273
1067.1958798,19.0599994659424
1067.2115048,12.0
1067.2271298,4.71000003814697
1067.2427548,-2.23000001907349
1067.2583798,-8.17000007629395
1067.2740048,-12.6700000762939
1067.2896298,-15.9200000762939
1067.3052548,-18.5799999237061
1067.3208798,-21.4200000762939
1067.3365048,-24.7600002288818
1067.3521298,-28.1800003051758
1067.3677548,-30.8700008392334
1067.3833798,-32.2999992370605
1067.3990048,-32.6300010681152
1067.4146298,-32.5999984741211
1067.4302548,-33.0900001525879
1067.4458798,-34.6500015258789
1067.4615048,-37.1500015258789
1067.4771298,-39.9300003051758
1067.4927548,-42.3499984741211
1067.5083798,-44.3300018310547
1067.5240048,-46.0499992370605
1067.5396298,-47.3199996948242
1067.5552548,-47.6599998474121
1067.5708798,-46.7900009155273
1067.5865048,-44.8400001525879
1067.6021298,-42.2900009155273
1067.6177548,-39.5699996948242
1067.6333798,-36.6399993896484
1067.6490048,-32.8199996948242
1067.6646298,-27.3099994659424
1067.6802548,-19.9799995422363
1067.6958798,-11.6700000762939
1067.7115048,-4.05999994277954
1067.7271298,1.25
1067.7427548,3.72000002861023
1067.7583798,4.01000022888184
1067.7740048,3.35999989509583
1067.7896298,2.6800000667572
1067.8052548,2.13000011444092
1067.8208798,1.52999997138977
1067.8365048,0.759999990463257
1067.8521298,-0.219999998807907
1067.8677548,-1.62000000476837
1067.8833798,-3.55999994277954
1067.8990048,-5.69000005722046
1067.9146298,-7.30999994277954
1067.9302548,-7.84000015258789
1067.9458798,-7.1399998664856
1067.9615048,-5.46999979019165
1067.9771298,-3.23000001907349
1067.9927548,-0.779999971389771
1068.0083798,1.48000001907349
1068.0240048,3.0
1068.0396298,3.0699999332428
1068.0552548,1.30999994277954
1068.0708798,-1.82000005245209
1068.0865048,-5.23000001907349
1068.1021298,-7.71999979019165
1068.1177548,-8.61999988555908
1068.1333798,-8.0
1068.1490048,-6.30000019073486
1068.1646298,-4.07000017166138
1068.1802548,-1.91999995708466
1068.1958798,-0.400000005960464
1068.2115048,0.150000005960464
1068.2271298,-0.389999985694885
1068.2427548,-1.91999995708466
1068.2583798,-3.75999999046326
1068.2740048,-4.84000015258789
1068.2896298,-4.32999992370605
1068.3052548,-2.07999992370605
1068.3208798,1.55999994277954
1068.3365048,6.23000001907349
1068.3521298,11.7399997711182
1068.3677548,17.8899993896484
