Time(s),Value(%)
522.006733,98.9000015258789
522.022358,98.9000015258789
522.037983,98.9000015258789
522.053608,98.9000015258789
522.069233,98.9000015258789
522.084858,98.9000015258789
522.100483,98.9000015258789
522.116108,98.9000015258789
522.131733,98.9000015258789
522.147358,98.9000015258789
522.162983,98.9000015258789
522.178608,98.9000015258789
522.194233,98.9000015258789
522.209858,98.9000015258789
522.225483,98.9000015258789
522.241108,98.9000015258789
522.256733,98.9000015258789
522.272358,98.9000015258789
522.287983,98.9000015258789
522.303608,98.9000015258789
522.319233,98.9499969482422
522.334858,99.0
522.350483,99.0500030517578
522.366108,99.0999984741211
522.381733,99.1500015258789
522.397358,99.1999969482422
522.412983,99.25
522.428608,99.3000030517578
522.444233,99.3000030517578
522.459858,99.3000030517578
522.475483,99.3000030517578
522.491108,99.3000030517578
522.506733,99.3000030517578
522.522358,99.3000030517578
522.537983,99.3000030517578
522.553608,99.3000030517578
522.569233,99.3000030517578
522.584858,99.3000030517578
522.600483,99.3000030517578
522.616108,99.3000030517578
522.631733,99.3000030517578
522.647358,99.3000030517578
522.662983,99.3000030517578
522.678608,99.3000030517578
522.694233,99.3000030517578
522.709858,99.3000030517578
522.725483,99.3000030517578
522.741108,99.3000030517578
522.756733,99.3000030517578
522.772358,99.3000030517578
522.787983,99.3000030517578
522.803608,99.3000030517578
522.819233,99.3000030517578
522.834858,99.3000030517578
522.850483,99.3000030517578
522.866108,99.3000030517578
522.881733,99.3000030517578
522.897358,99.3000030517578
522.912983,99.3000030517578
522.928608,99.3000030517578
522.944233,99.3000030517578
522.959858,99.3000030517578
522.975483,99.3000030517578
522.991108,99.3000030517578
523.006733,99.3000030517578
523.022358,99.3000030517578
523.037983,99.3000030517578
523.053608,99.3000030517578
523.069233,99.3000030517578
523.084858,99.3000030517578
523.100483,99.3000030517578
523.116108,99.3000030517578
523.131733,99.3000030517578
523.147358,99.3000030517578
523.162983,99.3000030517578
523.178608,99.3000030517578
523.194233,99.3000030517578
523.209858,99.3000030517578
523.225483,99.3000030517578
523.241108,99.3000030517578
523.256733,99.3000030517578
523.272358,99.3000030517578
523.287983,99.3000030517578
523.303608,99.3000030517578
523.319233,99.3000030517578
523.334858,99.3000030517578
523.350483,99.3000030517578
523.366108,99.3000030517578
523.381733,99.3000030517578
523.397358,99.3000030517578
523.412983,99.3000030517578
523.428608,99.3000030517578
523.444233,99.3000030517578
523.459858,99.3000030517578
523.475483,99.3000030517578
523.491108,99.3000030517578
523.506733,99.3000030517578
523.522358,99.3000030517578
523.537983,99.3000030517578
523.553608,99.3000030517578
523.569233,99.3000030517578
523.584858,99.3000030517578
523.600483,99.3000030517578
523.616108,99.3000030517578
523.631733,99.3000030517578
523.647358,99.3000030517578
523.662983,99.3000030517578
523.678608,99.3000030517578
523.694233,99.3000030517578
523.709858,99.3000030517578
523.725483,99.3000030517578
523.741108,99.3000030517578
523.756733,99.3000030517578
523.772358,99.3000030517578
523.787983,99.3000030517578
523.803608,99.3000030517578
523.819233,99.3000030517578
523.834858,99.3000030517578
523.850483,99.3000030517578
523.866108,99.3000030517578
523.881733,99.3000030517578
523.897358,99.3000030517578
523.912983,99.3000030517578
523.928608,99.3000030517578
523.944233,99.3000030517578
523.959858,99.3000030517578
523.975483,99.3000030517578
523.991108,99.3000030517578
524.006733,99.3000030517578
524.022358,99.3000030517578
524.037983,99.3000030517578
524.053608,99.3000030517578
524.069233,99.3000030517578
524.084858,99.3000030517578
524.100483,99.3000030517578
524.116108,99.3000030517578
524.131733,99.3000030517578
524.147358,99.3000030517578
524.162983,99.3000030517578
524.178608,99.3000030517578
524.194233,99.3000030517578
524.209858,99.3000030517578
524.225483,99.3000030517578
524.241108,99.3000030517578
524.256733,99.3000030517578
524.272358,99.3000030517578
524.287983,99.3000030517578
524.303608,99.3000030517578
524.319233,99.3000030517578
524.334858,99.3000030517578
524.350483,99.3000030517578
524.366108,99.3000030517578
524.381733,99.3000030517578
524.397358,99.3000030517578
524.412983,99.3000030517578
524.428608,99.3000030517578
524.444233,99.3000030517578
524.459858,99.3000030517578
524.475483,99.3000030517578
524.491108,99.3000030517578
524.506733,99.3000030517578
524.522358,99.3000030517578
524.537983,99.3000030517578
524.553608,99.3000030517578
524.569233,99.3000030517578
524.584858,99.3000030517578
524.600483,99.3000030517578
524.616108,99.3000030517578
524.631733,99.3000030517578
524.647358,99.3000030517578
524.662983,99.3000030517578
524.678608,99.3099975585938
524.694233,99.3199996948242
524.709858,99.3300018310547
524.725483,99.3499984741211
524.741108,99.3600006103516
524.756733,99.370002746582
524.772358,99.379997253418
524.787983,99.4000015258789
524.803608,99.4000015258789
524.819233,99.4000015258789
524.834858,99.4000015258789
524.850483,99.4000015258789
524.866108,99.4000015258789
524.881733,99.4000015258789
524.897358,99.4000015258789
524.912983,99.4000015258789
524.928608,99.4000015258789
524.944233,99.4000015258789
524.959858,99.4000015258789
524.975483,99.4000015258789
524.991108,99.4000015258789
525.006733,99.4000015258789
525.022358,99.4000015258789
525.037983,99.4000015258789
525.053608,99.4000015258789
525.069233,99.4000015258789
525.084858,99.4000015258789
525.100483,99.4000015258789
525.116108,99.4000015258789
525.131733,99.4000015258789
525.147358,99.4000015258789
525.162983,99.4000015258789
525.178608,99.4000015258789
525.194233,99.4000015258789
525.209858,99.4000015258789
525.225483,99.4000015258789
525.241108,99.4499969482422
525.256733,99.5
525.272358,99.5500030517578
525.287983,99.5999984741211
525.303608,99.6500015258789
525.319233,99.6999969482422
525.334858,99.75
525.350483,99.8000030517578
525.366108,99.8000030517578
525.381733,99.8000030517578
525.397358,99.8000030517578
525.412983,99.8000030517578
525.428608,99.8000030517578
525.444233,99.8000030517578
525.459858,99.8000030517578
525.475483,99.8000030517578
525.491108,99.8000030517578
525.506733,99.8000030517578
525.522358,99.8000030517578
525.537983,99.8000030517578
525.553608,99.8000030517578
525.569233,99.8000030517578
525.584858,99.8000030517578
525.600483,99.8000030517578
525.616108,99.8000030517578
525.631733,99.8000030517578
525.647358,99.8000030517578
525.662983,99.8000030517578
525.678608,99.8000030517578
525.694233,99.8000030517578
525.709858,99.8000030517578
525.725483,99.8000030517578
525.741108,99.8000030517578
525.756733,99.8000030517578
525.772358,99.8000030517578
525.787983,99.8000030517578
525.803608,99.8000030517578
525.819233,99.8000030517578
525.834858,99.8000030517578
525.850483,99.8000030517578
525.866108,99.8000030517578
525.881733,99.8000030517578
525.897358,99.8000030517578
525.912983,99.8000030517578
525.928608,99.8000030517578
525.944233,99.8000030517578
525.959858,99.8000030517578
525.975483,99.8000030517578
525.991108,99.8000030517578
526.006733,99.8000030517578
526.022358,99.8000030517578
526.037983,99.8000030517578
526.053608,99.8000030517578
526.069233,99.8000030517578
526.084858,99.8000030517578
526.100483,99.8000030517578
526.116108,99.8000030517578
526.131733,99.8000030517578
526.147358,99.8000030517578
526.162983,99.8000030517578
526.178608,99.8000030517578
526.194233,99.8000030517578
526.209858,99.8000030517578
526.225483,99.8000030517578
526.241108,99.8000030517578
526.256733,99.8000030517578
526.272358,99.8000030517578
526.287983,99.8000030517578
526.303608,99.8000030517578
526.319233,99.8000030517578
526.334858,99.8000030517578
526.350483,99.8000030517578
526.366108,99.8000030517578
526.381733,99.8000030517578
526.397358,99.8000030517578
526.412983,99.8000030517578
526.428608,99.8000030517578
526.444233,99.8000030517578
526.459858,99.8000030517578
526.475483,99.8000030517578
526.491108,99.8000030517578
526.506733,99.8000030517578
526.522358,99.8000030517578
526.537983,99.8000030517578
526.553608,99.8000030517578
526.569233,99.8000030517578
526.584858,99.8000030517578
526.600483,99.8000030517578
526.616108,99.8000030517578
526.631733,99.8000030517578
526.647358,99.8000030517578
526.662983,99.8000030517578
526.678608,99.8000030517578
526.694233,99.8000030517578
526.709858,99.8000030517578
526.725483,99.8000030517578
526.741108,99.8000030517578
526.756733,99.8000030517578
526.772358,99.8000030517578
526.787983,99.8000030517578
526.803608,99.8000030517578
526.819233,99.8000030517578
526.834858,99.8000030517578
526.850483,99.8000030517578
526.866108,99.8000030517578
526.881733,99.8000030517578
526.897358,99.8000030517578
526.912983,99.8199996948242
526.928608,99.8499984741211
526.944233,99.870002746582
526.959858,99.9000015258789
526.975483,99.9199981689453
526.991108,99.9499969482422
527.006733,99.9700012207031
527.022358,100.0
527.037983,100.0
527.053608,100.0
527.069233,100.0
527.084858,100.0
527.100483,100.0
527.116108,100.0
527.131733,100.0
527.147358,100.0
527.162983,100.0
527.178608,100.0
527.194233,100.0
527.209858,100.0
527.225483,100.0
527.241108,100.0
527.256733,100.0
527.272358,100.0
527.287983,100.0
527.303608,100.0
527.319233,100.0
527.334858,100.0
527.350483,100.0
527.366108,100.0
527.381733,100.0
527.397358,100.0
527.412983,100.0
527.428608,100.0
527.444233,100.0
527.459858,100.0
527.475483,100.0
527.491108,100.0
527.506733,100.0
527.522358,100.0
527.537983,100.0
527.553608,100.0
527.569233,100.0
527.584858,100.0
527.600483,100.0
527.616108,100.0
527.631733,100.0
527.647358,100.0
527.662983,100.0
527.678608,100.0
527.694233,100.0
527.709858,100.0
527.725483,100.0
527.741108,100.0
527.756733,100.0
527.772358,100.0
527.787983,100.0
527.803608,100.0
527.819233,100.0
527.834858,100.0
527.850483,100.0
527.866108,100.0
527.881733,100.0
527.897358,100.0
527.912983,100.0
527.928608,100.0
527.944233,100.0
527.959858,100.0
527.975483,100.0
527.991108,100.0
528.006733,100.0
528.022358,100.0
528.037983,100.0
528.053608,100.0
528.069233,100.0
528.084858,100.0
528.100483,100.0
528.116108,100.0
528.131733,100.0
528.147358,100.0
528.162983,100.0
528.178608,100.0
528.194233,100.0
528.209858,100.0
528.225483,100.0
528.241108,100.0
528.256733,100.0
528.272358,100.0
528.287983,100.0
528.303608,100.0
528.319233,100.0
528.334858,100.0
528.350483,100.0
528.366108,100.0
528.381733,100.0
528.397358,100.0
528.412983,100.0
528.428608,100.0
528.444233,100.0
528.459858,100.0
528.475483,100.0
528.491108,100.0
528.506733,100.0
528.522358,100.0
528.537983,100.0
528.553608,100.0
528.569233,100.0
528.584858,100.0
528.600483,100.0
528.616108,100.0
528.631733,100.0
528.647358,100.0
528.662983,100.0
528.678608,100.0
528.694233,100.0
528.709858,100.0
528.725483,100.0
528.741108,100.0
528.756733,100.0
528.772358,100.0
528.787983,100.0
528.803608,100.0
528.819233,100.0
528.834858,100.0
528.850483,100.0
528.866108,100.0
528.881733,100.0
528.897358,100.0
528.912983,100.0
528.928608,100.0
528.944233,100.0
528.959858,100.0
528.975483,100.0
528.991108,100.0
529.006733,100.0
529.022358,100.0
529.037983,100.0
529.053608,100.0
529.069233,100.0
529.084858,100.0
529.100483,100.0
529.116108,100.0
529.131733,100.0
529.147358,100.0
529.162983,100.0
529.178608,100.0
529.194233,100.0
529.209858,100.0
529.225483,100.0
529.241108,100.0
529.256733,100.0
529.272358,100.0
529.287983,100.0
529.303608,100.0
529.319233,100.0
529.334858,100.0
529.350483,100.0
529.366108,100.0
529.381733,100.0
529.397358,100.0
529.412983,100.0
529.428608,100.0
529.444233,100.0
529.459858,100.0
529.475483,100.0
529.491108,100.0
529.506733,100.0
529.522358,100.0
529.537983,100.0
529.553608,100.0
529.569233,100.0
529.584858,100.0
529.600483,100.0
529.616108,100.0
529.631733,100.0
529.647358,100.0
529.662983,100.0
529.678608,100.0
529.694233,100.0
529.709858,100.0
529.725483,100.0
529.741108,100.0
529.756733,100.0
529.772358,100.0
529.787983,100.0
529.803608,100.0
529.819233,100.0
529.834858,100.0
529.850483,100.0
529.866108,100.0
529.881733,100.0
529.897358,100.0
529.912983,100.0
529.928608,100.0
529.944233,100.0
529.959858,100.0
529.975483,100.0
529.991108,100.0
530.006733,100.0
530.022358,100.0
530.037983,100.0
530.053608,100.0
530.069233,100.0
530.084858,100.0
530.100483,100.0
530.116108,100.0
530.131733,100.0
530.147358,100.0
530.162983,100.0
530.178608,100.0
530.194233,100.0
530.209858,100.0
530.225483,100.0
530.241108,100.0
530.256733,100.0
530.272358,100.0
530.287983,100.0
530.303608,100.0
530.319233,100.0
530.334858,100.0
530.350483,100.0
530.366108,100.0
530.381733,100.0
530.397358,100.0
530.412983,100.0
530.428608,100.0
530.444233,100.0
530.459858,100.0
530.475483,100.0
530.491108,100.0
530.506733,100.0
530.522358,100.0
530.537983,100.0
530.553608,100.0
530.569233,100.0
530.584858,100.0
530.600483,100.0
530.616108,100.0
530.631733,100.0
530.647358,100.0
530.662983,100.0
530.678608,100.0
530.694233,100.0
530.709858,100.0
530.725483,100.0
530.741108,100.0
530.756733,100.0
530.772358,100.0
530.787983,100.0
530.803608,100.0
530.819233,100.0
530.834858,100.0
530.850483,100.0
530.866108,100.0
530.881733,100.0
530.897358,100.0
530.912983,100.0
530.928608,100.0
530.944233,100.0
530.959858,100.0
530.975483,100.0
530.991108,100.0
531.006733,100.0
531.022358,100.0
531.037983,100.0
531.053608,100.0
531.069233,100.0
531.084858,100.0
531.100483,100.0
531.116108,100.0
531.131733,100.0
531.147358,100.0
531.162983,100.0
531.178608,100.0
531.194233,100.0
531.209858,100.0
531.225483,100.0
531.241108,100.0
531.256733,100.0
531.272358,100.0
531.287983,100.0
531.303608,100.0
531.319233,100.0
531.334858,100.0
531.350483,100.0
531.366108,100.0
531.381733,100.0
531.397358,100.0
531.412983,100.0
531.428608,100.0
531.444233,100.0
531.459858,100.0
531.475483,100.0
531.491108,100.0
531.506733,100.0
531.522358,100.0
531.537983,100.0
531.553608,100.0
531.569233,100.0
531.584858,100.0
531.600483,100.0
531.616108,100.0
531.631733,100.0
531.647358,100.0
531.662983,100.0
531.678608,100.0
531.694233,100.0
531.709858,100.0
531.725483,100.0
531.741108,100.0
531.756733,100.0
531.772358,100.0
531.787983,100.0
531.803608,100.0
531.819233,100.0
531.834858,100.0
531.850483,100.0
531.866108,100.0
531.881733,100.0
531.897358,100.0
531.912983,100.0
531.928608,100.0
531.944233,100.0
531.959858,100.0
531.975483,100.0
531.991108,100.0
532.006733,100.0
532.022358,100.0
532.037983,100.0
532.053608,100.0
532.069233,100.0
532.084858,100.0
532.100483,100.0
532.116108,100.0
532.131733,100.0
532.147358,100.0
532.162983,100.0
532.178608,100.0
532.194233,100.0
532.209858,100.0
532.225483,100.0
532.241108,100.0
532.256733,100.0
532.272358,100.0
532.287983,100.0
532.303608,100.0
532.319233,100.0
532.334858,100.0
532.350483,100.0
532.366108,100.0
532.381733,100.0
532.397358,100.0
532.412983,100.0
532.428608,100.0
532.444233,100.0
532.459858,100.0
532.475483,100.0
532.491108,100.0
532.506733,100.0
532.522358,100.0
532.537983,100.0
532.553608,100.0
532.569233,100.0
532.584858,100.0
532.600483,100.0
532.616108,100.0
532.631733,100.0
532.647358,100.0
532.662983,100.0
532.678608,100.0
532.694233,100.0
532.709858,100.0
532.725483,100.0
532.741108,100.0
532.756733,100.0
532.772358,100.0
532.787983,100.0
532.803608,100.0
532.819233,100.0
532.834858,100.0
532.850483,100.0
532.866108,100.0
532.881733,100.0
532.897358,100.0
532.912983,100.0
532.928608,100.0
532.944233,100.0
532.959858,100.0
532.975483,100.0
532.991108,100.0
533.006733,100.0
533.022358,100.0
533.037983,100.0
533.053608,100.0
533.069233,100.0
533.084858,100.0
533.100483,100.0
533.116108,100.0
533.131733,100.0
533.147358,100.0
533.162983,100.0
533.178608,100.0
533.194233,100.0
533.209858,100.0
533.225483,100.0
533.241108,100.0
533.256733,100.0
533.272358,100.0
533.287983,100.0
533.303608,100.0
533.319233,100.0
533.334858,100.0
533.350483,100.0
533.366108,100.0
533.381733,100.0
533.397358,100.0
533.412983,100.0
533.428608,100.0
533.444233,100.0
533.459858,100.0
533.475483,100.0
533.491108,100.0
533.506733,100.0
533.522358,100.0
533.537983,100.0
533.553608,100.0
533.569233,100.0
533.584858,100.0
533.600483,100.0
533.616108,100.0
533.631733,100.0
533.647358,100.0
533.662983,100.0
533.678608,100.0
533.694233,100.0
533.709858,100.0
533.725483,100.0
533.741108,100.0
533.756733,100.0
533.772358,100.0
533.787983,100.0
533.803608,100.0
533.819233,100.0
533.834858,100.0
533.850483,100.0
533.866108,100.0
533.881733,100.0
533.897358,100.0
533.912983,100.0
533.928608,100.0
533.944233,100.0
533.959858,100.0
533.975483,100.0
533.991108,100.0
534.006733,100.0
534.022358,100.0
534.037983,100.0
534.053608,100.0
534.069233,100.0
534.084858,100.0
534.100483,100.0
534.116108,100.0
534.131733,100.0
534.147358,100.0
534.162983,100.0
534.178608,100.0
534.194233,100.0
534.209858,100.0
534.225483,100.0
534.241108,100.0
534.256733,100.0
534.272358,100.0
534.287983,100.0
534.303608,100.0
534.319233,100.0
534.334858,100.0
534.350483,100.0
534.366108,100.0
534.381733,100.0
534.397358,100.0
534.412983,100.0
534.428608,100.0
534.444233,100.0
534.459858,100.0
534.475483,100.0
534.491108,100.0
534.506733,100.0
534.522358,100.0
534.537983,100.0
534.553608,100.0
534.569233,100.0
534.584858,100.0
534.600483,100.0
534.616108,100.0
534.631733,100.0
534.647358,100.0
534.662983,100.0
534.678608,100.0
534.694233,100.0
534.709858,100.0
534.725483,100.0
534.741108,100.0
534.756733,100.0
534.772358,100.0
534.787983,100.0
534.803608,100.0
534.819233,100.0
534.834858,100.0
534.850483,100.0
534.866108,100.0
534.881733,100.0
534.897358,100.0
534.912983,100.0
534.928608,100.0
534.944233,100.0
534.959858,100.0
534.975483,100.0
534.991108,100.0
535.006733,100.0
535.022358,100.0
535.037983,100.0
535.053608,100.0
535.069233,100.0
535.084858,100.0
535.100483,100.0
535.116108,100.0
535.131733,100.0
535.147358,100.0
535.162983,100.0
535.178608,100.0
535.194233,100.0
535.209858,100.0
535.225483,100.0
535.241108,100.0
535.256733,100.0
535.272358,100.0
535.287983,100.0
535.303608,100.0
535.319233,100.0
535.334858,100.0
535.350483,100.0
535.366108,100.0
535.381733,100.0
535.397358,100.0
535.412983,100.0
535.428608,100.0
535.444233,100.0
535.459858,100.0
535.475483,100.0
535.491108,100.0
535.506733,100.0
535.522358,100.0
535.537983,100.0
535.553608,100.0
535.569233,100.0
535.584858,100.0
535.600483,100.0
535.616108,100.0
535.631733,100.0
535.647358,100.0
535.662983,100.0
535.678608,100.0
535.694233,100.0
535.709858,100.0
535.725483,100.0
535.741108,100.0
535.756733,100.0
535.772358,100.0
535.787983,100.0
535.803608,99.9800033569336
535.819233,99.9700012207031
535.834858,99.9599990844727
535.850483,99.9499969482422
535.866108,99.9300003051758
535.881733,99.9199981689453
535.897358,99.9100036621094
535.912983,99.9000015258789
535.928608,99.9000015258789
535.944233,99.9000015258789
535.959858,99.9000015258789
535.975483,99.9000015258789
535.991108,99.9000015258789
536.006733,99.9000015258789
536.022358,99.9000015258789
536.037983,99.9000015258789
536.053608,99.9000015258789
536.069233,99.9000015258789
536.084858,99.9000015258789
536.100483,99.9000015258789
536.116108,99.9000015258789
536.131733,99.9000015258789
536.147358,99.9000015258789
536.162983,99.9000015258789
536.178608,99.9000015258789
536.194233,99.9000015258789
536.209858,99.9000015258789
536.225483,99.9000015258789
536.241108,99.9000015258789
536.256733,99.9000015258789
536.272358,99.9000015258789
536.287983,99.9000015258789
536.303608,99.9000015258789
536.319233,99.9000015258789
536.334858,99.9000015258789
536.350483,99.9000015258789
536.366108,99.879997253418
536.381733,99.870002746582
536.397358,99.8600006103516
536.412983,99.8499984741211
536.428608,99.8300018310547
536.444233,99.8199996948242
536.459858,99.8099975585938
536.475483,99.8000030517578
536.491108,99.8000030517578
536.506733,99.8000030517578
536.522358,99.8000030517578
536.537983,99.8000030517578
536.553608,99.8000030517578
536.569233,99.8000030517578
536.584858,99.8000030517578
536.600483,99.8000030517578
536.616108,99.8000030517578
