Time(s),Value(%)
488.0083798,-56.310001373291
488.0240048,-54.3300018310547
488.0396298,-51.6699981689453
488.0552548,-48.3400001525879
488.0708798,-44.2400016784668
488.0865048,-39.0999984741211
488.1021298,-32.3300018310547
488.1177548,-22.7999992370605
488.1333798,-9.03999996185303
488.1490048,10.2700004577637
488.1646298,35.5200004577637
488.1802548,64.7300033569336
488.1958798,93.120002746582
488.2115048,114.910003662109
488.2271298,126.01000213623
488.2427548,125.51000213623
488.2583798,115.410003662109
488.2740048,99.3000030517578
488.2896298,80.7600021362305
488.3052548,62.3400001525879
488.3208798,45.2099990844727
488.3365048,29.5799999237061
488.3521298,15.2200002670288
488.3677548,1.76999998092651
488.3833798,-11.0699996948242
488.3990048,-22.9799995422363
488.4146298,-32.9199981689453
488.4302548,-39.7299995422363
488.4458798,-42.8499984741211
488.4615048,-42.6599998474121
488.4771298,-40.4599990844727
488.4927548,-37.9300003051758
488.5083798,-36.5999984741211
488.5240048,-37.4599990844727
488.5396298,-40.5800018310547
488.5552548,-44.9900016784668
488.5708798,-49.2599983215332
488.5865048,-52.2400016784668
488.6021298,-53.5099983215332
488.6177548,-53.2400016784668
488.6333798,-51.8499984741211
488.6490048,-49.7999992370605
488.6646298,-47.4599990844727
488.6802548,-44.9700012207031
488.6958798,-42.2799987792969
488.7115048,-39.2099990844727
488.7271298,-35.6599998474121
488.7427548,-31.6299991607666
488.7583798,-27.1700000762939
488.7740048,-21.9099998474121
488.7896298,-14.710000038147
488.8052548,-3.73000001907349
488.8208798,12.5200004577637
488.8365048,34.1399993896484
488.8521298,59.2900009155273
488.8677548,84.4899978637695
488.8833798,105.76000213623
488.8990048,119.839996337891
488.9146298,125.050003051758
488.9302548,121.550003051758
488.9458798,111.069999694824
488.9615048,96.1399993896484
488.9771298,79.1900024414063
488.9927548,61.8400001525879
489.0083798,44.810001373291
489.0240048,28.3099994659424
489.0396298,12.8000001907349
489.0552548,-0.660000026226044
489.0708798,-10.8400001525879
489.0865048,-17.0699996948242
489.1021298,-19.6200008392334
489.1177548,-19.5100002288818
489.1333798,-18.0100002288818
489.1490048,-16.2000007629395
489.1646298,-14.8900003433228
489.1802548,-14.539999961853
489.1958798,-15.3299999237061
489.2115048,-17.1399993896484
489.2271298,-19.6299991607666
489.2427548,-22.4599990844727
489.2583798,-25.3999996185303
489.2740048,-28.3999996185303
489.2896298,-31.3899993896484
489.3052548,-34.1300010681152
489.3208798,-36.310001373291
489.3365048,-37.75
489.3521298,-38.4500007629395
489.3677548,-38.5400009155273
489.3833798,-38.189998626709
489.3990048,-37.5
489.4146298,-36.4099998474121
489.4302548,-34.5200004577637
489.4458798,-30.9799995422363
489.4615048,-24.7000007629395
489.4771298,-14.5799999237061
489.4927548,0.389999985694885
489.5083798,20.8099994659424
489.5240048,46.25
489.5396298,74.2099990844727
489.5552548,100.089996337891
489.5708798,119.01000213623
489.5865048,127.98999786377
489.6021298,126.669998168945
489.6177548,116.819999694824
489.6333798,101.25
489.6490048,82.8199996948242
489.6646298,63.4900016784668
489.6802548,44.2700004577637
489.6958798,25.7999992370605
489.7115048,8.97000026702881
489.7271298,-5.32999992370605
489.7427548,-16.5799999237061
489.7583798,-24.5300006866455
489.7740048,-29.0300006866455
489.7896298,-30.0799999237061
489.8052548,-28.3099994659424
489.8208798,-25.0599994659424
489.8365048,-21.9400005340576
489.8521298,-20.1700000762939
489.8677548,-20.2900009155273
489.8833798,-21.9699993133545
489.8990048,-24.2000007629395
489.9146298,-25.9500007629395
489.9302548,-26.7700004577637
489.9458798,-26.9200000762939
489.9615048,-27.0
489.9771298,-27.6599998474121
489.9927548,-29.4500007629395
490.0083798,-32.5499992370605
490.0240048,-36.6500015258789
490.0396298,-41.2900009155273
490.0552548,-46.0499992370605
490.0708798,-50.3499984741211
490.0865048,-53.3800010681152
490.1021298,-54.4900016784668
490.1177548,-53.6399993896484
490.1333798,-51.6399993896484
490.1490048,-49.7700004577637
490.1646298,-48.7400016784668
490.1802548,-47.6199989318848
490.1958798,-43.7799987792969
490.2115048,-34.0200004577637
490.2271298,-16.3899993896484
490.2427548,8.14000034332275
490.2583798,35.689998626709
490.2740048,60.8600006103516
490.2896298,78.9899978637695
490.3052548,87.620002746582
490.3208798,86.7200012207031
490.3365048,78.2099990844727
490.3521298,64.9400024414063
490.3677548,49.6300010681152
490.3833798,34.0699996948242
490.3990048,19.2000007629395
490.4146298,5.63000011444092
490.4302548,-6.15000009536743
490.4458798,-16.1800003051758
490.4615048,-24.5900001525879
490.4771298,-31.1499996185303
490.4927548,-35.4000015258789
490.5083798,-37.3800010681152
490.5240048,-37.7400016784668
490.5396298,-37.3499984741211
490.5552548,-36.7599983215332
490.5708798,-36.0999984741211
490.5865048,-35.3800010681152
490.6021298,-34.9300003051758
490.6177548,-35.439998626709
490.6333798,-37.6300010681152
490.6490048,-41.5800018310547
490.6646298,-46.5099983215332
490.6802548,-51.2099990844727
490.6958798,-54.7599983215332
490.7115048,-56.810001373291
490.7271298,-57.4799995422363
490.7427548,-57.060001373291
490.7583798,-55.8199996948242
490.7740048,-53.9300003051758
490.7896298,-51.4799995422363
490.8052548,-48.5400009155273
490.8208798,-45.2000007629395
490.8365048,-41.4300003051758
490.8521298,-37.0099983215332
490.8677548,-31.3999996185303
490.8833798,-23.75
490.8990048,-13.0
490.9146298,1.9099999666214
490.9302548,21.5
490.9458798,45.2000007629395
490.9615048,70.7200012207031
490.9771298,94.0599975585938
490.9927548,111.01000213623
491.0083798,119.089996337891
491.0240048,118.25
491.0396298,110.470001220703
491.0552548,98.4800033569336
491.0708798,84.6900024414063
491.0865048,70.5599975585938
491.1021298,56.7000007629395
491.1177548,43.3199996948242
491.1333798,30.7600002288818
491.1490048,19.6900005340576
491.1646298,10.8999996185303
491.1802548,4.94999980926514
491.1958798,1.97000002861023
491.2115048,1.52999997138977
491.2271298,2.84999990463257
491.2427548,5.0
491.2583798,7.0
491.2740048,7.8899998664856
491.2896298,7.0
491.3052548,4.1399998664856
491.3208798,-0.209999993443489
491.3365048,-5.19999980926514
491.3521298,-10.0100002288818
491.3677548,-14.25
491.3833798,-17.9799995422363
491.3990048,-21.4500007629395
491.4146298,-24.8799991607666
491.4302548,-28.2399997711182
491.4458798,-31.3400001525879
491.4615048,-34.0
491.4771298,-36.0
491.4927548,-37.0999984741211
491.5083798,-37.1300010681152
491.5240048,-35.9300003051758
491.5396298,-33.2099990844727
491.5552548,-28.1499996185303
491.5708798,-19.5
491.5865048,-6.1100001335144
491.6021298,12.2600002288818
491.6177548,34.4799995422363
491.6333798,58.0200004577637
491.6490048,79.5100021362305
491.6646298,95.6999969482422
491.6802548,104.309997558594
491.6958798,104.629997253418
491.7115048,97.370002746582
491.7271298,84.2099990844727
491.7427548,67.2300033569336
491.7583798,48.3899993896484
491.7740048,29.0599994659424
491.7896298,9.81999969482422
491.8052548,-9.27999973297119
491.8208798,-27.9899997711182
491.8365048,-45.0699996948242
491.8521298,-58.6599998474121
491.8677548,-67.2799987792969
491.8833798,-70.5800018310547
491.8990048,-69.3899993896484
491.9146298,-65.2300033569336
491.9302548,-59.689998626709
491.9458798,-54.0900001525879
491.9615048,-49.3600006103516
491.9771298,-46.0499992370605
491.9927548,-44.2400016784668
492.0083798,-43.5800018310547
492.0240048,-43.560001373291
492.0396298,-43.7799987792969
492.0552548,-44.0999984741211
492.0708798,-44.5099983215332
492.0865048,-44.9300003051758
492.1021298,-45.2799987792969
492.1177548,-45.3800010681152
492.1333798,-44.9700012207031
492.1490048,-43.7999992370605
492.1646298,-41.7999992370605
492.1802548,-39.1300010681152
492.1958798,-36.1100006103516
492.2115048,-32.8699989318848
492.2271298,-28.9400005340576
492.2427548,-23.1499996185303
492.2583798,-13.7700004577637
492.2740048,0.839999973773956
492.2896298,21.5100002288818
492.3052548,47.439998626709
492.3208798,75.7300033569336
492.3365048,101.76000213623
492.3521298,121.019996643066
492.3677548,130.809997558594
492.3833798,130.960006713867
492.3990048,123.379997253418
492.4146298,111.050003051758
492.4302548,96.629997253418
492.4458798,81.5199966430664
492.4615048,66.0400009155273
492.4771298,50.2200012207031
492.4927548,34.3800010681152
492.5083798,19.1000003814697
492.5240048,5.17000007629395
492.5396298,-6.65999984741211
492.5552548,-15.8699998855591
492.5708798,-22.1900005340576
492.5865048,-25.8099994659424
492.6021298,-27.4300003051758
492.6177548,-28.0599994659424
492.6333798,-28.5400009155273
492.6490048,-29.3799991607666
492.6646298,-30.7000007629395
492.6802548,-32.5099983215332
492.6958798,-34.8699989318848
492.7115048,-37.810001373291
492.7271298,-41.0699996948242
492.7427548,-44.0699996948242
492.7583798,-46.1599998474121
492.7740048,-46.8300018310547
492.7896298,-46.0499992370605
492.8052548,-44.2900009155273
492.8208798,-42.1800003051758
492.8365048,-40.0699996948242
492.8521298,-38.0
492.8677548,-35.9500007629395
492.8833798,-34.0
492.8990048,-32.2400016784668
492.9146298,-30.5200004577637
492.9302548,-27.8799991607666
492.9458798,-22.3099994659424
492.9615048,-11.4799995422363
492.9771298,5.76000022888184
492.9927548,28.4300003051758
493.0083798,53.4900016784668
493.0240048,76.8899993896484
493.0396298,94.8899993896484
493.0552548,105.279998779297
493.0708798,107.650001525879
493.0865048,102.900001525879
493.1021298,92.6600036621094
493.1177548,78.8199996948242
493.1333798,63.1399993896484
493.1490048,46.7599983215332
493.1646298,30.1599998474121
493.1802548,13.5100002288818
493.1958798,-2.51999998092651
493.2115048,-16.7800006866455
493.2271298,-28.2600002288818
493.2427548,-36.7599983215332
493.2583798,-42.689998626709
493.2740048,-46.5200004577637
493.2896298,-48.5800018310547
493.3052548,-49.2000007629395
493.3208798,-48.9000015258789
493.3365048,-48.3600006103516
493.3521298,-48.1100006103516
493.3677548,-48.4199981689453
493.3833798,-49.3600006103516
493.3990048,-50.8199996948242
493.4146298,-52.5400009155273
493.4302548,-54.1699981689453
493.4458798,-55.4300003051758
493.4615048,-56.3199996948242
493.4771298,-56.8499984741211
493.4927548,-56.8800010681152
493.5083798,-56.2000007629395
493.5240048,-54.6800003051758
493.5396298,-52.310001373291
493.5552548,-49.1599998474121
493.5708798,-45.3499984741211
493.5865048,-40.9900016784668
493.6021298,-36.0400009155273
493.6177548,-30.1100006103516
493.6333798,-22.2999992370605
493.6490048,-11.3400001525879
493.6646298,3.99000000953674
493.6802548,23.8600006103516
493.6958798,46.1199989318848
493.7115048,67.4899978637695
493.7271298,86.0800018310547
493.7427548,101.639999389648
493.7583798,113.930000305176
493.7740048,122.029998779297
493.7896298,125.120002746582
493.8052548,123.290000915527
493.8208798,117.349998474121
493.8365048,108.370002746582
493.8521298,97.3199996948242
493.8677548,85.120002746582
493.8833798,72.6100006103516
493.8990048,60.4300003051758
493.9146298,49.0099983215332
493.9302548,38.6800003051758
493.9458798,29.7299995422363
493.9615048,22.2099990844727
493.9771298,16.0599994659424
493.9927548,11.1400003433228
494.0083798,7.30000019073486
494.0240048,4.30000019073486
494.0396298,1.91999995708466
494.0552548,-0.119999997317791
494.0708798,-2.42000007629395
494.0865048,-5.80999994277954
494.1021298,-10.9399995803833
494.1177548,-17.7399997711182
494.1333798,-25.5
494.1490048,-33.3199996948242
494.1646298,-40.5900001525879
494.1802548,-47.2000007629395
494.1958798,-53.5999984741211
494.2115048,-60.4700012207031
494.2271298,-68.3099975585938
494.2427548,-76.9100036621094
494.2583798,-85.1999969482422
494.2740048,-91.9599990844727
494.2896298,-96.5199966430664
494.3052548,-98.5599975585938
494.3208798,-97.3600006103516
494.3365048,-91.620002746582
494.3521298,-80.129997253418
494.3677548,-62.6100006103516
494.3833798,-40.2900009155273
494.3990048,-15.8999996185303
494.4146298,7.05999994277954
494.4302548,25.4599990844727
494.4458798,37.5499992370605
494.4615048,43.2999992370605
494.4771298,44.0699996948242
494.4927548,41.7299995422363
494.5083798,37.7200012207031
494.5240048,32.7400016784668
494.5396298,26.9799995422363
494.5552548,20.6000003814697
494.5708798,14.0699996948242
494.5865048,7.90000009536743
494.6021298,2.38000011444092
494.6177548,-2.53999996185303
494.6333798,-7.05000019073486
494.6490048,-11.1800003051758
494.6646298,-14.8400001525879
494.6802548,-18.0200004577637
494.6958798,-20.8299999237061
494.7115048,-23.4799995422363
494.7271298,-26.1100006103516
494.7427548,-28.6900005340576
494.7583798,-30.8999996185303
494.7740048,-32.3899993896484
494.7896298,-33.0699996948242
494.8052548,-32.9900016784668
494.8208798,-32.1800003051758
494.8365048,-30.6499996185303
494.8521298,-28.5799999237061
494.8677548,-26.1499996185303
494.8833798,-23.5200004577637
494.8990048,-20.7999992370605
494.9146298,-18.0200004577637
494.9302548,-15.25
494.9458798,-12.6199998855591
494.9615048,-10.1499996185303
494.9771298,-7.75
494.9927548,-4.96000003814697
495.0083798,-0.810000002384186
495.0240048,6.15000009536743
495.0396298,17.3299999237061
495.0552548,33.2299995422363
495.0708798,52.9900016784668
495.0865048,74.5599975585938
495.1021298,95.0500030517578
495.1177548,111.269996643066
495.1333798,120.849998474121
495.1490048,123.110000610352
495.1646298,118.949996948242
495.1802548,110.150001525879
495.1958798,98.5199966430664
495.2115048,85.370002746582
495.2271298,71.3600006103516
495.2427548,56.7599983215332
495.2583798,41.8400001525879
495.2740048,27.1900005340576
495.2896298,13.6499996185303
495.3052548,2.08999991416931
495.3208798,-6.96000003814697
495.3365048,-13.5299997329712
495.3521298,-18.0599994659424
495.3677548,-21.2399997711182
495.3833798,-23.8400001525879
495.3990048,-26.5100002288818
495.4146298,-29.6299991607666
495.4302548,-33.1100006103516
495.4458798,-36.4700012207031
495.4615048,-39.1199989318848
495.4771298,-40.7099990844727
495.4927548,-41.2599983215332
495.5083798,-41.0400009155273
495.5240048,-40.4099998474121
495.5396298,-39.5999984741211
495.5552548,-38.6500015258789
495.5708798,-37.3899993896484
495.5865048,-35.6699981689453
495.6021298,-33.439998626709
495.6177548,-30.8600006103516
495.6333798,-28.4099998474121
495.6490048,-26.6700000762939
495.6646298,-26.0
495.6802548,-26.1000003814697
495.6958798,-25.8799991607666
495.7115048,-23.3700008392334
495.7271298,-16.2700004577637
495.7427548,-3.25
495.7583798,15.0600004196167
495.7740048,36.1800003051758
495.7896298,56.6500015258789
495.8052548,73.2900009155273
495.8208798,84.0599975585938
495.8365048,88.3600006103516
495.8521298,86.8099975585938
495.8677548,80.7600021362305
495.8833798,71.6699981689453
495.8990048,60.6399993896484
495.9146298,48.25
495.9302548,34.8899993896484
495.9458798,21.0499992370605
495.9615048,7.26999998092651
495.9771298,-5.96000003814697
495.9927548,-18.2099990844727
496.0083798,-28.9500007629395
496.0240048,-37.7099990844727
496.0396298,-44.2799987792969
496.0552548,-48.8899993896484
496.0708798,-52.2000007629395
496.0865048,-55.1500015258789
496.1021298,-58.5099983215332
496.1177548,-62.5200004577637
496.1333798,-67.0299987792969
496.1490048,-71.7300033569336
496.1646298,-76.1699981689453
496.1802548,-79.8199996948242
496.1958798,-82.1900024414063
496.2115048,-83.1500015258789
496.2271298,-82.9599990844727
496.2427548,-81.9899978637695
496.2583798,-80.2900009155273
496.2740048,-77.7699966430664
496.2896298,-74.4700012207031
496.3052548,-70.6699981689453
496.3208798,-66.7200012207031
496.3365048,-62.8400001525879
496.3521298,-58.6800003051758
496.3677548,-53.1399993896484
496.3833798,-44.6300010681152
496.3990048,-31.8400001525879
496.4146298,-14.3900003433228
496.4302548,6.94000005722046
496.4458798,30.3700008392334
496.4615048,53.3800010681152
496.4771298,73.2399978637695
496.4927548,87.8399963378906
496.5083798,96.6699981689453
496.5240048,100.690002441406
496.5396298,101.379997253418
496.5552548,99.7799987792969
496.5708798,96.25
496.5865048,90.7600021362305
496.6021298,83.1800003051758
496.6177548,73.620002746582
496.6333798,62.6800003051758
496.6490048,51.4500007629395
496.6646298,41.0900001525879
496.6802548,32.4300003051758
496.6958798,25.7800006866455
496.7115048,20.9099998474121
496.7271298,17.25
496.7427548,14.0900001525879
496.7583798,10.8999996185303
496.7740048,7.48999977111816
496.7896298,3.85999989509583
496.8052548,0.0099999997764825
496.8208798,-4.03999996185303
496.8365048,-8.30000019073486
496.8521298,-12.7799997329712
496.8677548,-17.3500003814697
496.8833798,-21.6100006103516
496.8990048,-25.0699996948242
496.9146298,-27.4599990844727
496.9302548,-28.7900009155273
496.9458798,-29.3500003814697
496.9615048,-29.4200000762939
496.9771298,-28.9500007629395
496.9927548,-27.75
497.0083798,-26.1299991607666
497.0240048,-24.6800003051758
497.0396298,-23.6399993896484
497.0552548,-22.6200008392334
497.0708798,-20.7800006866455
497.0865048,-17.0599994659424
497.1021298,-10.2700004577637
497.1177548,0.790000021457672
497.1333798,16.4400005340576
497.1490048,35.2599983215332
497.1646298,54.5400009155273
497.1802548,71.3899993896484
497.1958798,83.75
497.2115048,90.8199996948242
497.2271298,92.7900009155273
497.2427548,90.3499984741211
497.2583798,84.3000030517578
497.2740048,75.4400024414063
497.2896298,64.4700012207031
497.3052548,51.8699989318848
497.3208798,37.9799995422363
497.3365048,23.3099994659424
497.3521298,8.60000038146973
497.3677548,-5.44000005722046
497.3833798,-18.25
497.3990048,-29.1000003814697
497.4146298,-37.1100006103516
497.4302548,-41.560001373291
497.4458798,-42.3300018310547
497.4615048,-40.2999992370605
497.4771298,-37.1800003051758
497.4927548,-35.2400016784668
497.5083798,-36.6500015258789
497.5240048,-42.3699989318848
497.5396298,-51.3300018310547
497.5552548,-60.9700012207031
497.5708798,-68.5899963378906
497.5865048,-72.5
497.6021298,-72.4700012207031
497.6177548,-69.620002746582
497.6333798,-65.9199981689453
497.6490048,-63.2599983215332
497.6646298,-62.5
497.6802548,-63.2299995422363
497.6958798,-64.129997253418
497.7115048,-63.8499984741211
497.7271298,-61.5499992370605
497.7427548,-56.9700012207031
497.7583798,-50.1699981689453
497.7740048,-41.3400001525879
497.7896298,-30.4799995422363
497.8052548,-17.5900001525879
497.8208798,-3.44000005722046
497.8365048,10.2299995422363
497.8521298,21.4899997711182
497.8677548,29.0900001525879
497.8833798,32.9199981689453
497.8990048,33.8199996948242
497.9146298,33.3400001525879
497.9302548,33.0499992370605
497.9458798,33.6599998474121
497.9615048,34.5699996948242
497.9771298,34.4700012207031
497.9927548,32.2700004577637
498.0083798,27.5699996948242
498.0240048,20.7600002288818
498.0396298,13.0200004577637
498.0552548,5.90000009536743
498.0708798,0.930000007152557
498.0865048,-0.660000026226044
498.1021298,1.80999994277954
498.1177548,7.90999984741211
498.1333798,15.789999961853
498.1490048,22.9300003051758
498.1646298,27.7399997711182
498.1802548,30.3199996948242
498.1958798,32.0
498.2115048,33.6599998474121
498.2271298,34.6800003051758
498.2427548,33.1399993896484
498.2583798,27.4699993133545
498.2740048,18.1700000762939
498.2896298,7.8600001335144
498.3052548,-0.310000002384186
498.3208798,-4.3899998664856
498.3365048,-4.13000011444092
498.3521298,-0.769999980926514
498.3677548,3.77999997138977
498.3833798,7.88000011444092
498.3990048,10.7399997711182
498.4146298,12.5500001907349
498.4302548,14.2700004577637
498.4458798,17.3099994659424
498.4615048,22.9500007629395
498.4771298,31.7999992370605
498.4927548,43.3199996948242
498.5083798,55.8600006103516
498.5240048,67.129997253418
498.5396298,74.9400024414063
498.5552548,78.0500030517578
498.5708798,76.4800033569336
498.5865048,71.2300033569336
498.6021298,63.9599990844727
498.6177548,56.6699981689453
498.6333798,51.0800018310547
498.6490048,47.5200004577637
498.6646298,44.7799987792969
498.6802548,41.7200012207031
498.6958798,38.4500007629395
498.7115048,35.8300018310547
498.7271298,34.0400009155273
498.7427548,32.060001373291
498.7583798,28.4400005340576
