Time(s),Value(%)
658.0034025,-69.1900024414063
658.0190275,-65.0
658.0346525,-60.8400001525879
658.0502775,-57.3499984741211
658.0659025,-54.6800003051758
658.0815275,-52.4900016784668
658.0971525,-50.0900001525879
658.1127775,-46.0900001525879
658.1284025,-37.560001373291
658.1440275,-19.7199993133545
658.1596525,12.0900001525879
658.1752775,58.4099998474121
658.1909025,112.819999694824
658.2065275,163.75
658.2221525,199.679992675781
658.2377775,214.330001831055
658.2534025,208.770004272461
658.2690275,189.800003051758
658.2846525,166.259994506836
658.3002775,145.320007324219
658.3159025,130.5
658.3315275,121.319999694824
658.3471525,114.339996337891
658.3627775,104.940002441406
658.3784025,89.4700012207031
658.3940275,67.2699966430664
658.4096525,41.2200012207031
658.4252775,16.1399993896484
658.4409025,-4.03000020980835
658.4565275,-17.9200000762939
658.4721525,-26.3700008392334
658.4877775,-31.3199996948242
658.5034025,-34.8499984741211
658.5190275,-38.6500015258789
658.5346525,-43.7599983215332
658.5502775,-50.2900009155273
658.5659025,-57.4300003051758
658.5815275,-63.939998626709
658.5971525,-68.9000015258789
658.6127775,-72.1399993896484
658.6284025,-74.0299987792969
658.6440275,-74.9700012207031
658.6596525,-75.0599975585938
658.6752775,-74.379997253418
658.6909025,-73.1600036621094
658.7065275,-71.620002746582
658.7221525,-69.7799987792969
658.7377775,-67.7200012207031
658.7534025,-65.5999984741211
658.7690275,-63.4099998474121
658.7846525,-60.8800010681152
658.8002775,-57.7000007629395
658.8159025,-53.7299995422363
658.8315275,-49.0999984741211
658.8471525,-44.0
658.8627775,-38.5400009155273
658.8784025,-32.9500007629395
658.8940275,-27.8099994659424
658.9096525,-23.7900009155273
658.9252775,-20.4599990844727
658.9409025,-14.7299995422363
658.9565275,-0.860000014305115
658.9721525,26.5400009155273
658.9877775,67.8600006103516
659.0034025,116.209999084473
659.0190275,160.160003662109
659.0346525,189.410003662109
659.0502775,199.539993286133
659.0659025,193.100006103516
659.0815275,177.080001831055
659.0971525,158.830001831055
659.1127775,143.059997558594
659.1284025,131.169998168945
659.1440275,122.129997253418
659.1596525,113.680000305176
659.1752775,103.110000610352
659.1909025,88.0500030517578
659.2065275,67.5800018310547
659.2221525,42.9599990844727
659.2377775,17.3400001525879
659.2534025,-5.53999996185303
659.2690275,-22.9200000762939
659.2846525,-33.939998626709
659.3002775,-39.9199981689453
659.3159025,-43.6399993896484
659.3315275,-47.7999992370605
659.3471525,-53.6199989318848
659.3627775,-60.5099983215332
659.3784025,-67.0699996948242
659.3940275,-72.2099990844727
659.4096525,-75.629997253418
659.4252775,-77.6900024414063
659.4409025,-79.2200012207031
659.4565275,-81.0
659.4721525,-83.3000030517578
659.4877775,-85.7900009155273
659.5034025,-87.8300018310547
659.5190275,-88.870002746582
659.5346525,-88.5699996948242
659.5502775,-87.0500030517578
659.5659025,-84.9199981689453
659.5815275,-83.1500015258789
659.5971525,-82.4599990844727
659.6127775,-82.8300018310547
659.6284025,-83.5800018310547
659.6440275,-83.8399963378906
659.6596525,-83.0699996948242
659.6752775,-81.3199996948242
659.6909025,-79.129997253418
659.7065275,-76.9599990844727
659.7221525,-74.8199996948242
659.7377775,-72.3499984741211
659.7534025,-69.120002746582
659.7690275,-64.4100036621094
659.7846525,-56.5200004577637
659.8002775,-42.0200004577637
659.8159025,-16.4599990844727
659.8315275,22.6700000762939
659.8471525,72.1999969482422
659.8627775,122.529998779297
659.8784025,161.809997558594
659.8940275,181.929992675781
659.9096525,181.929992675781
659.9252775,167.190002441406
659.9409025,146.139999389648
659.9565275,126.529998779297
659.9721525,112.949996948242
659.9877775,105.75
660.0034025,101.819999694824
660.0190275,96.4899978637695
660.0346525,85.8600006103516
660.0502775,68.2799987792969
660.0659025,44.9599990844727
660.0815275,19.3400001525879
660.0971525,-4.25
660.1127775,-22.5200004577637
660.1284025,-34.2900009155273
660.1440275,-40.3899993896484
660.1596525,-42.689998626709
660.1752775,-43.2999992370605
660.1909025,-44.2999992370605
660.2065275,-47.1399993896484
660.2221525,-52.1100006103516
660.2377775,-58.5400009155273
660.2534025,-65.1600036621094
660.2690275,-70.5500030517578
660.2846525,-73.6800003051758
660.3002775,-74.3399963378906
660.3159025,-73.2900009155273
660.3315275,-71.7099990844727
660.3471525,-70.4599990844727
660.3627775,-69.75
660.3784025,-69.2900009155273
660.3940275,-68.4199981689453
660.4096525,-66.3300018310547
660.4252775,-62.3699989318848
660.4409025,-56.5499992370605
660.4565275,-49.5299987792969
660.4721525,-42.2299995422363
660.4877775,-35.4500007629395
660.5034025,-29.6200008392334
660.5190275,-24.4599990844727
660.5346525,-18.7600002288818
660.5502775,-10.7799997329712
660.5659025,0.529999971389771
660.5815275,14.6400003433228
660.5971525,29.7700004577637
660.6127775,45.6199989318848
660.6284025,66.3499984741211
660.6440275,99.4599990844727
660.6596525,149.070007324219
660.6752775,209.279998779297
660.6909025,265.100006103516
660.7065275,301.209991455078
660.7221525,310.980010986328
660.7377775,298.579986572266
660.7534025,274.450012207031
660.7690275,248.740005493164
660.7846525,227.070007324219
660.8002775,210.25
660.8159025,196.119995117188
660.8315275,181.309997558594
660.8471525,162.630004882813
660.8627775,138.210006713867
660.8784025,108.470001220703
660.8940275,76.2200012207031
660.9096525,45.2400016784668
660.9252775,18.0799999237061
660.9409025,-5.21999979019165
660.9565275,-26.6200008392334
660.9721525,-48.3699989318848
660.9877775,-71.5400009155273
661.0034025,-95.5
661.0190275,-118.75
661.0346525,-140.320007324219
661.0502775,-160.380004882813
661.0659025,-179.800003051758
661.0815275,-199.570007324219
661.0971525,-220.380004882813
661.1127775,-242.360000610352
661.1284025,-264.940002441406
661.1440275,-287.040008544922
661.1596525,-307.049987792969
661.1752775,-322.440002441406
661.1909025,-327.679992675781
661.2065275,-323.079986572266
661.2221525,-302.549987792969
661.2377775,-271.700012207031
661.2534025,-239.059997558594
661.2690275,-212.789993286133
661.2846525,-195.800003051758
661.3002775,-184.610000610352
661.3159025,-173.059997558594
661.3315275,-157.669998168945
661.3471525,-139.820007324219
661.3627775,-123.650001525879
661.3784025,-112.440002441406
661.3940275,-106.410003662109
661.4096525,-102.930000305176
661.4252775,-98.1800003051758
661.4409025,-88.6900024414063
661.4565275,-71.2699966430664
661.4721525,-42.4300003051758
661.4877775,0.0500000007450581
661.5034025,53.7599983215332
661.5190275,110.01000213623
661.5346525,156.529998779297
661.5502775,183.279998779297
661.5659025,187.410003662109
661.5815275,174.220001220703
661.5971525,153.600006103516
661.6127775,134.850006103516
661.6284025,123.040000915527
661.6440275,118.360000610352
661.6596525,117.639999389648
661.6752775,116.519996643066
661.6909025,111.160003662109
661.7065275,99.75
661.7221525,83.0199966430664
661.7377775,63.7200012207031
661.7534025,45.1399993896484
661.7690275,29.7800006866455
661.7846525,18.7700004577637
661.8002775,11.8699998855591
661.8159025,7.78000020980835
661.8315275,4.86999988555908
661.8471525,2.02999997138977
661.8627775,-0.949999988079071
661.8784025,-3.8199999332428
661.8940275,-6.15999984741211
661.9096525,-7.67999982833862
661.9252775,-8.11999988555908
661.9409025,-7.23000001907349
661.9565275,-5.09000015258789
661.9721525,-2.19000005722046
661.9877775,0.720000028610229
662.0034025,3.17000007629395
662.0190275,5.26000022888184
662.0346525,7.48000001907349
662.0502775,10.3400001525879
662.0659025,13.8900003433228
662.0815275,17.4899997711182
662.0971525,20.2199993133545
662.1127775,21.7800006866455
662.1284025,22.8400001525879
662.1440275,24.5
662.1596525,27.2700004577637
662.1752775,30.6299991607666
662.1909025,33.6300010681152
662.2065275,35.7299995422363
662.2221525,36.9099998474121
662.2377775,37.4099998474121
662.2534025,38.3400001525879
662.2690275,43.0900001525879
662.2846525,57.4500007629395
662.3002775,86.4199981689453
662.3159025,129.289993286133
662.3315275,177.669998168945
662.3471525,219.029998779297
662.3627775,243.050003051758
662.3784025,246.059997558594
662.3940275,231.380004882813
662.4096525,206.619995117188
662.4252775,180.080001831055
662.4409025,158.050003051758
662.4565275,144.059997558594
662.4721525,138.800003051758
662.4877775,139.740005493164
662.5034025,141.440002441406
662.5190275,137.639999389648
662.5346525,124.330001831055
662.5502775,102.230003356934
662.5659025,77.0699996948242
662.5815275,56.7900009155273
662.5971525,47.1100006103516
662.6127775,48.7099990844727
662.6284025,57.1800003051758
662.6440275,65.2900009155273
662.6596525,66.0999984741211
662.6752775,55.6399993896484
662.6909025,34.0200004577637
662.7065275,4.8899998664856
662.7221525,-26.1599998474121
662.7377775,-53.9500007629395
662.7534025,-75.3899993896484
662.7690275,-89.9100036621094
662.7846525,-98.9400024414063
662.8002775,-105.029998779297
662.8159025,-110.860000610352
662.8315275,-118.160003662109
662.8471525,-127.040000915527
662.8627775,-136.479995727539
662.8784025,-145.320007324219
662.8940275,-153.100006103516
662.9096525,-160.009994506836
662.9252775,-166.520004272461
662.9409025,-172.929992675781
662.9565275,-179.440002441406
662.9721525,-186.190002441406
662.9877775,-192.839996337891
663.0034025,-197.699996948242
663.0190275,-198.089996337891
663.0346525,-192.089996337891
663.0502775,-179.690002441406
663.0659025,-161.619995117188
663.0815275,-136.759994506836
663.0971525,-101.76000213623
663.1127775,-54.3400001525879
663.1284025,2.19000005722046
663.1440275,58.0499992370605
663.1596525,100.949996948242
663.1752775,122.099998474121
663.1909025,120.01000213623
663.2065275,100.459999084473
663.2221525,73.0599975585938
663.2377775,46.8899993896484
663.2534025,27.7600002288818
663.2690275,17.7399997711182
663.2846525,15.5200004577637
663.3002775,16.9300003051758
663.3159025,16.5200004577637
663.3315275,10.1800003051758
663.3471525,-2.57999992370605
663.3627775,-18.6700000762939
663.3784025,-33.5800018310547
663.3940275,-43.9300003051758
663.4096525,-48.7299995422363
663.4252775,-49.0
663.4409025,-46.8499984741211
663.4565275,-44.5099983215332
663.4721525,-43.5800018310547
663.4877775,-44.5299987792969
663.5034025,-46.9599990844727
663.5190275,-50.189998626709
663.5346525,-53.4099998474121
663.5502775,-55.5299987792969
663.5659025,-55.5499992370605
663.5815275,-53.4199981689453
663.5971525,-50.1599998474121
663.6127775,-47.0999984741211
663.6284025,-44.7200012207031
663.6440275,-42.3600006103516
663.6596525,-39.0499992370605
663.6752775,-34.5999984741211
663.6909025,-29.6499996185303
663.7065275,-25.0
663.7221525,-20.9500007629395
663.7377775,-17.3400001525879
663.7534025,-13.8800001144409
663.7690275,-10.3900003433228
663.7846525,-6.76999998092651
663.8002775,-2.79999995231628
663.8159025,1.87999999523163
663.8315275,7.73000001907349
663.8471525,15.539999961853
663.8627775,27.4599990844727
663.8784025,47.0299987792969
663.8940275,76.9499969482422
663.9096525,115.550003051758
663.9252775,155.639999389648
663.9409025,187.309997558594
663.9565275,203.009994506836
663.9721525,201.119995117188
663.9877775,186.029998779297
664.0034025,165.130004882813
664.0190275,145.110000610352
664.0346525,129.419998168945
664.0502775,117.980003356934
664.0659025,108.400001525879
664.0815275,97.6500015258789
664.0971525,83.4199981689453
664.1127775,64.8199996948242
664.1284025,42.7200012207031
664.1440275,19.6599998474121
664.1596525,-1.11000001430511
664.1752775,-17.1800003051758
664.1909025,-27.8299999237061
664.2065275,-33.9799995422363
664.2221525,-37.4500007629395
664.2377775,-40.2200012207031
664.2534025,-43.8899993896484
664.2690275,-49.1599998474121
664.2846525,-55.5299987792969
664.3002775,-61.5800018310547
664.3159025,-65.8199996948242
664.3315275,-67.6900024414063
664.3471525,-67.8300018310547
664.3627775,-67.5199966430664
664.3784025,-67.8199996948242
664.3940275,-69.0199966430664
664.4096525,-70.870002746582
664.4252775,-72.9599990844727
664.4409025,-74.8399963378906
664.4565275,-75.870002746582
664.4721525,-75.5400009155273
664.4877775,-73.7699966430664
664.5034025,-70.6600036621094
664.5190275,-66.3499984741211
664.5346525,-61.3600006103516
664.5502775,-56.4099998474121
664.5659025,-51.9700012207031
664.5815275,-48.0800018310547
664.5971525,-44.4900016784668
664.6127775,-40.8300018310547
664.6284025,-36.8899993896484
664.6440275,-32.5400009155273
664.6596525,-26.7299995422363
664.6752775,-16.2199993133545
664.6909025,3.86999988555908
664.7065275,36.5499992370605
664.7221525,78.9499969482422
664.7377775,121.919998168945
664.7534025,154.360000610352
664.7690275,168.830001831055
664.7846525,164.729995727539
664.8002775,147.25
664.8159025,123.860000610352
664.8315275,101.209999084473
664.8471525,83.5699996948242
664.8627775,72.1999969482422
664.8784025,65.370002746582
664.8940275,59.4000015258789
664.9096525,50.5499992370605
664.9252775,36.8699989318848
664.9409025,19.0499992370605
664.9565275,0.0799999982118607
664.9721525,-16.3999996185303
664.9877775,-27.9400005340576
665.0034025,-34.1300010681152
665.0190275,-36.5999984741211
665.0346525,-38.189998626709
665.0502775,-41.6300010681152
665.0659025,-48.2099990844727
665.0815275,-57.2400016784668
665.0971525,-66.7699966430664
665.1127775,-74.620002746582
665.1284025,-79.1999969482422
665.1440275,-80.0599975585938
665.1596525,-78.1399993896484
665.1752775,-75.4499969482422
665.1909025,-73.879997253418
665.2065275,-73.9899978637695
665.2221525,-74.9499969482422
665.2377775,-75.2600021362305
665.2534025,-73.8600006103516
665.2690275,-70.7600021362305
665.2846525,-66.7799987792969
665.3002775,-62.7799987792969
665.3159025,-59.3300018310547
665.3315275,-56.439998626709
665.3471525,-53.560001373291
665.3627775,-50.0400009155273
665.3784025,-45.7700004577637
665.3940275,-41.3300018310547
665.4096525,-37.7799987792969
665.4252775,-36.0200004577637
665.4409025,-35.9500007629395
665.4565275,-35.8600006103516
665.4721525,-32.0299987792969
665.4877775,-19.2600002288818
665.5034025,6.69999980926514
665.5190275,45.4599990844727
665.5346525,90.1999969482422
665.5502775,130.199996948242
665.5659025,155.910003662109
665.5815275,163.130004882813
665.5971525,153.970001220703
665.6127775,134.960006713867
665.6284025,113.819999694824
665.6440275,96.6999969482422
665.6596525,86.3000030517578
665.6752775,81.6900024414063
665.6909025,79.629997253418
665.7065275,76.2799987792969
665.7221525,68.4499969482422
665.7377775,54.5900001525879
665.7534025,35.5499992370605
665.7690275,14.4300003051758
665.7846525,-4.6100001335144
665.8002775,-18.4099998474121
665.8159025,-26.2299995422363
665.8315275,-29.7800006866455
665.8471525,-31.8199996948242
665.8627775,-34.7900009155273
665.8784025,-40.1100006103516
665.8940275,-48.2200012207031
665.9096525,-58.5699996948242
665.9252775,-69.5299987792969
665.9409025,-78.8399963378906
665.9565275,-84.9100036621094
665.9721525,-87.4100036621094
665.9877775,-86.8199996948242
666.0034025,-84.0100021362305
666.0190275,-80.3199996948242
666.0346525,-77.6500015258789
666.0502775,-77.6699981689453
666.0659025,-80.8099975585938
666.0815275,-85.620002746582
666.0971525,-89.0599975585938
666.1127775,-87.9499969482422
666.1284025,-81.0100021362305
666.1440275,-69.6600036621094
666.1596525,-56.810001373291
666.1752775,-45.2400016784668
666.1909025,-36.6199989318848
666.2065275,-31.4200000762939
666.2221525,-28.9899997711182
666.2377775,-28.1399993896484
666.2534025,-27.7099990844727
666.2690275,-26.4200000762939
666.2846525,-22.1399993896484
666.3002775,-11.3000001907349
666.3159025,10.1700000762939
666.3315275,44.2700004577637
666.3471525,87.9400024414063
666.3627775,132.820007324219
666.3784025,168.649993896484
666.3940275,188.300003051758
666.4096525,190.809997558594
666.4252775,180.669998168945
666.4409025,164.699996948242
666.4565275,148.809997558594
666.4721525,136.179992675781
666.4877775,127.129997253418
666.5034025,120.190002441406
666.5190275,113.26000213623
666.5346525,104.279998779297
666.5502775,91.6500015258789
666.5659025,74.5400009155273
666.5815275,53.4199981689453
666.5971525,30.5100002288818
666.6127775,9.27000045776367
666.6284025,-7.15000009536743
666.6440275,-17.6399993896484
666.6596525,-23.5100002288818
666.6752775,-27.6800003051758
666.6909025,-33.0400009155273
666.7065275,-41.0400009155273
666.7221525,-51.1599998474121
666.7377775,-61.7200012207031
666.7534025,-70.7600021362305
666.7690275,-76.75
666.7846525,-79.2399978637695
666.8002775,-79.1100006103516
666.8159025,-78.1800003051758
666.8315275,-78.1500015258789
666.8471525,-79.8600006103516
666.8627775,-83.0100021362305
666.8784025,-86.5699996948242
666.8940275,-89.379997253418
666.9096525,-90.4700012207031
666.9252775,-89.4300003051758
666.9409025,-86.4300003051758
666.9565275,-82.0100021362305
666.9721525,-76.620002746582
666.9877775,-70.4800033569336
667.0034025,-63.7700004577637
667.0190275,-56.9900016784668
667.0346525,-51.0800018310547
667.0502775,-46.9700012207031
667.0659025,-44.9199981689453
667.0815275,-44.0400009155273
667.0971525,-41.810001373291
667.1127775,-33.8600006103516
667.1284025,-14.710000038147
667.1440275,19.2600002288818
667.1596525,66.0800018310547
667.1752775,117.25
667.1909025,161.119995117188
667.2065275,188.509994506836
667.2221525,196.589996337891
667.2377775,189.039993286133
667.2534025,173.089996337891
667.2690275,155.699996948242
667.2846525,140.660003662109
667.3002775,128.0
667.3159025,115.98999786377
667.3315275,103.650001525879
667.3471525,90.8499984741211
667.3627775,76.7300033569336
667.3784025,59.1300010681152
667.3940275,36.5200004577637
667.4096525,10.5799999237061
667.4252775,-13.4099998474121
667.4409025,-29.7999992370605
667.4565275,-36.6199989318848
667.4721525,-36.8800010681152
667.4877775,-35.9500007629395
667.5034025,-38.1300010681152
667.5190275,-45.2400016784668
667.5346525,-56.9799995422363
667.5502775,-71.5999984741211
667.5659025,-86.2399978637695
667.5815275,-97.8099975585938
667.5971525,-104.559997558594
667.6127775,-107.430000305176
667.6284025,-109.589996337891
667.6440275,-113.900001525879
667.6596525,-120.190002441406
667.6752775,-125.160003662109
667.6909025,-124.839996337891
667.7065275,-117.790000915527
667.7221525,-106.139999389648
667.7377775,-93.9499969482422
667.7534025,-84.3300018310547
667.7690275,-77.8600006103516
667.7846525,-73.3300018310547
667.8002775,-69.8600006103516
667.8159025,-67.8099975585938
667.8315275,-67.3600006103516
667.8471525,-66.7699966430664
667.8627775,-63.0200004577637
667.8784025,-54.0200004577637
667.8940275,-39.0200004577637
667.9096525,-16.75
667.9252775,15.1099996566772
667.9409025,57.25
667.9565275,105.959999084473
667.9721525,153.580001831055
667.9877775,191.449996948242
668.0034025,213.259994506836
668.0190275,217.509994506836
668.0346525,207.720001220703
668.0502775,190.639999389648
668.0659025,172.979995727539
668.0815275,158.529998779297
668.0971525,147.240005493164
668.1127775,136.289993286133
668.1284025,122.410003662109
668.1440275,103.75
668.1596525,80.5500030517578
668.1752775,54.939998626709
668.1909025,30.1299991607666
668.2065275,9.3100004196167
668.2221525,-5.6100001335144
668.2377775,-14.710000038147
668.2534025,-20.1000003814697
668.2690275,-24.9400005340576
668.2846525,-31.5599994659424
668.3002775,-40.3800010681152
668.3159025,-50.3400001525879
668.3315275,-59.8699989318848
668.3471525,-67.5100021362305
668.3627775,-72.2099990844727
668.3784025,-73.6399993896484
668.3940275,-72.1399993896484
668.4096525,-68.2399978637695
668.4252775,-62.4599990844727
668.4409025,-55.8199996948242
668.4565275,-50.2599983215332
668.4721525,-47.5800018310547
668.4877775,-47.9599990844727
668.5034025,-50.0400009155273
668.5190275,-52.6100006103516
668.5346525,-55.2400016784668
668.5502775,-57.5800018310547
668.5659025,-58.5099983215332
668.5815275,-56.6800003051758
668.5971525,-51.8499984741211
668.6127775,-45.5999984741211
668.6284025,-40.3800010681152
668.6440275,-37.5499992370605
668.6596525,-35.939998626709
668.6752775,-31.4599990844727
