Time(s),Value(%)
1431.0024319,8.42000007629395
1431.0180569,5.44000005722046
1431.0336819,2.85999989509583
1431.0493069,1.51999998092651
1431.0649319,1.1599999666214
1431.0805569,0.779999971389771
1431.0961819,-0.5
1431.1118069,-2.85999989509583
1431.1274319,-6.09999990463257
1431.1430569,-10.3999996185303
1431.1586819,-16.6200008392334
1431.1743069,-25.6700000762939
1431.1899319,-37.6300010681152
1431.2055569,-51.0400009155273
1431.2211819,-62.7000007629395
1431.2368069,-68.5
1431.2524319,-65.8099975585938
1431.2680569,-55.560001373291
1431.2836819,-42.3600006103516
1431.2993069,-31.7900009155273
1431.3149319,-26.6299991607666
1431.3305569,-25.6700000762939
1431.3461819,-25.8199996948242
1431.3618069,-24.6599998474121
1431.3774319,-21.6200008392334
1431.3930569,-17.5
1431.4086819,-13.4700002670288
1431.4243069,-10.2700004577637
1431.4399319,-7.98999977111816
1431.4555569,-6.51000022888184
1431.4711819,-5.69999980926514
1431.4868069,-5.3600001335144
1431.5024319,-5.1399998664856
1431.5180569,-4.73000001907349
1431.5336819,-3.88000011444092
1431.5493069,-2.42000007629395
1431.5649319,-0.610000014305115
1431.5805569,0.589999973773956
1431.5961819,0.0299999993294477
1431.6118069,-2.79999995231628
1431.6274319,-7.44000005722046
1431.6430569,-12.5799999237061
1431.6586819,-16.6800003051758
1431.6743069,-18.6900005340576
1431.6899319,-18.4200000762939
1431.7055569,-16.2399997711182
1431.7211819,-12.6700000762939
1431.7368069,-8.05000019073486
1431.7524319,-2.65000009536743
1431.7680569,3.00999999046326
1431.7836819,7.94999980926514
1431.7993069,10.9300003051758
1431.8149319,11.039999961853
1431.8305569,8.23999977111816
1431.8461819,3.34999990463257
1431.8618069,-2.55999994277954
1431.8774319,-8.76000022888184
1431.8930569,-15.039999961853
1431.9086819,-21.5900001525879
1431.9243069,-28.4099998474121
1431.9399319,-34.8699989318848
1431.9555569,-40.1300010681152
1431.9711819,-44.0699996948242
1431.9868069,-47.5900001525879
1432.0024319,-52.1399993896484
1432.0180569,-58.5099983215332
1432.0336819,-65.5899963378906
1432.0493069,-70.5400009155273
1432.0649319,-70.5400009155273
1432.0805569,-64.0500030517578
1432.0961819,-51.439998626709
1432.1118069,-34.9500007629395
1432.1274319,-17.5599994659424
1432.1430569,-1.05999994277954
1432.1586819,15.0200004577637
1432.1743069,32.5299987792969
1432.1899319,52.4799995422363
1432.2055569,73.6800003051758
1432.2211819,93.0699996948242
1432.2368069,107.220001220703
1432.2524319,114.050003051758
1432.2680569,113.620002746582
1432.2836819,107.680000305176
1432.2993069,98.5199966430664
1432.3149319,88.120002746582
1432.3305569,77.9700012207031
1432.3461819,69.2300033569336
1432.3618069,63.0
1432.3774319,60.0800018310547
1432.3930569,60.4599990844727
1432.4086819,62.7299995422363
1432.4243069,64.25
1432.4399319,62.2799987792969
1432.4555569,55.3899993896484
1432.4711819,43.9900016784668
1432.4868069,29.4799995422363
1432.5024319,12.6000003814697
1432.5180569,-7.23999977111816
1432.5336819,-30.6000003814697
1432.5493069,-56.0999984741211
1432.5649319,-79.5199966430664
1432.5805569,-94.9199981689453
1432.5961819,-97.7699966430664
1432.6118069,-87.3499984741211
1432.6274319,-66.5899963378906
1432.6430569,-40.0499992370605
1432.6586819,-12.1499996185303
1432.6743069,13.6599998474121
1432.6899319,35.2599983215332
1432.7055569,51.9199981689453
1432.7211819,64.2099990844727
1432.7368069,73.3499984741211
1432.7524319,80.4400024414063
1432.7680569,86.0400009155273
1432.7836819,90.3199996948242
1432.7993069,93.5800018310547
1432.8149319,96.5999984741211
1432.8305569,100.129997253418
1432.8461819,104.190002441406
1432.8618069,108.029998779297
1432.8774319,110.639999389648
1432.8930569,111.410003662109
1432.9086819,110.379997253418
1432.9243069,108.029998779297
1432.9399319,104.889999389648
1432.9555569,101.26000213623
1432.9711819,97.3499984741211
1432.9868069,93.3099975585938
1433.0024319,89.370002746582
1433.0180569,86.0199966430664
1433.0336819,83.9499969482422
1433.0493069,83.9000015258789
1433.0649319,85.6800003051758
1433.0805569,87.5500030517578
1433.0961819,87.0800018310547
1433.1118069,82.8000030517578
1433.1274319,74.9100036621094
1433.1430569,65.0699996948242
1433.1586819,55.5299987792969
1433.1743069,47.8800010681152
1433.1899319,42.2999992370605
1433.2055569,37.5299987792969
1433.2211819,31.4699993133545
1433.2368069,22.0200004577637
1433.2524319,8.18000030517578
1433.2680569,-9.55000019073486
1433.2836819,-29.6299991607666
1433.2993069,-50.0099983215332
1433.3149319,-68.7099990844727
1433.3305569,-84.2399978637695
1433.3461819,-96.129997253418
1433.3618069,-104.98999786377
1433.3774319,-112.029998779297
1433.3930569,-118.26000213623
1433.4086819,-123.930000305176
1433.4243069,-128.570007324219
1433.4399319,-131.630004882813
1433.4555569,-132.860000610352
1433.4711819,-132.479995727539
1433.4868069,-131.119995117188
1433.5024319,-129.490005493164
1433.5180569,-127.980003356934
1433.5336819,-126.279998779297
1433.5493069,-123.470001220703
1433.5649319,-118.309997558594
1433.5805569,-109.669998168945
1433.5961819,-97.4100036621094
1433.6118069,-83.5
1433.6274319,-71.3399963378906
1433.6430569,-62.9500007629395
1433.6586819,-57.2299995422363
1433.6743069,-51.5900001525879
1433.6899319,-44.4700012207031
1433.7055569,-36.1300010681152
1433.7211819,-27.3700008392334
1433.7368069,-17.6599998474121
1433.7524319,-4.6100001335144
1433.7680569,14.7799997329712
1433.7836819,42.6599998474121
1433.7993069,79.6500015258789
1433.8149319,123.690002441406
1433.8305569,169.649993896484
1433.8461819,211.949996948242
1433.8618069,247.270004272461
1433.8774319,273.730010986328
1433.8930569,288.489990234375
1433.9086819,286.809997558594
1433.9243069,262.059997558594
1433.9399319,207.089996337891
1433.9555569,118.25
1433.9711819,-0.270000010728836
1433.9868069,-136.0
1434.0024319,-272.200012207031
1434.0180569,-327.679992675781
1434.0336819,-327.679992675781
1434.0493069,-327.679992675781
1434.0649319,-327.679992675781
1434.0805569,-327.679992675781
1434.0961819,-327.679992675781
1434.1118069,-327.679992675781
1434.1274319,-327.679992675781
1434.1430569,-327.679992675781
1434.1586819,-278.410003662109
1434.1743069,-82.6800003051758
1434.1899319,123.879997253418
1434.2055569,299.029998779297
1434.2211819,327.670013427734
1434.2368069,327.670013427734
1434.2524319,327.670013427734
1434.2680569,289.869995117188
1434.2836819,198.660003662109
1434.2993069,123.23999786377
1434.3149319,69.5699996948242
1434.3305569,33.1199989318848
1434.3461819,5.6100001335144
1434.3618069,-19.3099994659424
1434.3774319,-43.6500015258789
1434.3930569,-65.9400024414063
1434.4086819,-83.7200012207031
1434.4243069,-95.2699966430664
1434.4399319,-100.040000915527
1434.4555569,-98.6800003051758
1434.4711819,-93.0299987792969
1434.4868069,-85.5999984741211
1434.5024319,-78.5599975585938
1434.5180569,-72.9700012207031
1434.5336819,-68.5400009155273
1434.5493069,-64.0
1434.5649319,-58.0099983215332
1434.5805569,-49.9099998474121
1434.5961819,-40.1599998474121
1434.6118069,-30.0499992370605
1434.6274319,-20.9300003051758
1434.6430569,-13.4499998092651
1434.6586819,-7.46000003814697
1434.6743069,-2.52999997138977
1434.6899319,1.85000002384186
1434.7055569,6.57999992370605
1434.7211819,12.5100002288818
1434.7368069,19.7700004577637
1434.7524319,27.6399993896484
1434.7680569,35.0800018310547
1434.7836819,41.5200004577637
1434.7993069,47.310001373291
1434.8149319,53.0400009155273
1434.8305569,58.5699996948242
1434.8461819,63.5299987792969
1434.8618069,68.5699996948242
1434.8774319,75.7200012207031
1434.8930569,87.1600036621094
1434.9086819,103.839996337891
1434.9243069,125.430000305176
1434.9399319,151.130004882813
1434.9555569,179.460006713867
1434.9711819,207.660003662109
1434.9868069,232.039993286133
1435.0024319,249.009994506836
1435.0180569,256.679992675781
1435.0336819,256.480010986328
1435.0493069,252.020004272461
1435.0649319,245.589996337891
1435.0805569,236.679992675781
1435.0961819,223.809997558594
1435.1118069,206.589996337891
1435.1274319,186.210006713867
1435.1430569,164.610000610352
1435.1586819,143.550003051758
1435.1743069,124.129997253418
1435.1899319,106.790000915527
1435.2055569,91.2600021362305
1435.2211819,76.6500015258789
1435.2368069,61.9000015258789
1435.2524319,46.3199996948242
1435.2680569,29.8299999237061
1435.2836819,12.9399995803833
1435.2993069,-3.42000007629395
1435.3149319,-18.7800006866455
1435.3305569,-33.2700004577637
1435.3461819,-46.9700012207031
1435.3618069,-59.3699989318848
1435.3774319,-69.6999969482422
1435.3930569,-77.4700012207031
1435.4086819,-82.6900024414063
1435.4243069,-85.9199981689453
1435.4399319,-87.8600006103516
1435.4555569,-88.8000030517578
1435.4711819,-88.7600021362305
1435.4868069,-87.8499984741211
1435.5024319,-86.370002746582
1435.5180569,-84.7300033569336
1435.5336819,-83.0800018310547
1435.5493069,-81.3399963378906
1435.5649319,-79.5100021362305
1435.5805569,-77.9000015258789
1435.5961819,-77.0599975585938
1435.6118069,-77.4499969482422
1435.6274319,-79.6100006103516
1435.6430569,-84.870002746582
1435.6586819,-95.1600036621094
1435.6743069,-111.76000213623
1435.6899319,-133.830001831055
1435.7055569,-157.419998168945
1435.7211819,-177.369995117188
1435.7368069,-192.539993286133
1435.7524319,-208.949996948242
1435.7680569,-234.850006103516
1435.7836819,-271.429992675781
1435.7993069,-309.25
1435.8149319,-327.679992675781
1435.8305569,-327.679992675781
1435.8461819,-290.820007324219
1435.8618069,-224.649993896484
1435.8774319,-143.449996948242
1435.8930569,-63.4799995422363
1435.9086819,2.75
1435.9243069,51.310001373291
1435.9399319,86.9800033569336
1435.9555569,118.330001831055
1435.9711819,151.320007324219
1435.9868069,185.690002441406
1436.0024319,215.399993896484
1436.0180569,231.929992675781
1436.0336819,228.419998168945
1436.0493069,203.320007324219
1436.0649319,161.360000610352
1436.0805569,110.519996643066
1436.0961819,58.25
1436.1118069,10.6000003814697
1436.1274319,-27.2999992370605
1436.1430569,-51.9199981689453
1436.1586819,-62.5099983215332
1436.1743069,-61.1300010681152
1436.1899319,-51.1599998474121
1436.2055569,-35.3699989318848
1436.2211819,-14.8100004196167
1436.2368069,10.4799995422363
1436.2524319,39.9500007629395
1436.2680569,71.8199996948242
1436.2836819,103.870002746582
1436.2993069,134.470001220703
1436.3149319,162.949996948242
1436.3305569,189.039993286133
1436.3461819,211.850006103516
1436.3618069,229.479995727539
1436.3774319,239.820007324219
1436.3930569,241.770004272461
1436.4086819,235.830001831055
1436.4243069,223.690002441406
1436.4399319,207.389999389648
1436.4555569,188.789993286133
1436.4711819,169.600006103516
1436.4868069,151.259994506836
1436.5024319,135.100006103516
1436.5180569,122.190002441406
1436.5336819,112.98999786377
1436.5493069,107.25
1436.5649319,104.069999694824
1436.5805569,102.379997253418
1436.5961819,101.160003662109
1436.6118069,99.6900024414063
1436.6274319,98.0500030517578
1436.6430569,97.3000030517578
1436.6586819,98.9400024414063
1436.6743069,103.930000305176
1436.6899319,112.559997558594
1436.7055569,124.550003051758
1436.7211819,139.270004272461
1436.7368069,156.440002441406
1436.7524319,176.559997558594
1436.7680569,200.380004882813
1436.7836819,227.679992675781
1436.7993069,256.0
1436.8149319,281.070007324219
1436.8305569,298.850006103516
1436.8461819,306.140014648438
1436.8618069,299.119995117188
1436.8774319,273.450012207031
1436.8930569,226.399993896484
1436.9086819,158.520004272461
1436.9243069,76.3199996948242
1436.9399319,-4.51999998092651
1436.9555569,-63.6500015258789
1436.9711819,-88.4499969482422
1436.9868069,-79.7200012207031
1437.0024319,-45.1399993896484
1437.0180569,5.59999990463257
1437.0336819,57.7400016784668
1437.0493069,91.7399978637695
1437.0649319,92.629997253418
1437.0805569,58.8600006103516
1437.0961819,1.74000000953674
1437.1118069,-63.2000007629395
1437.1274319,-124.540000915527
1437.1430569,-177.389999389648
1437.1586819,-221.839996337891
1437.1743069,-260.589996337891
1437.1899319,-296.829986572266
1437.2055569,-327.679992675781
1437.2211819,-327.679992675781
1437.2368069,-327.679992675781
1437.2524319,-327.679992675781
1437.2680569,-327.679992675781
1437.2836819,-327.679992675781
1437.2993069,-327.679992675781
1437.3149319,-327.679992675781
1437.3305569,-327.679992675781
1437.3461819,-327.679992675781
1437.3618069,-327.679992675781
1437.3774319,-327.679992675781
1437.3930569,-327.679992675781
1437.4086819,-327.679992675781
1437.4243069,-327.679992675781
1437.4399319,-327.679992675781
1437.4555569,-327.679992675781
1437.4711819,-327.679992675781
1437.4868069,-327.679992675781
1437.5024319,-327.679992675781
1437.5180569,-327.679992675781
1437.5336819,-327.679992675781
1437.5493069,-327.679992675781
1437.5649319,-327.679992675781
1437.5805569,-327.679992675781
1437.5961819,-327.679992675781
1437.6118069,-327.679992675781
1437.6274319,-313.760009765625
1437.6430569,-205.380004882813
1437.6586819,-107.940002441406
1437.6743069,-39.8499984741211
1437.6899319,-1.26999998092651
1437.7055569,21.5400009155273
1437.7211819,45.3199996948242
1437.7368069,80.3099975585938
1437.7524319,126.430000305176
1437.7680569,175.789993286133
1437.7836819,218.5
1437.7993069,248.220001220703
1437.8149319,264.950012207031
1437.8305569,273.970001220703
1437.8461819,281.450012207031
1437.8618069,290.649993896484
1437.8774319,301.809997558594
1437.8930569,314.170013427734
1437.9086819,326.899993896484
1437.9243069,327.670013427734
1437.9399319,327.670013427734
1437.9555569,327.670013427734
1437.9711819,327.670013427734
1437.9868069,327.670013427734
1438.0024319,327.670013427734
1438.0180569,327.670013427734
1438.0336819,327.670013427734
1438.0493069,327.670013427734
1438.0649319,327.670013427734
1438.0805569,327.670013427734
1438.0961819,327.670013427734
1438.1118069,327.670013427734
1438.1274319,327.670013427734
1438.1430569,327.670013427734
1438.1586819,327.670013427734
1438.1743069,327.670013427734
1438.1899319,327.670013427734
1438.2055569,327.670013427734
1438.2211819,327.670013427734
1438.2368069,327.670013427734
1438.2524319,327.670013427734
1438.2680569,321.839996337891
1438.2836819,313.119995117188
1438.2993069,303.640014648438
1438.3149319,293.549987792969
1438.3305569,282.700012207031
1438.3461819,270.829986572266
1438.3618069,257.859985351563
1438.3774319,243.899993896484
1438.3930569,229.149993896484
1438.4086819,214.070007324219
1438.4243069,199.350006103516
1438.4399319,185.570007324219
1438.4555569,172.690002441406
1438.4711819,160.029998779297
1438.4868069,146.759994506836
1438.5024319,132.289993286133
1438.5180569,116.620002746582
1438.5336819,100.459999084473
1438.5493069,84.7300033569336
1438.5649319,69.9300003051758
1438.5805569,56.1399993896484
1438.5961819,43.8800010681152
1438.6118069,34.4799995422363
1438.6274319,28.9500007629395
1438.6430569,26.5900001525879
1438.6586819,25.0599994659424
1438.6743069,21.6299991607666
1438.6899319,14.2299995422363
1438.7055569,1.76999998092651
1438.7211819,-16.0699996948242
1438.7368069,-38.6100006103516
1438.7524319,-63.5299987792969
1438.7680569,-87.1900024414063
1438.7836819,-106.529998779297
1438.7993069,-121.519996643066
1438.8149319,-136.589996337891
1438.8305569,-159.429992675781
1438.8461819,-197.449996948242
1438.8618069,-253.039993286133
1438.8774319,-321.640014648438
1438.8930569,-327.679992675781
1438.9086819,-327.679992675781
1438.9243069,-327.679992675781
1438.9399319,-327.679992675781
1438.9555569,-327.679992675781
1438.9711819,-327.679992675781
1438.9868069,-327.679992675781
1439.0024319,-327.679992675781
1439.0180569,-327.679992675781
1439.0336819,-327.679992675781
1439.0493069,-327.679992675781
1439.0649319,-327.679992675781
1439.0805569,-327.679992675781
1439.0961819,-266.100006103516
1439.1118069,-219.160003662109
1439.1274319,-191.029998779297
1439.1430569,-179.25
1439.1586819,-180.559997558594
1439.1743069,-188.190002441406
1439.1899319,-191.570007324219
1439.2055569,-180.990005493164
1439.2211819,-152.339996337891
1439.2368069,-107.730003356934
1439.2524319,-52.7200012207031
1439.2680569,6.69000005722046
1439.2836819,65.9499969482422
1439.2993069,122.400001525879
1439.3149319,174.809997558594
1439.3305569,222.940002441406
1439.3461819,268.200012207031
1439.3618069,314.5
1439.3774319,327.670013427734
1439.3930569,327.670013427734
1439.4086819,327.670013427734
1439.4243069,327.670013427734
1439.4399319,327.670013427734
1439.4555569,327.670013427734
1439.4711819,327.670013427734
1439.4868069,327.670013427734
1439.5024319,327.670013427734
1439.5180569,327.670013427734
1439.5336819,327.670013427734
1439.5493069,327.670013427734
1439.5649319,327.670013427734
1439.5805569,327.670013427734
1439.5961819,327.670013427734
1439.6118069,327.670013427734
1439.6274319,327.670013427734
1439.6430569,327.670013427734
1439.6586819,327.670013427734
1439.6743069,327.670013427734
1439.6899319,327.670013427734
1439.7055569,327.670013427734
1439.7211819,327.670013427734
1439.7368069,327.670013427734
1439.7524319,302.040008544922
1439.7680569,188.130004882813
1439.7836819,49.5900001525879
1439.7993069,-78.3199996948242
1439.8149319,-170.270004272461
1439.8305569,-221.75
1439.8461819,-245.949996948242
1439.8618069,-262.170013427734
1439.8774319,-284.260009765625
1439.8930569,-315.220001220703
1439.9086819,-327.679992675781
1439.9243069,-327.679992675781
1439.9399319,-327.679992675781
1439.9555569,-327.679992675781
1439.9711819,-327.679992675781
1439.9868069,-327.679992675781
1440.0024319,-327.679992675781
1440.0180569,-327.679992675781
1440.0336819,-327.679992675781
1440.0493069,-327.679992675781
1440.0649319,-327.679992675781
1440.0805569,-327.679992675781
1440.0961819,-327.679992675781
1440.1118069,-327.679992675781
1440.1274319,-327.679992675781
1440.1430569,-327.679992675781
1440.1586819,-327.679992675781
1440.1743069,-327.679992675781
1440.1899319,-320.549987792969
1440.2055569,-307.799987792969
1440.2211819,-294.369995117188
1440.2368069,-280.130004882813
1440.2524319,-265.230010986328
1440.2680569,-249.789993286133
1440.2836819,-233.839996337891
1440.2993069,-217.429992675781
1440.3149319,-200.940002441406
1440.3305569,-185.029998779297
1440.3461819,-170.169998168945
1440.3618069,-156.240005493164
1440.3774319,-142.729995727539
1440.3930569,-129.119995117188
1440.4086819,-115.139999389648
1440.4243069,-100.849998474121
1440.4399319,-86.6399993896484
1440.4555569,-73.0500030517578
1440.4711819,-60.3899993896484
1440.4868069,-48.6699981689453
1440.5024319,-37.7700004577637
1440.5180569,-27.6299991607666
1440.5336819,-18.1800003051758
1440.5493069,-9.21000003814697
1440.5649319,-0.319999992847443
1440.5805569,8.85999965667725
1440.5961819,18.4899997711182
1440.6118069,28.1900005340576
1440.6274319,37.310001373291
1440.6430569,45.3400001525879
1440.6586819,52.2400016784668
1440.6743069,58.4199981689453
1440.6899319,64.3899993896484
1440.7055569,70.4199981689453
1440.7211819,76.379997253418
1440.7368069,81.9100036621094
1440.7524319,86.7099990844727
1440.7680569,90.7600021362305
1440.7836819,94.3499984741211
1440.7993069,97.870002746582
1440.8149319,101.5
1440.8305569,105.120002746582
1440.8461819,108.529998779297
1440.8618069,111.650001525879
1440.8774319,114.419998168945
1440.8930569,116.660003662109
1440.9086819,118.089996337891
1440.9243069,118.550003051758
1440.9399319,118.160003662109
1440.9555569,117.220001220703
1440.9711819,115.849998474121
1440.9868069,113.980003356934
1441.0024319,111.470001220703
1441.0180569,108.349998474121
1441.0336819,104.940002441406
1441.0493069,101.569999694824
1441.0649319,98.4499969482422
1441.0805569,95.629997253418
1441.0961819,93.0899963378906
1441.1118069,90.9300003051758
1441.1274319,89.3199996948242
1441.1430569,88.3899993896484
1441.1586819,88.1500015258789
1441.1743069,88.4499969482422
1441.1899319,88.9199981689453
1441.2055569,89.25
1441.2211819,89.3899993896484
1441.2368069,89.5100021362305
1441.2524319,89.5699996948242
1441.2680569,89.1600036621094
1441.2836819,87.6900024414063
1441.2993069,84.7799987792969
1441.3149319,80.5999984741211
1441.3305569,75.7799987792969
1441.3461819,71.0199966430664
