Time(s),Value(℃)
1241.0046269,66.0800018310547
1241.0202519,66.0800018310547
1241.0358769,66.0800018310547
1241.0515019,66.0699996948242
1241.0671269,66.0699996948242
1241.0827519,66.0599975585938
1241.0983769,66.0599975585938
1241.1140019,66.0500030517578
1241.1296269,66.0400009155273
1241.1452519,66.0199966430664
1241.1608769,66.0
1241.1765019,65.9800033569336
1241.1921269,65.9599990844727
1241.2077519,65.9300003051758
1241.2233769,65.9000015258789
1241.2390019,65.870002746582
1241.2546269,65.8399963378906
1241.2702519,65.8099975585938
1241.2858769,65.7900009155273
1241.3015019,65.7699966430664
1241.3171269,65.75
1241.3327519,65.7399978637695
1241.3483769,65.7399978637695
1241.3640019,65.7399978637695
1241.3796269,65.75
1241.3952519,65.75
1241.4108769,65.7600021362305
1241.4265019,65.7799987792969
1241.4421269,65.7900009155273
1241.4577519,65.8000030517578
1241.4733769,65.8099975585938
1241.4890019,65.8199996948242
1241.5046269,65.8300018310547
1241.5202519,65.8499984741211
1241.5358769,65.8600006103516
1241.5515019,65.879997253418
1241.5671269,65.9000015258789
1241.5827519,65.9199981689453
1241.5983769,65.9400024414063
1241.6140019,65.9700012207031
1241.6296269,65.9899978637695
1241.6452519,66.0199966430664
1241.6608769,66.0599975585938
1241.6765019,66.0999984741211
1241.6921269,66.1399993896484
1241.7077519,66.1900024414063
1241.7233769,66.2399978637695
1241.7390019,66.2900009155273
1241.7546269,66.3499984741211
1241.7702519,66.4000015258789
1241.7858769,66.4400024414063
1241.8015019,66.4800033569336
1241.8171269,66.5199966430664
1241.8327519,66.5500030517578
1241.8483769,66.5699996948242
1241.8640019,66.5999984741211
1241.8796269,66.6100006103516
1241.8952519,66.629997253418
1241.9108769,66.6500015258789
1241.9265019,66.6699981689453
1241.9421269,66.6900024414063
1241.9577519,66.7200012207031
1241.9733769,66.7399978637695
1241.9890019,66.7699966430664
1242.0046269,66.8000030517578
1242.0202519,66.8199996948242
1242.0358769,66.8399963378906
1242.0515019,66.8600006103516
1242.0671269,66.879997253418
1242.0827519,66.8899993896484
1242.0983769,66.9000015258789
1242.1140019,66.9100036621094
1242.1296269,66.9199981689453
1242.1452519,66.9199981689453
1242.1608769,66.9300003051758
1242.1765019,66.9400024414063
1242.1921269,66.9499969482422
1242.2077519,66.9599990844727
1242.2233769,66.9800033569336
1242.2390019,66.9899978637695
1242.2546269,67.0100021362305
1242.2702519,67.0299987792969
1242.2858769,67.0500030517578
1242.3015019,67.0800018310547
1242.3171269,67.0999984741211
1242.3327519,67.129997253418
1242.3483769,67.1500015258789
1242.3640019,67.1699981689453
1242.3796269,67.1999969482422
1242.3952519,67.2099990844727
1242.4108769,67.2300033569336
1242.4265019,67.2399978637695
1242.4421269,67.25
1242.4577519,67.25
1242.4733769,67.25
1242.4890019,67.25
1242.5046269,67.2399978637695
1242.5202519,67.2300033569336
1242.5358769,67.2200012207031
1242.5515019,67.2099990844727
1242.5671269,67.1999969482422
1242.5827519,67.1900024414063
1242.5983769,67.1699981689453
1242.6140019,67.1399993896484
1242.6296269,67.120002746582
1242.6452519,67.0899963378906
1242.6608769,67.0599975585938
1242.6765019,67.0199966430664
1242.6921269,66.9899978637695
1242.7077519,66.9700012207031
1242.7233769,66.9400024414063
1242.7390019,66.9199981689453
1242.7546269,66.9100036621094
1242.7702519,66.8899993896484
1242.7858769,66.879997253418
1242.8015019,66.8600006103516
1242.8171269,66.8499984741211
1242.8327519,66.8300018310547
1242.8483769,66.8099975585938
1242.8640019,66.7900009155273
1242.8796269,66.7699966430664
1242.8952519,66.75
1242.9108769,66.7200012207031
1242.9265019,66.6999969482422
1242.9421269,66.6699981689453
1242.9577519,66.6500015258789
1242.9733769,66.629997253418
1242.9890019,66.6100006103516
1243.0046269,66.5899963378906
1243.0202519,66.5699996948242
1243.0358769,66.5599975585938
1243.0515019,66.5599975585938
1243.0671269,66.5500030517578
1243.0827519,66.5500030517578
1243.0983769,66.5500030517578
1243.1140019,66.5500030517578
1243.1296269,66.5500030517578
1243.1452519,66.5500030517578
1243.1608769,66.5500030517578
1243.1765019,66.5500030517578
1243.1921269,66.5500030517578
1243.2077519,66.5500030517578
1243.2233769,66.5500030517578
1243.2390019,66.5500030517578
1243.2546269,66.5400009155273
1243.2702519,66.5299987792969
1243.2858769,66.5299987792969
1243.3015019,66.5199966430664
1243.3171269,66.5100021362305
1243.3327519,66.5100021362305
1243.3483769,66.5199966430664
1243.3640019,66.5299987792969
1243.3796269,66.5599975585938
1243.3952519,66.5800018310547
1243.4108769,66.620002746582
1243.4265019,66.6500015258789
1243.4421269,66.6999969482422
1243.4577519,66.7399978637695
1243.4733769,66.7799987792969
1243.4890019,66.8199996948242
1243.5046269,66.870002746582
1243.5202519,66.9100036621094
1243.5358769,66.9599990844727
1243.5515019,67.0100021362305
1243.5671269,67.0599975585938
1243.5827519,67.0999984741211
1243.5983769,67.1500015258789
1243.6140019,67.1900024414063
1243.6296269,67.2300033569336
1243.6452519,67.2699966430664
1243.6608769,67.3000030517578
1243.6765019,67.3300018310547
1243.6921269,67.3499984741211
1243.7077519,67.370002746582
1243.7233769,67.379997253418
1243.7390019,67.4000015258789
1243.7546269,67.4100036621094
1243.7702519,67.4300003051758
1243.7858769,67.4400024414063
1243.8015019,67.4599990844727
1243.8171269,67.4700012207031
1243.8327519,67.4899978637695
1243.8483769,67.5199966430664
1243.8640019,67.5400009155273
1243.8796269,67.5699996948242
1243.8952519,67.5899963378906
1243.9108769,67.620002746582
1243.9265019,67.6500015258789
1243.9421269,67.6800003051758
1243.9577519,67.6999969482422
1243.9733769,67.7300033569336
1243.9890019,67.75
1244.0046269,67.7799987792969
1244.0202519,67.8000030517578
1244.0358769,67.8199996948242
1244.0515019,67.8399963378906
1244.0671269,67.8600006103516
1244.0827519,67.870002746582
1244.0983769,67.879997253418
1244.1140019,67.8899993896484
1244.1296269,67.8899993896484
1244.1452519,67.879997253418
1244.1608769,67.879997253418
1244.1765019,67.870002746582
1244.1921269,67.870002746582
1244.2077519,67.8600006103516
1244.2233769,67.8499984741211
1244.2390019,67.8399963378906
1244.2546269,67.8300018310547
1244.2702519,67.8099975585938
1244.2858769,67.7900009155273
1244.3015019,67.7699966430664
1244.3171269,67.7399978637695
1244.3327519,67.7099990844727
1244.3483769,67.6800003051758
1244.3640019,67.6399993896484
1244.3796269,67.5999984741211
1244.3952519,67.5599975585938
1244.4108769,67.5100021362305
1244.4265019,67.4599990844727
1244.4421269,67.4100036621094
1244.4577519,67.3600006103516
1244.4733769,67.3099975585938
1244.4890019,67.2600021362305
1244.5046269,67.1999969482422
1244.5202519,67.1500015258789
1244.5358769,67.0999984741211
1244.5515019,67.0599975585938
1244.5671269,67.0100021362305
1244.5827519,66.9700012207031
1244.5983769,66.9400024414063
1244.6140019,66.9100036621094
1244.6296269,66.879997253418
1244.6452519,66.8600006103516
1244.6608769,66.8499984741211
1244.6765019,66.8399963378906
1244.6921269,66.8300018310547
1244.7077519,66.8199996948242
1244.7233769,66.8099975585938
1244.7390019,66.8000030517578
1244.7546269,66.7900009155273
1244.7702519,66.7699966430664
1244.7858769,66.7600021362305
1244.8015019,66.7399978637695
1244.8171269,66.7200012207031
1244.8327519,66.6999969482422
1244.8483769,66.6800003051758
1244.8640019,66.6699981689453
1244.8796269,66.6500015258789
1244.8952519,66.629997253418
1244.9108769,66.6100006103516
1244.9265019,66.5899963378906
1244.9421269,66.5599975585938
1244.9577519,66.5400009155273
1244.9733769,66.5199966430664
1244.9890019,66.5
1245.0046269,66.4700012207031
1245.0202519,66.4499969482422
1245.0358769,66.4400024414063
1245.0515019,66.4199981689453
1245.0671269,66.4000015258789
1245.0827519,66.3899993896484
1245.0983769,66.370002746582
1245.1140019,66.3600006103516
1245.1296269,66.3499984741211
1245.1452519,66.3399963378906
1245.1608769,66.3300018310547
1245.1765019,66.3300018310547
1245.1921269,66.3199996948242
1245.2077519,66.3099975585938
1245.2233769,66.2900009155273
1245.2390019,66.2799987792969
1245.2546269,66.2600021362305
1245.2702519,66.25
1245.2858769,66.2300033569336
1245.3015019,66.2200012207031
1245.3171269,66.1999969482422
1245.3327519,66.1900024414063
1245.3483769,66.1900024414063
1245.3640019,66.1800003051758
1245.3796269,66.1699981689453
1245.3952519,66.1600036621094
1245.4108769,66.1600036621094
1245.4265019,66.1500015258789
1245.4421269,66.1500015258789
1245.4577519,66.1399993896484
1245.4733769,66.129997253418
1245.4890019,66.120002746582
1245.5046269,66.1100006103516
1245.5202519,66.0999984741211
1245.5358769,66.0899963378906
1245.5515019,66.0699996948242
1245.5671269,66.0500030517578
1245.5827519,66.0400009155273
1245.5983769,66.0199966430664
1245.6140019,66.0
1245.6296269,65.9800033569336
1245.6452519,65.9599990844727
1245.6608769,65.9400024414063
1245.6765019,65.9199981689453
1245.6921269,65.9000015258789
1245.7077519,65.879997253418
1245.7233769,65.8600006103516
1245.7390019,65.8399963378906
1245.7546269,65.8199996948242
1245.7702519,65.8000030517578
1245.7858769,65.7799987792969
1245.8015019,65.7600021362305
1245.8171269,65.7399978637695
1245.8327519,65.7200012207031
1245.8483769,65.6999969482422
1245.8640019,65.6800003051758
1245.8796269,65.6699981689453
1245.8952519,65.6699981689453
1245.9108769,65.6699981689453
1245.9265019,65.6699981689453
1245.9421269,65.6699981689453
1245.9577519,65.6699981689453
1245.9733769,65.6800003051758
1245.9890019,65.6800003051758
1246.0046269,65.6900024414063
1246.0202519,65.6999969482422
1246.0358769,65.7099990844727
1246.0515019,65.7099990844727
1246.0671269,65.7200012207031
1246.0827519,65.7300033569336
1246.0983769,65.7399978637695
1246.1140019,65.75
1246.1296269,65.7600021362305
1246.1452519,65.7799987792969
1246.1608769,65.7900009155273
1246.1765019,65.8099975585938
1246.1921269,65.8300018310547
1246.2077519,65.8600006103516
1246.2233769,65.879997253418
1246.2390019,65.9000015258789
1246.2546269,65.9100036621094
1246.2702519,65.9300003051758
1246.2858769,65.9400024414063
1246.3015019,65.9599990844727
1246.3171269,65.9700012207031
1246.3327519,65.9899978637695
1246.3483769,66.0
1246.3640019,66.0199966430664
1246.3796269,66.0400009155273
1246.3952519,66.0599975585938
1246.4108769,66.0699996948242
1246.4265019,66.0899963378906
1246.4421269,66.1100006103516
1246.4577519,66.129997253418
1246.4733769,66.1399993896484
1246.4890019,66.1600036621094
1246.5046269,66.1699981689453
1246.5202519,66.1800003051758
1246.5358769,66.1999969482422
1246.5515019,66.2099990844727
1246.5671269,66.2200012207031
1246.5827519,66.2399978637695
1246.5983769,66.2600021362305
1246.6140019,66.2699966430664
1246.6296269,66.2900009155273
1246.6452519,66.3099975585938
1246.6608769,66.3199996948242
1246.6765019,66.3399963378906
1246.6921269,66.3499984741211
1246.7077519,66.370002746582
1246.7233769,66.379997253418
1246.7390019,66.3899993896484
1246.7546269,66.4100036621094
1246.7702519,66.4199981689453
1246.7858769,66.4400024414063
1246.8015019,66.4499969482422
1246.8171269,66.4599990844727
1246.8327519,66.4599990844727
1246.8483769,66.4700012207031
1246.8640019,66.4700012207031
1246.8796269,66.4599990844727
1246.8952519,66.4599990844727
1246.9108769,66.4499969482422
1246.9265019,66.4400024414063
1246.9421269,66.4199981689453
1246.9577519,66.4100036621094
1246.9733769,66.3899993896484
1246.9890019,66.370002746582
1247.0046269,66.3499984741211
1247.0202519,66.3399963378906
1247.0358769,66.3199996948242
1247.0515019,66.3000030517578
1247.0671269,66.2900009155273
1247.0827519,66.2699966430664
1247.0983769,66.2600021362305
1247.1140019,66.25
1247.1296269,66.2399978637695
1247.1452519,66.2399978637695
1247.1608769,66.2200012207031
1247.1765019,66.2099990844727
1247.1921269,66.1999969482422
1247.2077519,66.1800003051758
1247.2233769,66.1600036621094
1247.2390019,66.1399993896484
1247.2546269,66.129997253418
1247.2702519,66.1100006103516
1247.2858769,66.0899963378906
1247.3015019,66.0800018310547
1247.3171269,66.0699996948242
1247.3327519,66.0599975585938
1247.3483769,66.0500030517578
1247.3640019,66.0500030517578
1247.3796269,66.0400009155273
1247.3952519,66.0400009155273
1247.4108769,66.0500030517578
1247.4265019,66.0500030517578
1247.4421269,66.0599975585938
1247.4577519,66.0699996948242
1247.4733769,66.0899963378906
1247.4890019,66.0999984741211
1247.5046269,66.120002746582
1247.5202519,66.129997253418
1247.5358769,66.1399993896484
1247.5515019,66.1399993896484
1247.5671269,66.1500015258789
1247.5827519,66.1600036621094
1247.5983769,66.1600036621094
1247.6140019,66.1699981689453
1247.6296269,66.1900024414063
1247.6452519,66.1999969482422
1247.6608769,66.2099990844727
1247.6765019,66.2300033569336
1247.6921269,66.25
1247.7077519,66.2600021362305
1247.7233769,66.2699966430664
1247.7390019,66.2900009155273
1247.7546269,66.3000030517578
1247.7702519,66.3099975585938
1247.7858769,66.3300018310547
1247.8015019,66.3499984741211
1247.8171269,66.370002746582
1247.8327519,66.3899993896484
1247.8483769,66.4199981689453
1247.8640019,66.4499969482422
1247.8796269,66.4899978637695
1247.8952519,66.5199966430664
1247.9108769,66.5599975585938
1247.9265019,66.5999984741211
1247.9421269,66.6399993896484
1247.9577519,66.6800003051758
1247.9733769,66.7200012207031
1247.9890019,66.7600021362305
1248.0046269,66.7900009155273
1248.0202519,66.8199996948242
1248.0358769,66.8499984741211
1248.0515019,66.879997253418
1248.0671269,66.9100036621094
1248.0827519,66.9300003051758
1248.0983769,66.9599990844727
1248.1140019,66.9899978637695
1248.1296269,67.0199966430664
1248.1452519,67.0500030517578
1248.1608769,67.0899963378906
1248.1765019,67.120002746582
1248.1921269,67.1500015258789
1248.2077519,67.1800003051758
1248.2233769,67.2200012207031
1248.2390019,67.2399978637695
1248.2546269,67.2699966430664
1248.2702519,67.3000030517578
1248.2858769,67.3300018310547
1248.3015019,67.3600006103516
1248.3171269,67.3899993896484
1248.3327519,67.4199981689453
1248.3483769,67.4499969482422
1248.3640019,67.4700012207031
1248.3796269,67.5
1248.3952519,67.5299987792969
1248.4108769,67.5500030517578
1248.4265019,67.5800018310547
1248.4421269,67.6100006103516
1248.4577519,67.6399993896484
1248.4733769,67.6699981689453
1248.4890019,67.6999969482422
1248.5046269,67.7399978637695
1248.5202519,67.7699966430664
1248.5358769,67.8000030517578
1248.5515019,67.8300018310547
1248.5671269,67.8600006103516
1248.5827519,67.8899993896484
1248.5983769,67.9199981689453
1248.6140019,67.9599990844727
1248.6296269,68.0
1248.6452519,68.0400009155273
1248.6608769,68.0800018310547
1248.6765019,68.129997253418
1248.6921269,68.1800003051758
1248.7077519,68.2200012207031
1248.7233769,68.2699966430664
1248.7390019,68.3199996948242
1248.7546269,68.370002746582
1248.7702519,68.4199981689453
1248.7858769,68.4800033569336
1248.8015019,68.5400009155273
1248.8171269,68.5999984741211
1248.8327519,68.6699981689453
1248.8483769,68.7399978637695
1248.8640019,68.8099975585938
1248.8796269,68.879997253418
1248.8952519,68.9599990844727
1248.9108769,69.0299987792969
1248.9265019,69.0999984741211
1248.9421269,69.1699981689453
1248.9577519,69.2399978637695
1248.9733769,69.3099975585938
1248.9890019,69.379997253418
1249.0046269,69.4499969482422
1249.0202519,69.5199966430664
1249.0358769,69.5999984741211
1249.0515019,69.6800003051758
1249.0671269,69.7600021362305
1249.0827519,69.8399963378906
1249.0983769,69.9300003051758
1249.1140019,70.0100021362305
1249.1296269,70.0999984741211
1249.1452519,70.1900024414063
1249.1608769,70.2799987792969
1249.1765019,70.3600006103516
1249.1921269,70.4400024414063
1249.2077519,70.5199966430664
1249.2233769,70.5999984741211
1249.2390019,70.6800003051758
1249.2546269,70.75
1249.2702519,70.8199996948242
1249.2858769,70.8899993896484
1249.3015019,70.9499969482422
1249.3171269,71.0199966430664
1249.3327519,71.0800018310547
1249.3483769,71.1399993896484
1249.3640019,71.1999969482422
1249.3796269,71.25
1249.3952519,71.3099975585938
1249.4108769,71.3600006103516
1249.4265019,71.4100036621094
1249.4421269,71.4700012207031
1249.4577519,71.5199966430664
1249.4733769,71.5800018310547
1249.4890019,71.6399993896484
1249.5046269,71.6900024414063
1249.5202519,71.7399978637695
1249.5358769,71.7900009155273
1249.5515019,71.8399963378906
1249.5671269,71.879997253418
1249.5827519,71.9199981689453
1249.5983769,71.9499969482422
1249.6140019,71.9899978637695
1249.6296269,72.0100021362305
1249.6452519,72.0400009155273
1249.6608769,72.0500030517578
1249.6765019,72.0599975585938
1249.6921269,72.0699996948242
1249.7077519,72.0699996948242
1249.7233769,72.0599975585938
1249.7390019,72.0400009155273
1249.7546269,72.0199966430664
1249.7702519,72.0
1249.7858769,71.9700012207031
1249.8015019,71.9400024414063
1249.8171269,71.9000015258789
1249.8327519,71.870002746582
1249.8483769,71.8300018310547
1249.8640019,71.8000030517578
1249.8796269,71.7600021362305
1249.8952519,71.7200012207031
1249.9108769,71.6800003051758
1249.9265019,71.6500015258789
1249.9421269,71.6100006103516
1249.9577519,71.5800018310547
1249.9733769,71.5400009155273
1249.9890019,71.5100021362305
1250.0046269,71.4700012207031
1250.0202519,71.4400024414063
1250.0358769,71.4000015258789
1250.0515019,71.3600006103516
1250.0671269,71.3199996948242
1250.0827519,71.2900009155273
1250.0983769,71.25
1250.1140019,71.2200012207031
1250.1296269,71.1900024414063
1250.1452519,71.1600036621094
1250.1608769,71.129997253418
1250.1765019,71.0999984741211
1250.1921269,71.0699996948242
1250.2077519,71.0500030517578
1250.2233769,71.0199966430664
1250.2390019,70.9899978637695
1250.2546269,70.9700012207031
1250.2702519,70.9400024414063
1250.2858769,70.9100036621094
1250.3015019,70.8899993896484
1250.3171269,70.8600006103516
1250.3327519,70.8300018310547
1250.3483769,70.8099975585938
1250.3640019,70.7799987792969
1250.3796269,70.75
1250.3952519,70.7200012207031
1250.4108769,70.6900024414063
1250.4265019,70.6600036621094
1250.4421269,70.620002746582
1250.4577519,70.5899963378906
1250.4733769,70.5599975585938
1250.4890019,70.5199966430664
1250.5046269,70.4899978637695
1250.5202519,70.4499969482422
1250.5358769,70.4199981689453
1250.5515019,70.4000015258789
1250.5671269,70.370002746582
1250.5827519,70.3499984741211
1250.5983769,70.3399963378906
1250.6140019,70.3300018310547
1250.6296269,70.3300018310547
1250.6452519,70.3300018310547
1250.6608769,70.3300018310547
1250.6765019,70.3300018310547
1250.6921269,70.3399963378906
1250.7077519,70.3499984741211
1250.7233769,70.3600006103516
1250.7390019,70.370002746582
1250.7546269,70.379997253418
1250.7702519,70.4000015258789
1250.7858769,70.4100036621094
1250.8015019,70.4300003051758
1250.8171269,70.4499969482422
1250.8327519,70.4599990844727
1250.8483769,70.4800033569336
1250.8640019,70.4899978637695
1250.8796269,70.5
1250.8952519,70.5
1250.9108769,70.5
1250.9265019,70.5
1250.9421269,70.4899978637695
1250.9577519,70.4899978637695
1250.9733769,70.4800033569336
1250.9890019,70.4599990844727
1251.0046269,70.4499969482422
1251.0202519,70.4300003051758
1251.0358769,70.4100036621094
1251.0515019,70.3899993896484
1251.0671269,70.370002746582
1251.0827519,70.3399963378906
1251.0983769,70.3099975585938
1251.1140019,70.2900009155273
1251.1296269,70.2600021362305
1251.1452519,70.2300033569336
1251.1608769,70.1999969482422
1251.1765019,70.1800003051758
1251.1921269,70.1500015258789
1251.2077519,70.129997253418
1251.2233769,70.1100006103516
1251.2390019,70.0899963378906
1251.2546269,70.0699996948242
1251.2702519,70.0500030517578
1251.2858769,70.0400009155273
1251.3015019,70.0299987792969
1251.3171269,70.0199966430664
1251.3327519,70.0199966430664
1251.3483769,70.0100021362305
1251.3640019,70.0100021362305
1251.3796269,70.0100021362305
1251.3952519,70.0100021362305
1251.4108769,70.0199966430664
1251.4265019,70.0199966430664
1251.4421269,70.0299987792969
1251.4577519,70.0400009155273
1251.4733769,70.0400009155273
1251.4890019,70.0500030517578
1251.5046269,70.0500030517578
1251.5202519,70.0500030517578
1251.5358769,70.0500030517578
1251.5515019,70.0500030517578
1251.5671269,70.0500030517578
1251.5827519,70.0400009155273
