Time(s),Value(%)
727.0126751,-14.460000038147
727.0283001,-15.3900003433228
727.0439251,-16.0900001525879
727.0595501,-16.4599990844727
727.0751751,-16.5200004577637
727.0908001,-15.7200002670288
727.1064251,-13.1199998855591
727.1220501,-8.23999977111816
727.1376751,-1.61000001430511
727.1533001,5.44999980926514
727.1689251,11.75
727.1845501,16.7299995422363
727.2001751,20.2299995422363
727.2158001,22.1100006103516
727.2314251,22.3299999237061
727.2470501,21.2099990844727
727.2626751,19.3199996948242
727.2783001,17.2700004577637
727.2939251,15.6000003814697
727.3095501,14.4799995422363
727.3251751,13.5100002288818
727.3408001,12.1400003433228
727.3564251,10.210000038147
727.3720501,8.07999992370605
727.3876751,6.19000005722046
727.4033001,4.65000009536743
727.4189251,3.25999999046326
727.4345501,1.72000002861023
727.4501751,-0.0900000035762787
727.4658001,-2.1800000667572
727.4814251,-4.46000003814697
727.4970501,-6.71000003814697
727.5126751,-8.68000030517578
727.5283001,-10.25
727.5439251,-11.3900003433228
727.5595501,-12.0200004577637
727.5751751,-12.0100002288818
727.5908001,-11.3800001144409
727.6064251,-10.5900001525879
727.6220501,-10.3999996185303
727.6376751,-11.3299999237061
727.6533001,-12.9799995422363
727.6689251,-14.2299995422363
727.6845501,-14.0799999237061
727.7001751,-12.3699998855591
727.7158001,-9.77000045776367
727.7314251,-6.8899998664856
727.7470501,-3.58999991416931
727.7626751,0.740000009536743
727.7783001,6.32000017166138
727.7939251,12.4399995803833
727.8095501,17.7700004577637
727.8251751,21.1499996185303
727.8408001,22.2600002288818
727.8564251,21.8400001525879
727.8720501,21.2900009155273
727.8876751,21.7999992370605
727.9033001,23.6900005340576
727.9189251,26.0400009155273
727.9345501,27.2999992370605
727.9501751,26.4500007629395
727.9658001,23.5300006866455
727.9814251,19.1599998474121
727.9970501,13.7600002288818
728.0126751,7.57000017166138
728.0283001,1.26999998092651
728.0439251,-4.0
728.0595501,-7.59999990463257
728.0751751,-9.72999954223633
728.0908001,-11.1700000762939
728.1064251,-12.6700000762939
728.1220501,-14.5900001525879
728.1376751,-16.7900009155273
728.1533001,-18.7700004577637
728.1689251,-19.5799999237061
728.1845501,-18.1599998474121
728.2001751,-14.3299999237061
728.2158001,-9.51000022888184
728.2314251,-5.84000015258789
728.2470501,-4.73999977111816
728.2626751,-6.21000003814697
728.2783001,-9.15999984741211
728.2939251,-12.0799999237061
728.3095501,-13.75
728.3251751,-13.4700002670288
728.3408001,-11.1199998855591
728.3564251,-7.17000007629395
728.3720501,-2.70000004768372
728.3876751,1.12999999523163
728.4033001,3.9300000667572
728.4189251,6.23000001907349
728.4345501,8.81999969482422
728.4501751,11.9399995803833
728.4658001,15.1899995803833
728.4814251,17.9400005340576
728.4970501,19.4400005340576
728.5126751,19.0499992370605
728.5283001,16.7999992370605
728.5439251,13.6899995803833
728.5595501,11.210000038147
728.5751751,10.289999961853
728.5908001,10.7299995422363
728.6064251,11.7399997711182
728.6220501,12.5600004196167
728.6376751,12.5299997329712
728.6533001,11.0600004196167
728.6689251,7.90000009536743
728.6845501,3.27999997138977
728.7001751,-2.01999998092651
728.7158001,-6.69000005722046
728.7314251,-9.19999980926514
728.7470501,-8.88000011444092
728.7626751,-6.55000019073486
728.7783001,-4.03999996185303
728.7939251,-2.79999995231628
728.8095501,-3.04999995231628
728.8251751,-4.03000020980835
728.8408001,-5.1100001335144
728.8564251,-6.34999990463257
728.8720501,-8.26000022888184
728.8876751,-11.1599998474121
728.9033001,-14.7700004577637
728.9189251,-18.0300006866455
728.9345501,-19.5100002288818
728.9501751,-17.9899997711182
728.9658001,-13.1599998474121
728.9814251,-6.0
728.9970501,1.50999999046326
729.0126751,7.28000020980835
729.0283001,10.1099996566772
729.0439251,10.5
729.0595501,9.9399995803833
729.0751751,9.48999977111816
729.0908001,9.01000022888184
729.1064251,7.76000022888184
729.1220501,5.3899998664856
729.1376751,2.4300000667572
729.1533001,-0.109999999403954
729.1689251,-1.60000002384186
729.1845501,-2.20000004768372
729.2001751,-2.48000001907349
729.2158001,-2.70000004768372
729.2314251,-2.83999991416931
729.2470501,-3.0
729.2626751,-3.58999991416931
729.2783001,-5.01999998092651
729.2939251,-7.28999996185303
729.3095501,-10.0799999237061
729.3251751,-13.039999961853
729.3408001,-15.9300003051758
729.3564251,-18.3899993896484
729.3720501,-19.9300003051758
729.3876751,-20.1000003814697
729.4033001,-18.5599994659424
729.4189251,-15.1599998474121
729.4345501,-10.289999961853
729.4501751,-5.09999990463257
729.4658001,-1.30999994277954
729.4814251,-0.379999995231628
729.4970501,-2.48000001907349
729.5126751,-5.94999980926514
729.5283001,-7.92999982833862
729.5439251,-6.1399998664856
729.5595501,-0.360000014305115
729.5751751,7.55999994277954
729.5908001,15.1999998092651
729.6064251,21.0100002288818
729.6220501,24.8299999237061
729.6376751,27.2000007629395
729.6533001,28.5599994659424
729.6689251,29.0599994659424
729.6845501,28.6599998474121
729.7001751,27.2000007629395
729.7158001,24.4899997711182
729.7314251,20.5699996948242
729.7470501,15.75
729.7626751,10.4499998092651
729.7783001,5.03999996185303
729.7939251,-0.140000000596046
729.8095501,-4.67000007629395
729.8251751,-8.06999969482422
729.8408001,-10.25
729.8564251,-11.6899995803833
729.8720501,-13.0
729.8876751,-14.1400003433228
729.9033001,-14.1099996566772
729.9189251,-11.710000038147
729.9345501,-6.96000003814697
729.9501751,-1.62999999523163
729.9658001,1.67999994754791
729.9814251,1.33000004291534
729.9970501,-2.39000010490417
730.0126751,-7.71999979019165
730.0283001,-12.8900003433228
730.0439251,-17.0599994659424
730.0595501,-20.0499992370605
730.0751751,-21.6000003814697
730.0908001,-21.0699996948242
730.1064251,-17.9400005340576
730.1220501,-12.210000038147
730.1376751,-4.40999984741211
730.1533001,4.38000011444092
730.1689251,12.5500001907349
730.1845501,18.3400001525879
730.2001751,20.7900009155273
730.2158001,20.1800003051758
730.2314251,17.7900009155273
730.2470501,15.3100004196167
730.2626751,14.1999998092651
730.2783001,14.9700002670288
730.2939251,16.6700000762939
730.3095501,17.4899997711182
730.3251751,16.0200004577637
730.3408001,12.1700000762939
730.3564251,7.21000003814697
730.3720501,2.77999997138977
730.3876751,-0.119999997317791
730.4033001,-1.57000005245209
730.4189251,-2.1800000667572
730.4345501,-2.66000008583069
730.4501751,-3.54999995231628
730.4658001,-4.98999977111816
730.4814251,-6.73000001907349
730.4970501,-8.32999992370605
730.5126751,-9.27999973297119
730.5283001,-9.18000030517578
730.5439251,-8.0600004196167
730.5595501,-6.40999984741211
730.5751751,-5.01000022888184
730.5908001,-4.61999988555908
730.6064251,-5.82000017166138
730.6220501,-8.64999961853027
730.6376751,-12.3999996185303
730.6533001,-15.6599998474121
730.6689251,-16.8199996948242
730.6845501,-14.6499996185303
730.7001751,-8.85999965667725
730.7158001,-0.389999985694885
730.7314251,8.85000038146973
730.7470501,17.1399993896484
730.7626751,23.7900009155273
730.7783001,29.0400009155273
730.7939251,32.9500007629395
730.8095501,34.8600006103516
730.8251751,33.8699989318848
730.8408001,29.6299991607666
730.8564251,22.8700008392334
730.8720501,15.2299995422363
730.8876751,8.56999969482422
730.9033001,4.05000019073486
730.9189251,1.55999994277954
730.9345501,-0.159999996423721
730.9501751,-2.98000001907349
730.9658001,-8.18000030517578
730.9814251,-15.7299995422363
730.9970501,-24.2299995422363
731.0126751,-31.5799999237061
731.0283001,-35.9700012207031
731.0439251,-36.8300018310547
731.0595501,-35.0200004577637
731.0751751,-32.1699981689453
731.0908001,-29.6399993896484
731.1064251,-27.9799995422363
731.1220501,-27.2900009155273
731.1376751,-27.5300006866455
731.1533001,-28.4699993133545
731.1689251,-29.5400009155273
731.1845501,-30.0799999237061
731.2001751,-29.4200000762939
731.2158001,-27.1200008392334
731.2314251,-23.2199993133545
731.2470501,-18.3500003814697
731.2626751,-13.4200000762939
731.2783001,-9.18000030517578
731.2939251,-5.71000003814697
731.3095501,-2.5
731.3251751,1.10000002384186
731.3408001,5.42000007629395
731.3564251,10.1099996566772
731.3720501,14.2799997329712
731.3876751,17.2299995422363
731.4033001,19.0900001525879
731.4189251,20.5300006866455
731.4345501,21.6499996185303
731.4501751,21.6000003814697
731.4658001,19.75
731.4814251,16.7800006866455
731.4970501,14.0600004196167
731.5126751,12.2700004577637
731.5283001,11.1099996566772
731.5439251,9.94999980926514
731.5595501,8.64000034332275
731.5751751,7.55000019073486
731.5908001,7.26999998092651
731.6064251,7.92999982833862
731.6220501,9.06999969482422
731.6376751,9.88000011444092
731.6533001,9.64000034332275
731.6689251,7.80999994277954
731.6845501,4.19999980926514
731.7001751,-0.709999978542328
731.7158001,-5.78999996185303
731.7314251,-9.69999980926514
731.7470501,-11.6899995803833
731.7626751,-11.7799997329712
731.7783001,-10.3000001907349
731.7939251,-7.51000022888184
731.8095501,-3.55999994277954
731.8251751,1.37000000476837
731.8408001,6.86999988555908
731.8564251,12.2700004577637
731.8720501,17.0200004577637
731.8876751,20.9799995422363
731.9033001,24.4300003051758
731.9189251,27.5599994659424
731.9345501,30.1499996185303
731.9501751,31.6700000762939
731.9658001,31.8400001525879
731.9814251,30.8700008392334
731.9970501,29.3099994659424
732.0126751,27.3799991607666
732.0283001,24.6100006103516
732.0439251,20.4300003051758
732.0595501,14.9799995422363
732.0751751,9.22999954223633
732.0908001,4.32999992370605
732.1064251,1.11000001430511
732.1220501,-0.100000001490116
732.1376751,0.28999999165535
732.1533001,1.36000001430511
732.1689251,2.0699999332428
732.1845501,1.6599999666214
732.2001751,-0.109999999403954
732.2158001,-2.96000003814697
732.2314251,-6.0
732.2470501,-8.26000022888184
732.2626751,-9.23999977111816
732.2783001,-9.42000007629395
732.2939251,-9.92000007629395
732.3095501,-11.4799995422363
732.3251751,-13.8000001907349
732.3408001,-15.8199996948242
732.3564251,-16.2700004577637
732.3720501,-14.1000003814697
732.3876751,-8.90999984741211
732.4033001,-1.26999998092651
732.4189251,7.17000007629395
732.4345501,14.3800001144409
732.4501751,18.7600002288818
732.4658001,20.0400009155273
732.4814251,19.1900005340576
732.4970501,17.6499996185303
732.5126751,16.1800003051758
732.5283001,14.539999961853
732.5439251,12.1700000762939
732.5595501,9.01000022888184
732.5751751,5.55999994277954
732.5908001,2.30999994277954
732.6064251,-0.670000016689301
732.6220501,-3.54999995231628
732.6376751,-6.26000022888184
732.6533001,-8.52999973297119
732.6689251,-10.1700000762939
732.6845501,-11.3100004196167
732.7001751,-12.3100004196167
732.7158001,-13.4499998092651
732.7314251,-14.6999998092651
732.7470501,-15.7299995422363
732.7626751,-16.1900005340576
732.7783001,-16.0400009155273
732.7939251,-15.7200002670288
732.8095501,-15.8900003433228
732.8251751,-16.9099998474121
732.8408001,-18.6100006103516
732.8564251,-20.6299991607666
732.8720501,-22.75
732.8876751,-24.5699996948242
732.9033001,-25.3600006103516
732.9189251,-24.3199996948242
732.9345501,-21.0100002288818
732.9501751,-15.5900001525879
732.9658001,-8.76000022888184
732.9814251,-1.50999999046326
732.9970501,5.32999992370605
733.0126751,11.3299999237061
733.0283001,16.25
733.0439251,19.5699996948242
733.0595501,20.6000003814697
733.0751751,19.1000003814697
733.0908001,15.8000001907349
733.1064251,11.9099998474121
733.1220501,8.21000003814697
733.1376751,4.57999992370605
733.1533001,0.389999985694885
733.1689251,-4.6100001335144
733.1845501,-9.72000026702881
733.2001751,-13.5299997329712
733.2158001,-14.8699998855591
733.2314251,-13.5100002288818
733.2470501,-10.3299999237061
733.2626751,-6.75
733.2783001,-4.09000015258789
733.2939251,-3.15000009536743
733.3095501,-4.07999992370605
733.3251751,-6.55999994277954
733.3408001,-10.039999961853
733.3564251,-13.789999961853
733.3720501,-16.9599990844727
733.3876751,-18.9099998474121
733.4033001,-19.6700000762939
733.4189251,-19.6100006103516
733.4345501,-18.7700004577637
733.4501751,-16.6800003051758
733.4658001,-12.9899997711182
733.4814251,-7.92999982833862
733.4970501,-2.17000007629395
733.5126751,3.67000007629395
733.5283001,9.10000038146973
733.5439251,13.5100002288818
733.5595501,16.4799995422363
733.5751751,18.2000007629395
733.5908001,19.3799991607666
733.6064251,20.6100006103516
733.6220501,22.0
733.6376751,23.3899993896484
733.6533001,24.4599990844727
733.6689251,24.7299995422363
733.6845501,23.5400009155273
733.7001751,20.4500007629395
733.7158001,15.75
733.7314251,10.25
733.7470501,4.82999992370605
733.7626751,0.129999995231628
733.7783001,-3.39000010490417
733.7939251,-5.71000003814697
733.8095501,-7.13000011444092
733.8251751,-8.02000045776367
733.8408001,-8.60000038146973
733.8564251,-9.11999988555908
733.8720501,-9.81999969482422
733.8876751,-10.710000038147
733.9033001,-11.6800003051758
733.9189251,-12.6599998474121
733.9345501,-13.9099998474121
733.9501751,-15.8199996948242
733.9658001,-18.3600006103516
733.9814251,-20.7399997711182
733.9970501,-21.6000003814697
734.0126751,-19.9200000762939
734.0283001,-15.6499996185303
734.0439251,-9.71000003814697
734.0595501,-3.1800000667572
734.0751751,3.24000000953674
734.0908001,9.02000045776367
734.1064251,13.5500001907349
734.1220501,16.5499992370605
734.1376751,18.2800006866455
734.1533001,19.4099998474121
734.1689251,20.6200008392334
734.1845501,22.0699996948242
734.2001751,23.2800006866455
734.2158001,23.4400005340576
734.2314251,21.7999992370605
734.2470501,18.0400009155273
734.2626751,12.5600004196167
734.2783001,6.34999990463257
734.2939251,0.529999971389771
734.3095501,-4.15999984741211
734.3251751,-7.59999990463257
734.3408001,-10.0500001907349
734.3564251,-11.8199996948242
734.3720501,-13.1300001144409
734.3876751,-14.1300001144409
734.4033001,-14.9300003051758
734.4189251,-15.5299997329712
734.4345501,-16.0499992370605
734.4501751,-16.8400001525879
734.4658001,-18.2299995422363
734.4814251,-20.2199993133545
734.4970501,-22.5200004577637
734.5126751,-24.6100006103516
734.5283001,-25.75
734.5439251,-25.1000003814697
734.5595501,-22.0599994659424
734.5751751,-16.6299991607666
734.5908001,-9.51000022888184
734.6064251,-1.76999998092651
734.6220501,5.67999982833862
734.6376751,12.5500001907349
734.6533001,18.7800006866455
734.6689251,24.0
734.6845501,27.5200004577637
734.7001751,28.8999996185303
734.7158001,28.4400005340576
734.7314251,26.9500007629395
734.7470501,25.1599998474121
734.7626751,23.1399993896484
734.7783001,20.3600006103516
734.7939251,16.2600002288818
734.8095501,10.9499998092651
734.8251751,5.65999984741211
734.8408001,1.97000002861023
734.8564251,0.509999990463257
734.8720501,0.639999985694885
734.8876751,1.11000001430511
734.9033001,1.0900000333786
734.9189251,0.330000013113022
734.9345501,-0.930000007152557
734.9501751,-2.36999988555908
734.9658001,-3.90000009536743
734.9814251,-5.80000019073486
734.9970501,-8.4399995803833
735.0126751,-11.7799997329712
735.0283001,-15.2299995422363
735.0439251,-18.0
735.0595501,-19.5799999237061
735.0751751,-19.7299995422363
735.0908001,-18.2099990844727
735.1064251,-14.8999996185303
735.1220501,-9.93000030517578
735.1376751,-3.77999997138977
735.1533001,2.70000004768372
735.1689251,8.5
735.1845501,12.9499998092651
735.2001751,16.0699996948242
735.2158001,18.4300003051758
735.2314251,20.5799999237061
735.2470501,22.3700008392334
735.2626751,23.1299991607666
735.2783001,22.3899993896484
735.2939251,20.2000007629395
735.3095501,17.2399997711182
735.3251751,14.1899995803833
735.3408001,11.1599998474121
735.3564251,7.59999990463257
735.3720501,3.02999997138977
735.3876751,-2.30999994277954
735.4033001,-7.63000011444092
735.4189251,-12.0500001907349
735.4345501,-15.1300001144409
735.4501751,-16.8299999237061
735.4658001,-17.2700004577637
735.4814251,-16.5599994659424
735.4970501,-14.8900003433228
735.5126751,-12.7299995422363
735.5283001,-10.7200002670288
735.5439251,-9.40999984741211
735.5595501,-8.94999980926514
735.5751751,-9.21000003814697
735.5908001,-9.85999965667725
735.6064251,-10.289999961853
735.6220501,-9.6899995803833
735.6376751,-7.36999988555908
735.6533001,-3.11999988555908
735.6689251,2.6800000667572
735.6845501,9.27999973297119
735.7001751,15.6999998092651
735.7158001,21.1299991607666
735.7314251,25.0400009155273
735.7470501,27.0699996948242
735.7626751,26.8999996185303
735.7783001,24.5400009155273
735.7939251,20.7600002288818
735.8095501,16.8099994659424
735.8251751,13.4099998474121
735.8408001,10.3800001144409
735.8564251,7.17000007629395
735.8720501,3.60999989509583
735.8876751,-0.0299999993294477
735.9033001,-3.42000007629395
735.9189251,-6.32000017166138
735.9345501,-8.60999965667725
735.9501751,-10.1800003051758
735.9658001,-10.8999996185303
735.9814251,-10.7700004577637
735.9970501,-10.0600004196167
736.0126751,-9.30000019073486
736.0283001,-9.0600004196167
736.0439251,-9.6899995803833
736.0595501,-11.3299999237061
736.0751751,-14.1700000762939
736.0908001,-18.1900005340576
736.1064251,-22.4500007629395
736.1220501,-25.2099990844727
736.1376751,-25.0100002288818
736.1533001,-21.6800003051758
736.1689251,-16.2800006866455
736.1845501,-10.3199996948242
736.2001751,-4.76999998092651
736.2158001,0.379999995231628
736.2314251,5.67999982833862
736.2470501,11.2600002288818
736.2626751,16.4099998474121
736.2783001,20.0599994659424
736.2939251,21.5100002288818
736.3095501,21.1599998474121
736.3251751,20.5499992370605
736.3408001,21.1800003051758
736.3564251,23.1599998474121
736.3720501,25.0599994659424
736.3876751,25.0799999237061
736.4033001,22.2199993133545
736.4189251,16.7999992370605
736.4345501,10.0600004196167
736.4501751,3.54999995231628
736.4658001,-1.3400000333786
736.4814251,-4.07999992370605
736.4970501,-5.0
736.5126751,-4.94999980926514
736.5283001,-4.94000005722046
736.5439251,-5.88000011444092
736.5595501,-8.35999965667725
736.5751751,-12.2600002288818
736.5908001,-16.8899993896484
736.6064251,-21.5200004577637
736.6220501,-25.7000007629395
736.6376751,-29.1100006103516
736.6533001,-31.3600006103516
736.6689251,-32.060001373291
736.6845501,-31.0
736.7001751,-28.1399993896484
736.7158001,-23.25
736.7314251,-15.9200000762939
736.7470501,-6.30000019073486
736.7626751,4.25
736.7783001,13.7200002670288
736.7939251,20.4699993133545
736.8095501,23.9200000762939
736.8251751,24.2900009155273
736.8408001,22.1399993896484
736.8564251,18.2199993133545
736.8720501,13.5600004196167
736.8876751,9.13000011444092
736.9033001,5.67000007629395
736.9189251,3.50999999046326
736.9345501,2.47000002861023
736.9501751,1.92999994754791
736.9658001,1.07000005245209
736.9814251,-0.790000021457672
736.9970501,-3.79999995231628
737.0126751,-7.26000022888184
737.0283001,-9.93000030517578
737.0439251,-10.960000038147
737.0595501,-10.5600004196167
737.0751751,-9.76000022888184
737.0908001,-9.64999961853027
737.1064251,-10.6499996185303
737.1220501,-12.3699998855591
737.1376751,-13.9300003051758
737.1533001,-14.5699996948242
737.1689251,-14.1300001144409
737.1845501,-13.1400003433228
737.2001751,-12.5100002288818
737.2158001,-12.5
737.2314251,-12.1599998474121
737.2470501,-9.88000011444092
737.2626751,-5.01999998092651
737.2783001,1.52999997138977
737.2939251,8.13000011444092
737.3095501,13.3900003433228
737.3251751,16.8700008392334
737.3408001,19.0400009155273
737.3564251,20.6700000762939
737.3720501,22.1900005340576
737.3876751,23.5799999237061
737.4033001,24.6800003051758
737.4189251,25.2800006866455
737.4345501,25.0599994659424
737.4501751,23.4599990844727
737.4658001,20.0900001525879
737.4814251,15.2399997711182
737.4970501,10.0100002288818
737.5126751,5.73000001907349
737.5283001,3.21000003814697
737.5439251,2.27999997138977
737.5595501,2.02999997138977
737.5751751,1.57000005245209
737.5908001,0.46000000834465
737.6064251,-1.32000005245209
737.6220501,-3.65000009536743
737.6376751,-6.34999990463257
737.6533001,-9.23999977111816
737.6689251,-11.9799995422363
737.6845501,-14.1899995803833
737.7001751,-15.5699996948242
737.7158001,-16.2000007629395
737.7314251,-16.3299999237061
