Time(s),Value(μS)
840.0092948,1.37800002098083
840.0249198,1.37800002098083
840.0405448,1.37699997425079
840.0561698,1.37699997425079
840.0717948,1.37600004673004
840.0874198,1.375
840.1030448,1.375
840.1186698,1.37399995326996
840.1342948,1.37300002574921
840.1499198,1.37199997901917
840.1655448,1.37100005149841
840.1811698,1.37000000476837
840.1967948,1.36899995803833
840.2124198,1.36800003051758
840.2280448,1.36699998378754
840.2436698,1.36600005626678
840.2592948,1.36500000953674
840.2749198,1.3639999628067
840.2905448,1.36300003528595
840.3061698,1.36199998855591
840.3217948,1.36099994182587
840.3374198,1.35899996757507
840.3530448,1.35800004005432
840.3686698,1.35599994659424
840.3842948,1.35500001907349
840.3999198,1.35300004482269
840.4155448,1.35099995136261
840.4311698,1.34800004959106
840.4467948,1.34599995613098
840.4624198,1.34399998188019
840.4780448,1.34200000762939
840.4936698,1.3400000333786
840.5092948,1.33899998664856
840.5249198,1.33700001239777
840.5405448,1.33500003814697
840.5561698,1.33399999141693
840.5717948,1.33299994468689
840.5874198,1.3309999704361
840.6030448,1.33000004291534
840.6186698,1.3289999961853
840.6342948,1.32799994945526
840.6499198,1.32700002193451
840.6655448,1.32599997520447
840.6811698,1.32500004768372
840.6967948,1.32400000095367
840.7124198,1.32299995422363
840.7280448,1.32299995422363
840.7436698,1.32200002670288
840.7592948,1.32099997997284
840.7749198,1.32000005245209
840.7905448,1.31900000572205
840.8061698,1.31900000572205
840.8217948,1.317999958992
840.8374198,1.31700003147125
840.8530448,1.31700003147125
840.8686698,1.31599998474121
840.8842948,1.31599998474121
840.8999198,1.31500005722046
840.9155448,1.31500005722046
840.9311698,1.31400001049042
840.9467948,1.31400001049042
840.9624198,1.31299996376038
840.9780448,1.31299996376038
840.9936698,1.31200003623962
841.0092948,1.31200003623962
841.0249198,1.31099998950958
841.0405448,1.31099998950958
841.0561698,1.30999994277954
841.0717948,1.30999994277954
841.0874198,1.30900001525879
841.1030448,1.30900001525879
841.1186698,1.30900001525879
841.1342948,1.30900001525879
841.1499198,1.30900001525879
841.1655448,1.30900001525879
841.1811698,1.30900001525879
841.1967948,1.30999994277954
841.2124198,1.30999994277954
841.2280448,1.31099998950958
841.2436698,1.31200003623962
841.2592948,1.31200003623962
841.2749198,1.31299996376038
841.2905448,1.31400001049042
841.3061698,1.31500005722046
841.3217948,1.31700003147125
841.3374198,1.31900000572205
841.3530448,1.32200002670288
841.3686698,1.32500004768372
841.3842948,1.3289999961853
841.3999198,1.33200001716614
841.4155448,1.33500003814697
841.4311698,1.33800005912781
841.4467948,1.34099996089935
841.4624198,1.34399998188019
841.4780448,1.34700000286102
841.4936698,1.35000002384186
841.5092948,1.35300004482269
841.5249198,1.35599994659424
841.5405448,1.35899996757507
841.5561698,1.36199998855591
841.5717948,1.3639999628067
841.5874198,1.36699998378754
841.6030448,1.37000000476837
841.6186698,1.37199997901917
841.6342948,1.375
841.6499198,1.37800002098083
841.6655448,1.37999999523163
841.6811698,1.38300001621246
841.6967948,1.38499999046326
841.7124198,1.38800001144409
841.7280448,1.38999998569489
841.7436698,1.39300000667572
841.7592948,1.39499998092651
841.7749198,1.39699995517731
841.7905448,1.39999997615814
841.8061698,1.40199995040894
841.8217948,1.40400004386902
841.8374198,1.40600001811981
841.8530448,1.40600001811981
841.8686698,1.40400004386902
841.8842948,1.39999997615814
841.8999198,1.39499998092651
841.9155448,1.38999998569489
841.9311698,1.3860000371933
841.9467948,1.38199996948242
841.9624198,1.37999999523163
841.9780448,1.37899994850159
841.9936698,1.37899994850159
842.0092948,1.37899994850159
842.0249198,1.37999999523163
842.0405448,1.38100004196167
842.0561698,1.38199996948242
842.0717948,1.38300001621246
842.0874198,1.38399994373322
842.1030448,1.38399994373322
842.1186698,1.38499999046326
842.1342948,1.3860000371933
842.1499198,1.38800001144409
842.1655448,1.38900005817413
842.1811698,1.38999998569489
842.1967948,1.39100003242493
842.2124198,1.39300000667572
842.2280448,1.39400005340576
842.2436698,1.39400005340576
842.2592948,1.39499998092651
842.2749198,1.39600002765656
842.2905448,1.39600002765656
842.3061698,1.39699995517731
842.3217948,1.39699995517731
842.3374198,1.39699995517731
842.3530448,1.39699995517731
842.3686698,1.39699995517731
842.3842948,1.39699995517731
842.3999198,1.39699995517731
842.4155448,1.39699995517731
842.4311698,1.39699995517731
842.4467948,1.39800000190735
842.4624198,1.39800000190735
842.4780448,1.39900004863739
842.4936698,1.39999997615814
842.5092948,1.39999997615814
842.5249198,1.40100002288818
842.5405448,1.40299999713898
842.5561698,1.40400004386902
842.5717948,1.40499997138977
842.5874198,1.40600001811981
842.6030448,1.40699994564056
842.6186698,1.40799999237061
842.6342948,1.40900003910065
842.6499198,1.40900003910065
842.6655448,1.4099999666214
842.6811698,1.4099999666214
842.6967948,1.4099999666214
842.7124198,1.4099999666214
842.7280448,1.40900003910065
842.7436698,1.40900003910065
842.7592948,1.40799999237061
842.7749198,1.40799999237061
842.7905448,1.40699994564056
842.8061698,1.40699994564056
842.8217948,1.40600001811981
842.8374198,1.40600001811981
842.8530448,1.40600001811981
842.8686698,1.40499997138977
842.8842948,1.40499997138977
842.8999198,1.40499997138977
842.9155448,1.40499997138977
842.9311698,1.40499997138977
842.9467948,1.40499997138977
842.9624198,1.40600001811981
842.9780448,1.40699994564056
842.9936698,1.40699994564056
843.0092948,1.40799999237061
843.0249198,1.40900003910065
843.0405448,1.4099999666214
843.0561698,1.4099999666214
843.0717948,1.41100001335144
843.0874198,1.41299998760223
843.1030448,1.41400003433228
843.1186698,1.41499996185303
843.1342948,1.41600000858307
843.1499198,1.41700005531311
843.1655448,1.41700005531311
843.1811698,1.41700005531311
843.1967948,1.41600000858307
843.2124198,1.41600000858307
843.2280448,1.41600000858307
843.2436698,1.41600000858307
843.2592948,1.41700005531311
843.2749198,1.41799998283386
843.2905448,1.41799998283386
843.3061698,1.4190000295639
843.3217948,1.41999995708466
843.3374198,1.41999995708466
843.3530448,1.4210000038147
843.3686698,1.4210000038147
843.3842948,1.41999995708466
843.3999198,1.41999995708466
843.4155448,1.4190000295639
843.4311698,1.4190000295639
843.4467948,1.41799998283386
843.4624198,1.41799998283386
843.4780448,1.41700005531311
843.4936698,1.41700005531311
843.5092948,1.41600000858307
843.5249198,1.41499996185303
843.5405448,1.41499996185303
843.5561698,1.41400003433228
843.5717948,1.41299998760223
843.5874198,1.41199994087219
843.6030448,1.41199994087219
843.6186698,1.41100001335144
843.6342948,1.4099999666214
843.6499198,1.4099999666214
843.6655448,1.40900003910065
843.6811698,1.40900003910065
843.6967948,1.40799999237061
843.7124198,1.40699994564056
843.7280448,1.40600001811981
843.7436698,1.40600001811981
843.7592948,1.40499997138977
843.7749198,1.40400004386902
843.7905448,1.40299999713898
843.8061698,1.40100002288818
843.8217948,1.39999997615814
843.8374198,1.39900004863739
843.8530448,1.39699995517731
843.8686698,1.39600002765656
843.8842948,1.39600002765656
843.8999198,1.39499998092651
843.9155448,1.39400005340576
843.9311698,1.39300000667572
843.9467948,1.39300000667572
843.9624198,1.39199995994568
843.9780448,1.39199995994568
843.9936698,1.39199995994568
844.0092948,1.39100003242493
844.0249198,1.39100003242493
844.0405448,1.39100003242493
844.0561698,1.38999998569489
844.0717948,1.38900005817413
844.0874198,1.38900005817413
844.1030448,1.38900005817413
844.1186698,1.38800001144409
844.1342948,1.38800001144409
844.1499198,1.38699996471405
844.1655448,1.38699996471405
844.1811698,1.38699996471405
844.1967948,1.3860000371933
844.2124198,1.3860000371933
844.2280448,1.38499999046326
844.2436698,1.38499999046326
844.2592948,1.38499999046326
844.2749198,1.38399994373322
844.2905448,1.38399994373322
844.3061698,1.38399994373322
844.3217948,1.38300001621246
844.3374198,1.38300001621246
844.3530448,1.38300001621246
844.3686698,1.38199996948242
844.3842948,1.38199996948242
844.3999198,1.38199996948242
844.4155448,1.38199996948242
844.4311698,1.38100004196167
844.4467948,1.38100004196167
844.4624198,1.38199996948242
844.4780448,1.38199996948242
844.4936698,1.38199996948242
844.5092948,1.38199996948242
844.5249198,1.38199996948242
844.5405448,1.38199996948242
844.5561698,1.38199996948242
844.5717948,1.38199996948242
844.5874198,1.38199996948242
844.6030448,1.38199996948242
844.6186698,1.38199996948242
844.6342948,1.38199996948242
844.6499198,1.38199996948242
844.6655448,1.38199996948242
844.6811698,1.38199996948242
844.6967948,1.38100004196167
844.7124198,1.38100004196167
844.7280448,1.38100004196167
844.7436698,1.38100004196167
844.7592948,1.38100004196167
844.7749198,1.38199996948242
844.7905448,1.38300001621246
844.8061698,1.38399994373322
844.8217948,1.3860000371933
844.8374198,1.38699996471405
844.8530448,1.38699996471405
844.8686698,1.38800001144409
844.8842948,1.38800001144409
844.8999198,1.38800001144409
844.9155448,1.38800001144409
844.9311698,1.38800001144409
844.9467948,1.38699996471405
844.9624198,1.38699996471405
844.9780448,1.38699996471405
844.9936698,1.38699996471405
845.0092948,1.3860000371933
845.0249198,1.3860000371933
845.0405448,1.3860000371933
845.0561698,1.3860000371933
845.0717948,1.38499999046326
845.0874198,1.38499999046326
845.1030448,1.38499999046326
845.1186698,1.38399994373322
845.1342948,1.38399994373322
845.1499198,1.38399994373322
845.1655448,1.38399994373322
845.1811698,1.38399994373322
845.1967948,1.38300001621246
845.2124198,1.38300001621246
845.2280448,1.38300001621246
845.2436698,1.38300001621246
845.2592948,1.38300001621246
845.2749198,1.38300001621246
845.2905448,1.38300001621246
845.3061698,1.38300001621246
845.3217948,1.38300001621246
845.3374198,1.38199996948242
845.3530448,1.38199996948242
845.3686698,1.38199996948242
845.3842948,1.38199996948242
845.3999198,1.38100004196167
845.4155448,1.38100004196167
845.4311698,1.38100004196167
845.4467948,1.37999999523163
845.4624198,1.37999999523163
845.4780448,1.37999999523163
845.4936698,1.37999999523163
845.5092948,1.37999999523163
845.5249198,1.37899994850159
845.5405448,1.37899994850159
845.5561698,1.37800002098083
845.5717948,1.37800002098083
845.5874198,1.37800002098083
845.6030448,1.37699997425079
845.6186698,1.37699997425079
845.6342948,1.37699997425079
845.6499198,1.37600004673004
845.6655448,1.37600004673004
845.6811698,1.375
845.6967948,1.375
845.7124198,1.375
845.7280448,1.37399995326996
845.7436698,1.37399995326996
845.7592948,1.37300002574921
845.7749198,1.37300002574921
845.7905448,1.37300002574921
845.8061698,1.37199997901917
845.8217948,1.37199997901917
845.8374198,1.37100005149841
845.8530448,1.37100005149841
845.8686698,1.37100005149841
845.8842948,1.37000000476837
845.8999198,1.37000000476837
845.9155448,1.36899995803833
845.9311698,1.36899995803833
845.9467948,1.36800003051758
845.9624198,1.36800003051758
845.9780448,1.36800003051758
845.9936698,1.36699998378754
846.0092948,1.36699998378754
846.0249198,1.36600005626678
846.0405448,1.36600005626678
846.0561698,1.36500000953674
846.0717948,1.36500000953674
846.0874198,1.3639999628067
846.1030448,1.3639999628067
846.1186698,1.3639999628067
846.1342948,1.36300003528595
846.1499198,1.36300003528595
846.1655448,1.36199998855591
846.1811698,1.36199998855591
846.1967948,1.36199998855591
846.2124198,1.36099994182587
846.2280448,1.36099994182587
846.2436698,1.36000001430511
846.2592948,1.36000001430511
846.2749198,1.36000001430511
846.2905448,1.36000001430511
846.3061698,1.35899996757507
846.3217948,1.35899996757507
846.3374198,1.35899996757507
846.3530448,1.35800004005432
846.3686698,1.35800004005432
846.3842948,1.35699999332428
846.3999198,1.35699999332428
846.4155448,1.35699999332428
846.4311698,1.35699999332428
846.4467948,1.35599994659424
846.4624198,1.35599994659424
846.4780448,1.35599994659424
846.4936698,1.35599994659424
846.5092948,1.35599994659424
846.5249198,1.35500001907349
846.5405448,1.35500001907349
846.5561698,1.35500001907349
846.5717948,1.35500001907349
846.5874198,1.35399997234344
846.6030448,1.35399997234344
846.6186698,1.35399997234344
846.6342948,1.35399997234344
846.6499198,1.35399997234344
846.6655448,1.35399997234344
846.6811698,1.35399997234344
846.6967948,1.35399997234344
846.7124198,1.35399997234344
846.7280448,1.35300004482269
846.7436698,1.35300004482269
846.7592948,1.35300004482269
846.7749198,1.35300004482269
846.7905448,1.35300004482269
846.8061698,1.35300004482269
846.8217948,1.35300004482269
846.8374198,1.35300004482269
846.8530448,1.35199999809265
846.8686698,1.35199999809265
846.8842948,1.35199999809265
846.8999198,1.35199999809265
846.9155448,1.35199999809265
846.9311698,1.35199999809265
846.9467948,1.35199999809265
846.9624198,1.35199999809265
846.9780448,1.35199999809265
846.9936698,1.35199999809265
847.0092948,1.35199999809265
847.0249198,1.35199999809265
847.0405448,1.35099995136261
847.0561698,1.35099995136261
847.0717948,1.35099995136261
847.0874198,1.35099995136261
847.1030448,1.35099995136261
847.1186698,1.35000002384186
847.1342948,1.35000002384186
847.1499198,1.35000002384186
847.1655448,1.34899997711182
847.1811698,1.34899997711182
847.1967948,1.34899997711182
847.2124198,1.34800004959106
847.2280448,1.34800004959106
847.2436698,1.34800004959106
847.2592948,1.34800004959106
847.2749198,1.34700000286102
847.2905448,1.34700000286102
847.3061698,1.34700000286102
847.3217948,1.34599995613098
847.3374198,1.34599995613098
847.3530448,1.34599995613098
847.3686698,1.34500002861023
847.3842948,1.34500002861023
847.3999198,1.34500002861023
847.4155448,1.34399998188019
847.4311698,1.34399998188019
847.4467948,1.34399998188019
847.4624198,1.34300005435944
847.4780448,1.34300005435944
847.4936698,1.34300005435944
847.5092948,1.34200000762939
847.5249198,1.34200000762939
847.5405448,1.34200000762939
847.5561698,1.34099996089935
847.5717948,1.34099996089935
847.5874198,1.34099996089935
847.6030448,1.34099996089935
847.6186698,1.3400000333786
847.6342948,1.3400000333786
847.6499198,1.3400000333786
847.6655448,1.33899998664856
847.6811698,1.33899998664856
847.6967948,1.33899998664856
847.7124198,1.33800005912781
847.7280448,1.33800005912781
847.7436698,1.33800005912781
847.7592948,1.33800005912781
847.7749198,1.33800005912781
847.7905448,1.33700001239777
847.8061698,1.33700001239777
847.8217948,1.33700001239777
847.8374198,1.33700001239777
847.8530448,1.33800005912781
847.8686698,1.33800005912781
847.8842948,1.33800005912781
847.8999198,1.33800005912781
847.9155448,1.33800005912781
847.9311698,1.33700001239777
847.9467948,1.33700001239777
847.9624198,1.33700001239777
847.9780448,1.33700001239777
847.9936698,1.33599996566772
848.0092948,1.33599996566772
848.0249198,1.33599996566772
848.0405448,1.33500003814697
848.0561698,1.33500003814697
848.0717948,1.33500003814697
848.0874198,1.33500003814697
848.1030448,1.33399999141693
848.1186698,1.33399999141693
848.1342948,1.33399999141693
848.1499198,1.33399999141693
848.1655448,1.33299994468689
848.1811698,1.33299994468689
848.1967948,1.33299994468689
848.2124198,1.33200001716614
848.2280448,1.33200001716614
848.2436698,1.33200001716614
848.2592948,1.33200001716614
848.2749198,1.3309999704361
848.2905448,1.3309999704361
848.3061698,1.3309999704361
848.3217948,1.3309999704361
848.3374198,1.33000004291534
848.3530448,1.33000004291534
848.3686698,1.33000004291534
848.3842948,1.33000004291534
848.3999198,1.33000004291534
848.4155448,1.3289999961853
848.4311698,1.3289999961853
848.4467948,1.3289999961853
848.4624198,1.3289999961853
848.4780448,1.3289999961853
848.4936698,1.32799994945526
848.5092948,1.32799994945526
848.5249198,1.32799994945526
848.5405448,1.32700002193451
848.5561698,1.32700002193451
848.5717948,1.32700002193451
848.5874198,1.32599997520447
848.6030448,1.32599997520447
848.6186698,1.32599997520447
848.6342948,1.32599997520447
848.6499198,1.32500004768372
848.6655448,1.32500004768372
848.6811698,1.32500004768372
848.6967948,1.32400000095367
848.7124198,1.32400000095367
848.7280448,1.32400000095367
848.7436698,1.32299995422363
848.7592948,1.32299995422363
848.7749198,1.32299995422363
848.7905448,1.32299995422363
848.8061698,1.32200002670288
848.8217948,1.32200002670288
848.8374198,1.32099997997284
848.8530448,1.32099997997284
848.8686698,1.32099997997284
848.8842948,1.32099997997284
848.8999198,1.32000005245209
848.9155448,1.32000005245209
848.9311698,1.32000005245209
848.9467948,1.31900000572205
848.9624198,1.31900000572205
848.9780448,1.31900000572205
848.9936698,1.31900000572205
849.0092948,1.317999958992
849.0249198,1.317999958992
849.0405448,1.317999958992
849.0561698,1.317999958992
849.0717948,1.31700003147125
849.0874198,1.31700003147125
849.1030448,1.31700003147125
849.1186698,1.31700003147125
849.1342948,1.31599998474121
849.1499198,1.31599998474121
849.1655448,1.31599998474121
849.1811698,1.31599998474121
849.1967948,1.31500005722046
849.2124198,1.31500005722046
849.2280448,1.31500005722046
849.2436698,1.31500005722046
849.2592948,1.31400001049042
849.2749198,1.31400001049042
849.2905448,1.31400001049042
849.3061698,1.31400001049042
849.3217948,1.31299996376038
849.3374198,1.31299996376038
849.3530448,1.31299996376038
849.3686698,1.31299996376038
849.3842948,1.31200003623962
849.3999198,1.31200003623962
849.4155448,1.31200003623962
849.4311698,1.31200003623962
849.4467948,1.31200003623962
849.4624198,1.31099998950958
849.4780448,1.31099998950958
849.4936698,1.31099998950958
849.5092948,1.31099998950958
849.5249198,1.30999994277954
849.5405448,1.30999994277954
849.5561698,1.30999994277954
849.5717948,1.30999994277954
849.5874198,1.30999994277954
849.6030448,1.30999994277954
849.6186698,1.30999994277954
849.6342948,1.30999994277954
849.6499198,1.30999994277954
849.6655448,1.30999994277954
849.6811698,1.30999994277954
849.6967948,1.30900001525879
849.7124198,1.30900001525879
849.7280448,1.30900001525879
849.7436698,1.30900001525879
849.7592948,1.30900001525879
849.7749198,1.30900001525879
849.7905448,1.30900001525879
849.8061698,1.30900001525879
849.8217948,1.30900001525879
849.8374198,1.30900001525879
849.8530448,1.30900001525879
849.8686698,1.30900001525879
849.8842948,1.30900001525879
849.8999198,1.30900001525879
849.9155448,1.30900001525879
849.9311698,1.30900001525879
849.9467948,1.30900001525879
849.9624198,1.30900001525879
849.9780448,1.30900001525879
849.9936698,1.30900001525879
850.0092948,1.30799996852875
850.0249198,1.30799996852875
850.0405448,1.30799996852875
850.0561698,1.30799996852875
850.0717948,1.30799996852875
850.0874198,1.30799996852875
850.1030448,1.30799996852875
850.1186698,1.30799996852875
850.1342948,1.30799996852875
850.1499198,1.30799996852875
850.1655448,1.30799996852875
850.1811698,1.30900001525879
850.1967948,1.30900001525879
850.2124198,1.30900001525879
850.2280448,1.30999994277954
850.2436698,1.30999994277954
850.2592948,1.30999994277954
850.2749198,1.30999994277954
850.2905448,1.31099998950958
850.3061698,1.31099998950958
850.3217948,1.31099998950958
850.3374198,1.31099998950958
850.3530448,1.31099998950958
850.3686698,1.31099998950958
850.3842948,1.31099998950958
850.3999198,1.31099998950958
850.4155448,1.31099998950958
850.4311698,1.31099998950958
850.4467948,1.31099998950958
850.4624198,1.31099998950958
850.4780448,1.31099998950958
850.4936698,1.31099998950958
850.5092948,1.31099998950958
850.5249198,1.30999994277954
850.5405448,1.30999994277954
850.5561698,1.30999994277954
850.5717948,1.30900001525879
850.5874198,1.30900001525879
850.6030448,1.30900001525879
850.6186698,1.30799996852875
850.6342948,1.30799996852875
850.6499198,1.30799996852875
850.6655448,1.307000041008
850.6811698,1.307000041008
850.6967948,1.307000041008
850.7124198,1.307000041008
850.7280448,1.307000041008
850.7436698,1.307000041008
850.7592948,1.307000041008
850.7749198,1.307000041008
850.7905448,1.307000041008
850.8061698,1.307000041008
850.8217948,1.30799996852875
