Time(s),Value(%)
840.0092948,-32.1800003051758
840.0249198,-34.1599998474121
840.0405448,-36.9799995422363
840.0561698,-39.2900009155273
840.0717948,-40.4500007629395
840.0874198,-40.7299995422363
840.1030448,-40.8400001525879
840.1186698,-41.4700012207031
840.1342948,-42.9700012207031
840.1499198,-45.0900001525879
840.1655448,-47.060001373291
840.1811698,-48.189998626709
840.1967948,-48.3499984741211
840.2124198,-47.7599983215332
840.2280448,-46.439998626709
840.2436698,-44.189998626709
840.2592948,-40.8400001525879
840.2749198,-34.75
840.2905448,-20.5499992370605
840.3061698,9.30000019073486
840.3217948,57.7000007629395
840.3374198,116.930000305176
840.3530448,170.820007324219
840.3686698,203.470001220703
840.3842948,207.460006713867
840.3999198,185.949996948242
840.4155448,149.25
840.4311698,109.01000213623
840.4467948,73.8000030517578
840.4624198,47.3199996948242
840.4780448,29.1700000762939
840.4936698,16.75
840.5092948,7.01000022888184
840.5249198,-2.25999999046326
840.5405448,-11.8999996185303
840.5561698,-21.5900001525879
840.5717948,-30.4400005340576
840.5874198,-37.4599990844727
840.6030448,-41.8400001525879
840.6186698,-43.1500015258789
840.6342948,-41.310001373291
840.6499198,-37.0099983215332
840.6655448,-31.8600006103516
840.6811698,-27.6900005340576
840.6967948,-25.4799995422363
840.7124198,-24.8999996185303
840.7280448,-24.8500003814697
840.7436698,-24.5799999237061
840.7592948,-24.3299999237061
840.7749198,-24.9599990844727
840.7905448,-26.9899997711182
840.8061698,-29.8199996948242
840.8217948,-31.8500003814697
840.8374198,-31.5499992370605
840.8530448,-28.4300003051758
840.8686698,-23.4899997711182
840.8842948,-18.6399993896484
840.8999198,-14.3500003814697
840.9155448,-6.78000020980835
840.9311698,11.4899997711182
840.9467948,45.4599990844727
840.9624198,91.5199966430664
840.9780448,137.699996948242
840.9936698,169.949996948242
841.0092948,179.300003051758
841.0249198,165.470001220703
841.0405448,135.410003662109
841.0561698,99.1100006103516
841.0717948,65.3000030517578
841.0874198,38.5999984741211
841.1030448,19.1900005340576
841.1186698,4.59999990463257
841.1342948,-7.98999977111816
841.1499198,-20.1700000762939
841.1655448,-31.6100006103516
841.1811698,-40.6100006103516
841.1967948,-45.7000007629395
841.2124198,-47.0699996948242
841.2280448,-46.4199981689453
841.2436698,-45.6800003051758
841.2592948,-45.7200012207031
841.2749198,-45.9500007629395
841.2905448,-45.310001373291
841.3061698,-43.7099990844727
841.3217948,-42.3400001525879
841.3374198,-42.5400009155273
841.3530448,-44.6300010681152
841.3686698,-47.8300018310547
841.3842948,-50.939998626709
841.3999198,-52.9000015258789
841.4155448,-53.1800003051758
841.4311698,-52.060001373291
841.4467948,-50.4500007629395
841.4624198,-49.189998626709
841.4780448,-48.3800010681152
841.4936698,-47.6199989318848
841.5092948,-46.0800018310547
841.5249198,-41.0699996948242
841.5405448,-26.5900001525879
841.5561698,3.97000002861023
841.5717948,51.1800003051758
841.5874198,105.769996643066
841.6030448,152.289993286133
841.6186698,177.25
841.6342948,175.490005493164
841.6499198,151.449996948242
841.6655448,115.669998168945
841.6811698,79.0699996948242
841.6967948,48.5200004577637
841.7124198,25.75
841.7280448,9.0600004196167
841.7436698,-4.51000022888184
841.7592948,-17.5100002288818
841.7749198,-30.9799995422363
841.7905448,-43.9700012207031
841.8061698,-54.3499984741211
841.8217948,-60.2599983215332
841.8374198,-60.9599990844727
841.8530448,-57.1300010681152
841.8686698,-50.7900009155273
841.8842948,-44.7099990844727
841.8999198,-41.3400001525879
841.9155448,-41.6399993896484
841.9311698,-44.9099998474121
841.9467948,-49.439998626709
841.9624198,-53.4300003051758
841.9780448,-55.8600006103516
841.9936698,-56.7299995422363
842.0092948,-56.6100006103516
842.0249198,-56.1500015258789
842.0405448,-55.7999992370605
842.0561698,-55.6800003051758
842.0717948,-55.3899993896484
842.0874198,-54.2299995422363
842.1030448,-51.5999984741211
842.1186698,-47.4500007629395
842.1342948,-41.9700012207031
842.1499198,-33.7700004577637
842.1655448,-17.9300003051758
842.1811698,11.8699998855591
842.1967948,56.7999992370605
842.2124198,108.620002746582
842.2280448,152.899993896484
842.2436698,176.720001220703
842.2592948,174.899993896484
842.2749198,151.440002441406
842.2905448,116.51000213623
842.3061698,81.25
842.3217948,52.9199981689453
842.3374198,32.9500007629395
842.3530448,18.2900009155273
842.3686698,4.59999990463257
842.3842948,-11.0900001525879
842.3999198,-29.1000003814697
842.4155448,-47.1100006103516
842.4311698,-61.4799995422363
842.4467948,-69.2200012207031
842.4624198,-69.6600036621094
842.4780448,-64.7699966430664
842.4936698,-58.060001373291
842.5092948,-52.8199996948242
842.5249198,-50.8899993896484
842.5405448,-52.3499984741211
842.5561698,-56.1199989318848
842.5717948,-60.6399993896484
842.5874198,-64.2799987792969
842.6030448,-65.8399963378906
842.6186698,-64.9700012207031
842.6342948,-62.3300018310547
842.6499198,-59.2900009155273
842.6655448,-57.25
842.6811698,-57.2900009155273
842.6967948,-59.8699989318848
842.7124198,-64.620002746582
842.7280448,-70.0
842.7436698,-73.5999984741211
842.7592948,-72.6999969482422
842.7749198,-63.7299995422363
842.7905448,-41.7999992370605
842.8061698,-3.20000004768372
842.8217948,49.5099983215332
842.8374198,105.480003356934
842.8530448,149.679992675781
842.8686698,170.5
842.8842948,165.110000610352
842.8999198,139.75
842.9155448,105.519996643066
842.9311698,72.7799987792969
842.9467948,47.5900001525879
842.9624198,31.0300006866455
842.9780448,20.3899993896484
842.9936698,11.1999998092651
843.0092948,-0.129999995231628
843.0249198,-14.3699998855591
843.0405448,-29.4300003051758
843.0561698,-42.1800003051758
843.0717948,-50.2900009155273
843.0874198,-53.1399993896484
843.1030448,-51.9099998474121
843.1186698,-48.9599990844727
843.1342948,-46.8499984741211
843.1499198,-47.2999992370605
843.1655448,-50.6300010681152
843.1811698,-55.6800003051758
843.1967948,-60.5299987792969
843.2124198,-63.4599990844727
843.2280448,-63.6800003051758
843.2436698,-61.5499992370605
843.2592948,-58.1800003051758
843.2749198,-54.560001373291
843.2905448,-50.9900016784668
843.3061698,-47.5400009155273
843.3217948,-44.5499992370605
843.3374198,-42.6800003051758
843.3530448,-42.1699981689453
843.3686698,-42.1699981689453
843.3842948,-39.3899993896484
843.3999198,-27.4599990844727
843.4155448,0.419999986886978
843.4311698,45.3499984741211
843.4467948,98.7099990844727
843.4624198,145.559997558594
843.4780448,172.570007324219
843.4936698,174.330001831055
843.5092948,154.369995117188
843.5249198,121.690002441406
843.5405448,86.120002746582
843.5561698,54.7999992370605
843.5717948,30.8199996948242
843.5874198,13.6300001144409
843.6030448,0.5
843.6186698,-11.4899997711182
843.6342948,-23.7399997711182
843.6499198,-35.25
843.6655448,-43.7000007629395
843.6811698,-47.5099983215332
843.6967948,-47.060001373291
843.7124198,-44.4099998474121
843.7280448,-41.7099990844727
843.7436698,-39.9900016784668
843.7592948,-39.2099990844727
843.7749198,-38.9500007629395
843.7905448,-38.9799995422363
843.8061698,-39.2900009155273
843.8217948,-40.0499992370605
843.8374198,-41.4199981689453
843.8530448,-43.2900009155273
843.8686698,-45.1399993896484
843.8842948,-46.310001373291
843.8999198,-46.1100006103516
843.9155448,-44.0699996948242
843.9311698,-40.439998626709
843.9467948,-36.4799995422363
843.9624198,-33.1599998474121
843.9780448,-28.6599998474121
843.9936698,-17.3199996948242
844.0092948,6.94000005722046
844.0249198,44.5800018310547
844.0405448,87.8099975585938
844.0561698,124.279998779297
844.0717948,143.830001831055
844.0874198,143.429992675781
844.1030448,127.529998779297
844.1186698,104.5
844.1342948,82.129997253418
844.1499198,64.5899963378906
844.1655448,51.7700004577637
844.1811698,40.7299995422363
844.1967948,27.9899997711182
844.2124198,11.75
844.2280448,-6.76999998092651
844.2436698,-23.8299999237061
844.2592948,-35.4900016784668
844.2749198,-40.4000015258789
844.2905448,-40.4799995422363
844.3061698,-39.1300010681152
844.3217948,-39.1300010681152
844.3374198,-41.6800003051758
844.3530448,-46.560001373291
844.3686698,-52.7400016784668
844.3842948,-58.9199981689453
844.3999198,-63.9199981689453
844.4155448,-66.9899978637695
844.4311698,-67.9400024414063
844.4467948,-67.120002746582
844.4624198,-65.0
844.4780448,-61.7799987792969
844.4936698,-57.6699981689453
844.5092948,-53.5999984741211
844.5249198,-51.1199989318848
844.5405448,-51.1500015258789
844.5561698,-53.1300010681152
844.5717948,-54.4099998474121
844.5874198,-49.4000015258789
844.6030448,-30.3999996185303
844.6186698,7.11999988555908
844.6342948,58.8600006103516
844.6499198,112.050003051758
844.6655448,152.050003051758
844.6811698,169.529998779297
844.6967948,163.889999389648
844.7124198,141.960006713867
844.7280448,113.680000305176
844.7436698,87.5500030517578
844.7592948,67.9899978637695
844.7749198,55.0299987792969
844.7905448,45.5999984741211
844.8061698,35.6199989318848
844.8217948,22.1700000762939
844.8374198,5.19999980926514
844.8530448,-12.6000003814697
844.8686698,-27.9599990844727
844.8842948,-38.9700012207031
844.8999198,-45.7400016784668
844.9155448,-49.5800018310547
844.9311698,-51.8499984741211
844.9467948,-53.3499984741211
844.9624198,-54.310001373291
844.9780448,-55.0699996948242
844.9936698,-56.2200012207031
845.0092948,-58.0499992370605
845.0249198,-60.1599998474121
845.0405448,-61.7000007629395
845.0561698,-62.0099983215332
845.0717948,-61.25
845.0874198,-60.25
845.1030448,-59.8400001525879
845.1186698,-60.0499992370605
845.1342948,-60.0699996948242
845.1499198,-58.6800003051758
845.1655448,-55.0099983215332
845.1811698,-48.4199981689453
845.1967948,-36.8600006103516
845.2124198,-15.9300003051758
845.2280448,18.0200004577637
845.2436698,62.7999992370605
845.2592948,108.919998168945
845.2749198,144.25
845.2905448,160.660003662109
845.3061698,157.550003051758
845.3217948,140.479995727539
845.3374198,117.199996948242
845.3530448,94.129997253418
845.3686698,74.5
845.3842948,58.2900009155273
845.3999198,43.3699989318848
845.4155448,27.1800003051758
845.4311698,8.34000015258789
845.4467948,-12.4499998092651
845.4624198,-32.6300010681152
845.4780448,-48.939998626709
845.4936698,-59.0800018310547
845.5092948,-62.5699996948242
845.5249198,-60.7000007629395
845.5405448,-55.9000015258789
845.5561698,-50.6500015258789
845.5717948,-46.6199989318848
845.5874198,-44.3800010681152
845.6030448,-43.6800003051758
845.6186698,-43.7799987792969
845.6342948,-44.0699996948242
845.6499198,-44.5099983215332
845.6655448,-45.4000015258789
845.6811698,-46.9700012207031
845.6967948,-49.2000007629395
845.7124198,-51.6100006103516
845.7280448,-53.2900009155273
845.7436698,-53.4300003051758
845.7592948,-52.0800018310547
845.7749198,-50.1199989318848
845.7905448,-48.3899993896484
845.8061698,-46.6699981689453
845.8217948,-42.4199981689453
845.8374198,-29.9799995422363
845.8530448,-3.17000007629395
845.8686698,38.8899993896484
845.8842948,88.2200012207031
845.8999198,131.270004272461
845.9155448,156.410003662109
845.9311698,159.570007324219
845.9467948,144.770004272461
845.9624198,120.639999389648
845.9780448,95.7099990844727
845.9936698,75.0599975585938
846.0092948,59.4900016784668
846.0249198,46.7799987792969
846.0405448,33.9000015258789
846.0561698,19.0100002288818
846.0717948,2.25999999046326
846.0874198,-14.5299997329712
846.1030448,-28.9400005340576
846.1186698,-39.0900001525879
846.1342948,-44.5299987792969
846.1499198,-45.939998626709
846.1655448,-44.3899993896484
846.1811698,-40.9099998474121
846.1967948,-36.5999984741211
846.2124198,-32.7599983215332
846.2280448,-30.7600002288818
846.2436698,-31.4699993133545
846.2592948,-34.6599998474121
846.2749198,-38.9700012207031
846.2905448,-42.7200012207031
846.3061698,-44.8300018310547
846.3217948,-45.1500015258789
846.3374198,-44.1800003051758
846.3530448,-42.5699996948242
846.3686698,-40.6699981689453
846.3842948,-38.2700004577637
846.3999198,-35.1199989318848
846.4155448,-31.4599990844727
846.4311698,-27.9899997711182
846.4467948,-25.1599998474121
846.4624198,-21.6299991607666
846.4780448,-12.5500001907349
846.4936698,8.81999969482422
846.5092948,45.1300010681152
846.5249198,90.1500015258789
846.5405448,130.960006713867
846.5561698,155.429992675781
846.5717948,158.75
846.5874198,144.679992675781
846.6030448,121.709999084473
846.6186698,97.7099990844727
846.6342948,77.0
846.6499198,60.310001373291
846.6655448,46.0900001525879
846.6811698,31.8299999237061
846.6967948,15.5
846.7124198,-2.8199999332428
846.7280448,-20.6000003814697
846.7436698,-34.1699981689453
846.7592948,-40.9300003051758
846.7749198,-40.7200012207031
846.7905448,-35.8199996948242
846.8061698,-29.8899993896484
846.8217948,-25.8999996185303
846.8374198,-24.75
846.8530448,-25.5300006866455
846.8686698,-27.0699996948242
846.8842948,-28.9400005340576
846.8999198,-31.3899993896484
846.9155448,-34.7000007629395
846.9311698,-38.6599998474121
846.9467948,-42.5099983215332
846.9624198,-45.3199996948242
846.9780448,-46.4900016784668
846.9936698,-45.810001373291
847.0092948,-43.3400001525879
847.0249198,-39.4000015258789
847.0405448,-34.7299995422363
847.0561698,-30.4200000762939
847.0717948,-27.4200000762939
847.0874198,-25.25
847.1030448,-20.3600006103516
847.1186698,-6.40000009536743
847.1342948,21.5400009155273
847.1499198,61.7200012207031
847.1655448,104.709999084473
847.1811698,137.880004882813
847.1967948,151.949996948242
847.2124198,145.050003051758
847.2280448,122.599998474121
847.2436698,93.9700012207031
847.2592948,67.9199981689453
847.2749198,49.1300010681152
847.2905448,37.4300003051758
847.3061698,29.4099998474121
847.3217948,21.2000007629395
847.3374198,10.460000038147
847.3530448,-2.91000008583069
847.3686698,-17.4300003051758
847.3842948,-30.7999992370605
847.3999198,-40.9099998474121
847.4155448,-46.689998626709
847.4311698,-48.4799995422363
847.4467948,-47.5499992370605
847.4624198,-45.4199981689453
847.4780448,-43.4599990844727
847.4936698,-42.5099983215332
847.5092948,-42.9199981689453
847.5249198,-44.5699996948242
847.5405448,-46.9900016784668
847.5561698,-49.4900016784668
847.5717948,-51.5400009155273
847.5874198,-52.7400016784668
847.6030448,-52.7599983215332
847.6186698,-51.3400001525879
847.6342948,-48.5900001525879
847.6499198,-44.939998626709
847.6655448,-40.9099998474121
847.6811698,-37.060001373291
847.6967948,-34.0699996948242
847.7124198,-32.4300003051758
847.7280448,-31.7600002288818
847.7436698,-29.7000007629395
847.7592948,-21.1100006103516
847.7749198,0.209999993443489
847.7905448,36.4799995422363
847.8061698,81.7600021362305
847.8217948,123.790000915527
847.8374198,150.479995727539
847.8530448,155.929992675781
847.8686698,142.169998168945
847.8842948,116.769996643066
847.8999198,88.629997253418
847.9155448,64.3600006103516
847.9311698,46.6199989318848
847.9467948,34.2099990844727
847.9624198,23.5300006866455
847.9780448,11.0
847.9936698,-4.67999982833862
848.0092948,-21.7999992370605
848.0249198,-36.9700012207031
848.0405448,-47.3400001525879
848.0561698,-52.0
848.0717948,-52.0200004577637
848.0874198,-49.5800018310547
848.1030448,-46.8300018310547
848.1186698,-45.1300010681152
848.1342948,-45.0099983215332
848.1499198,-46.3800010681152
848.1655448,-48.6500015258789
848.1811698,-50.939998626709
848.1967948,-52.6599998474121
848.2124198,-53.6399993896484
848.2280448,-53.6300010681152
848.2436698,-52.1199989318848
848.2592948,-48.7799987792969
848.2749198,-44.2799987792969
848.2905448,-39.9900016784668
848.3061698,-36.8600006103516
848.3217948,-34.5800018310547
848.3374198,-31.9699993133545
848.3530448,-28.1000003814697
848.3686698,-23.1000003814697
848.3842948,-17.9699993133545
848.3999198,-13.210000038147
848.4155448,-6.65999984741211
848.4311698,6.86999988555908
848.4467948,31.8700008392334
848.4624198,67.0899963378906
848.4780448,104.550003051758
848.4936698,133.479995727539
848.5092948,145.779998779297
848.5249198,139.220001220703
848.5405448,117.629997253418
848.5561698,88.2799987792969
848.5717948,58.3699989318848
848.5874198,32.5499992370605
848.6030448,12.3100004196167
848.6186698,-3.28999996185303
848.6342948,-16.4899997711182
848.6499198,-29.2900009155273
848.6655448,-42.5999984741211
848.6811698,-55.8699989318848
848.6967948,-67.5999984741211
848.7124198,-76.2699966430664
848.7280448,-81.0500030517578
848.7436698,-81.629997253418
848.7592948,-78.0899963378906
848.7749198,-71.379997253418
848.7905448,-63.7000007629395
848.8061698,-57.5800018310547
848.8217948,-54.5
848.8374198,-54.2900009155273
848.8530448,-55.6300010681152
848.8686698,-57.0299987792969
848.8842948,-57.6599998474121
848.8999198,-57.189998626709
848.9155448,-55.3800010681152
848.9311698,-52.2000007629395
848.9467948,-48.2599983215332
848.9624198,-44.75
848.9780448,-42.7400016784668
848.9936698,-42.25
849.0092948,-41.8499984741211
849.0249198,-39.5099983215332
849.0405448,-33.9099998474121
849.0561698,-24.2999992370605
849.0717948,-8.51000022888184
849.0874198,17.0799999237061
849.1030448,53.7900009155273
849.1186698,97.0100021362305
849.1342948,136.970001220703
849.1499198,163.289993286133
849.1655448,169.779998779297
849.1811698,156.830001831055
849.1967948,130.490005493164
849.2124198,99.4000015258789
849.2280448,71.0299987792969
849.2436698,49.1300010681152
849.2592948,33.310001373291
849.2749198,20.5200004577637
849.2905448,7.51000022888184
849.3061698,-6.90999984741211
849.3217948,-21.2700004577637
849.3374198,-32.5699996948242
849.3530448,-38.2599983215332
849.3686698,-37.689998626709
849.3842948,-32.5
849.3999198,-25.8899993896484
849.4155448,-20.8199996948242
849.4311698,-18.5300006866455
849.4467948,-18.3899993896484
849.4624198,-19.0300006866455
849.4780448,-19.4300003051758
849.4936698,-19.4200000762939
849.5092948,-19.5300006866455
849.5249198,-20.6299991607666
849.5405448,-23.2000007629395
849.5561698,-26.9599990844727
849.5717948,-30.8400001525879
849.5874198,-33.5900001525879
849.6030448,-34.4599990844727
849.6186698,-33.4300003051758
849.6342948,-30.9300003051758
849.6499198,-27.5499992370605
849.6655448,-23.7900009155273
849.6811698,-19.2199993133545
849.6967948,-10.8800001144409
849.7124198,6.21000003814697
849.7280448,34.9300003051758
849.7436698,71.7099990844727
849.7592948,107.059997558594
849.7749198,130.380004882813
849.7905448,135.389999389648
849.8061698,122.580001831055
849.8217948,97.8300018310547
849.8374198,68.9000015258789
849.8530448,42.0900001525879
849.8686698,20.5599994659424
849.8842948,4.61999988555908
849.8999198,-7.13000011444092
849.9155448,-16.7299995422363
849.9311698,-25.6000003814697
849.9467948,-33.810001373291
849.9624198,-40.4599990844727
849.9780448,-44.6599998474121
849.9936698,-46.3699989318848
850.0092948,-46.25
850.0249198,-45.0800018310547
850.0405448,-43.560001373291
850.0561698,-42.1699981689453
850.0717948,-41.2400016784668
850.0874198,-41.0900001525879
850.1030448,-41.939998626709
850.1186698,-43.5900001525879
850.1342948,-45.4799995422363
850.1499198,-47.0
850.1655448,-47.5900001525879
850.1811698,-47.1300010681152
850.1967948,-46.2200012207031
850.2124198,-45.5999984741211
850.2280448,-45.4599990844727
850.2436698,-45.5800018310547
850.2592948,-45.9500007629395
850.2749198,-46.3899993896484
850.2905448,-45.9199981689453
850.3061698,-42.5499992370605
850.3217948,-32.8699989318848
850.3374198,-12.2200002670288
850.3530448,22.0400009155273
850.3686698,66.0199966430664
850.3842948,108.949996948242
850.3999198,138.559997558594
850.4155448,147.669998168945
850.4311698,136.820007324219
850.4467948,112.680000305176
850.4624198,84.1999969482422
850.4780448,58.7599983215332
850.4936698,40.0800018310547
850.5092948,28.0799999237061
850.5249198,20.0699996948242
850.5405448,12.5100002288818
850.5561698,2.71000003814697
850.5717948,-9.97999954223633
850.5874198,-24.0100002288818
850.6030448,-36.7099990844727
850.6186698,-45.7799987792969
850.6342948,-50.2299995422363
850.6499198,-50.4900016784668
850.6655448,-48.0400009155273
850.6811698,-44.8499984741211
850.6967948,-42.6599998474121
850.7124198,-42.4300003051758
850.7280448,-44.1399993896484
