Time(s),Value(%)
149.0030367,26.3799991607666
149.0186617,23.8400001525879
149.0342867,19.0200004577637
149.0499117,13.4499998092651
149.0655367,8.36999988555908
149.0811617,4.40999984741211
149.0967867,1.53999996185303
149.1124117,-0.709999978542328
149.1280367,-2.84999990463257
149.1436617,-5.01999998092651
149.1592867,-7.0
149.1749117,-8.47000026702881
149.1905367,-9.26000022888184
149.2061617,-9.43000030517578
149.2217867,-9.23999977111816
149.2374117,-8.94999980926514
149.2530367,-8.69999980926514
149.2686617,-8.4399995803833
149.2842867,-8.0
149.2999117,-7.34999990463257
149.3155367,-6.65999984741211
149.3311617,-6.21999979019165
149.3467867,-6.13000011444092
149.3624117,-6.32000017166138
149.3780367,-6.61999988555908
149.3936617,-6.94000005722046
149.4092867,-7.15999984741211
149.4249117,-7.07000017166138
149.4405367,-6.57999992370605
149.4561617,-5.78999996185303
149.4717867,-4.71999979019165
149.4874117,-3.00999999046326
149.5030367,0.0099999997764825
149.5186617,4.78999996185303
149.5342867,10.8599996566772
149.5499117,17.0300006866455
149.5655367,21.9899997711182
149.5811617,24.7700004577637
149.5967867,25.0699996948242
149.6124117,23.1700000762939
149.6280367,19.6599998474121
149.6436617,15.1499996185303
149.6592867,10.1499996185303
149.6749117,5.01999998092651
149.6905367,-0.159999996423721
149.7061617,-5.34999990463257
149.7217867,-10.210000038147
149.7374117,-14.0299997329712
149.7530367,-15.9799995422363
149.7686617,-15.3999996185303
149.7842867,-12.4099998474121
149.7999117,-8.35999965667725
149.8155367,-5.26999998092651
149.8311617,-4.40999984741211
149.8467867,-5.61999988555908
149.8624117,-7.76000022888184
149.8780367,-9.72000026702881
149.8936617,-10.9700002670288
149.9092867,-11.5500001907349
149.9249117,-11.6199998855591
149.9405367,-11.3000001907349
149.9561617,-10.6700000762939
149.9717867,-9.90999984741211
149.9874117,-9.25
150.0030367,-8.88000011444092
150.0186617,-8.73999977111816
150.0342867,-8.55000019073486
150.0499117,-8.0600004196167
150.0655367,-7.1100001335144
150.0811617,-5.28000020980835
150.0967867,-1.77999997138977
150.1124117,3.98000001907349
150.1280367,11.5699996948242
150.1436617,19.2600002288818
150.1592867,24.8500003814697
150.1749117,26.9099998474121
150.1905367,25.3600006103516
150.2061617,21.2399997711182
150.2217867,16.1000003814697
150.2374117,11.2399997711182
150.2530367,7.32000017166138
150.2686617,4.32999992370605
150.2842867,1.86000001430511
150.2999117,-0.610000014305115
150.3155367,-3.24000000953674
150.3311617,-5.63000011444092
150.3467867,-7.1399998664856
150.3624117,-7.42000007629395
150.3780367,-6.57999992370605
150.3936617,-5.01999998092651
150.4092867,-3.30999994277954
150.4249117,-1.94000005722046
150.4405367,-1.24000000953674
150.4561617,-1.30999994277954
150.4717867,-2.00999999046326
150.4874117,-2.97000002861023
150.5030367,-3.96000003814697
150.5186617,-5.03000020980835
150.5342867,-6.42000007629395
150.5499117,-8.09000015258789
150.5655367,-9.51000022888184
150.5811617,-9.75
150.5967867,-7.8899998664856
150.6124117,-3.28999996185303
150.6280367,4.03999996185303
150.6436617,13.0299997329712
150.6592867,21.7099990844727
150.6749117,27.9899997711182
150.6905367,30.4699993133545
150.7061617,28.9099998474121
150.7217867,24.2199993133545
150.7374117,18.0200004577637
150.7530367,11.9200000762939
150.7686617,6.96000003814697
150.7842867,3.30999994277954
150.7999117,0.469999998807907
150.8155367,-2.11999988555908
150.8311617,-4.82999992370605
150.8467867,-7.63000011444092
150.8624117,-10.2700004577637
150.8780367,-12.4899997711182
150.8936617,-14.0500001907349
150.9092867,-14.8599996566772
150.9249117,-14.9499998092651
150.9405367,-14.539999961853
150.9561617,-13.9499998092651
150.9717867,-13.4200000762939
150.9874117,-13.0200004577637
151.0030367,-12.6999998092651
151.0186617,-12.4700002670288
151.0342867,-12.289999961853
151.0499117,-12.1400003433228
151.0655367,-11.8299999237061
151.0811617,-10.9099998474121
151.0967867,-8.55000019073486
151.1124117,-3.79999995231628
151.1280367,3.72000002861023
151.1436617,13.210000038147
151.1592867,22.8799991607666
151.1749117,30.7999992370605
151.1905367,35.5499992370605
151.2061617,36.4799995422363
151.2217867,33.7999992370605
151.2374117,28.4899997711182
151.2530367,21.8600006103516
151.2686617,15.0799999237061
151.2842867,8.72000026702881
151.2999117,2.84999990463257
151.3155367,-2.51999998092651
151.3311617,-7.21000003814697
151.3467867,-10.9300003051758
151.3624117,-13.5100002288818
151.3780367,-14.9200000762939
151.3936617,-15.3100004196167
151.4092867,-15.0
151.4249117,-14.3800001144409
151.4405367,-13.7700004577637
151.4561617,-13.4799995422363
151.4717867,-13.6199998855591
151.4874117,-14.1099996566772
151.5030367,-14.7200002670288
151.5186617,-15.2399997711182
151.5342867,-15.539999961853
151.5499117,-15.5100002288818
151.5655367,-14.7600002288818
151.5811617,-12.3400001525879
151.5967867,-7.21000003814697
151.6124117,0.720000028610229
151.6280367,10.1899995803833
151.6436617,18.9200000762939
151.6592867,24.7199993133545
151.6749117,26.5
151.6905367,24.5699996948242
151.7061617,20.2700004577637
151.7217867,15.1700000762939
151.7374117,10.3400001525879
151.7530367,6.1399998664856
151.7686617,2.36999988555908
151.7842867,-1.29999995231628
151.7999117,-5.05000019073486
151.8155367,-8.65999984741211
151.8311617,-11.6499996185303
151.8467867,-13.6700000762939
151.8624117,-14.6599998474121
151.8780367,-14.8100004196167
151.8936617,-14.4499998092651
151.9092867,-13.9300003051758
151.9249117,-13.5100002288818
151.9405367,-13.3199996948242
151.9561617,-13.3400001525879
151.9717867,-13.5200004577637
151.9874117,-13.710000038147
152.0030367,-13.7200002670288
152.0186617,-13.3999996185303
152.0342867,-12.539999961853
152.0499117,-10.539999961853
152.0655367,-6.3899998664856
152.0811617,0.550000011920929
152.0967867,9.77999973297119
152.1124117,19.3799991607666
152.1280367,26.9300003051758
152.1436617,30.7199993133545
152.1592867,30.4300003051758
152.1749117,26.9599990844727
152.1905367,21.8700008392334
152.2061617,16.6000003814697
152.2217867,11.8800001144409
152.2374117,7.61999988555908
152.2530367,3.4300000667572
152.2686617,-0.899999976158142
152.2842867,-5.21999979019165
152.2999117,-9.05000019073486
152.3155367,-11.8400001525879
152.3311617,-13.3000001907349
152.3467867,-13.539999961853
152.3624117,-12.9399995803833
152.3780367,-11.9799995422363
152.3936617,-11.1400003433228
152.4092867,-10.7799997329712
152.4249117,-10.9700002670288
152.4405367,-11.5600004196167
152.4561617,-12.25
152.4717867,-12.7600002288818
152.4874117,-12.9099998474121
152.5030367,-12.5500001907349
152.5186617,-11.2700004577637
152.5342867,-7.98000001907349
152.5499117,-1.5
152.5655367,8.13000011444092
152.5811617,18.9300003051758
152.5967867,27.9599990844727
152.6124117,33.0200004577637
152.6280367,33.4700012207031
152.6436617,30.1399993896484
152.6592867,24.5799999237061
152.6749117,18.5
152.6905367,13.0299997329712
152.7061617,8.40999984741211
152.7217867,4.23999977111816
152.7374117,0.100000001490116
152.7530367,-3.99000000953674
152.7686617,-7.6100001335144
152.7842867,-10.25
152.7999117,-11.6499996185303
152.8155367,-11.9399995803833
152.8311617,-11.460000038147
152.8467867,-10.6499996185303
152.8624117,-9.90999984741211
152.8780367,-9.61999988555908
152.8936617,-9.9399995803833
152.9092867,-10.8299999237061
152.9249117,-12.0100002288818
152.9405367,-13.0799999237061
152.9561617,-13.6199998855591
152.9717867,-13.1800003051758
152.9874117,-11.0900001525879
153.0030367,-6.38000011444092
153.0186617,1.54999995231628
153.0342867,11.9300003051758
153.0499117,22.3899993896484
153.0655367,30.2099990844727
153.0811617,33.7299995422363
153.0967867,33.0099983215332
153.1124117,29.3400001525879
153.1280367,24.3899993896484
153.1436617,19.4099998474121
153.1592867,14.8900003433228
153.1749117,10.6499996185303
153.1905367,6.28999996185303
153.2061617,1.5900000333786
153.2217867,-3.36999988555908
153.2374117,-8.18000030517578
153.2530367,-12.210000038147
153.2686617,-15.0200004577637
153.2842867,-16.4899997711182
153.2999117,-16.8700008392334
153.3155367,-16.6299991607666
153.3311617,-16.25
153.3467867,-16.0200004577637
153.3624117,-16.0
153.3780367,-16.1700000762939
153.3936617,-16.4500007629395
153.4092867,-16.7199993133545
153.4249117,-17.0
153.4405367,-17.2399997711182
153.4561617,-16.9599990844727
153.4717867,-14.9899997711182
153.4874117,-9.84000015258789
153.5030367,-0.839999973773956
153.5186617,10.8000001907349
153.5342867,22.2299995422363
153.5499117,30.4300003051758
153.5655367,33.7700004577637
153.5811617,32.5999984741211
153.5967867,28.5799999237061
153.6124117,23.5100002288818
153.6280367,18.5900001525879
153.6436617,14.2600002288818
153.6592867,10.3599996566772
153.6749117,6.42000007629395
153.6905367,2.02999997138977
153.7061617,-2.89000010490417
153.7217867,-7.94999980926514
153.7374117,-12.4300003051758
153.7530367,-15.6199998855591
153.7686617,-17.2000007629395
153.7842867,-17.3099994659424
153.7999117,-16.4599990844727
153.8155367,-15.3900003433228
153.8311617,-14.7600002288818
153.8467867,-14.8400001525879
153.8624117,-15.460000038147
153.8780367,-16.2299995422363
153.8936617,-16.8299999237061
153.9092867,-17.1299991607666
153.9249117,-17.0900001525879
153.9405367,-16.3999996185303
153.9561617,-14.1499996185303
153.9717867,-8.9399995803833
153.9874117,0.0
154.0030367,11.6099996566772
154.0186617,23.1599998474121
154.0342867,31.75
154.0499117,35.7799987792969
154.0655367,35.3300018310547
154.0811617,31.6599998474121
154.0967867,26.3899993896484
154.1124117,20.7999992370605
154.1280367,15.5
154.1436617,10.5100002288818
154.1592867,5.59999990463257
154.1749117,0.620000004768372
154.1905367,-4.32999992370605
154.2061617,-8.93000030517578
154.2217867,-12.6499996185303
154.2374117,-15.0799999237061
154.2530367,-16.1700000762939
154.2686617,-16.2299995422363
154.2842867,-15.8400001525879
154.2999117,-15.5500001907349
154.3155367,-15.7299995422363
154.3311617,-16.4699993133545
154.3467867,-17.5799999237061
154.3624117,-18.6900005340576
154.3780367,-19.4300003051758
154.3936617,-19.6700000762939
154.4092867,-19.5400009155273
154.4249117,-19.0699996948242
154.4405367,-17.6299991607666
154.4561617,-13.8999996185303
154.4717867,-6.59000015258789
154.4874117,4.28000020980835
154.5030367,16.8999996185303
154.5186617,28.2700004577637
154.5342867,35.7400016784668
154.5499117,38.1699981689453
154.5655367,36.0699996948242
154.5811617,31.0799999237061
154.5967867,25.0900001525879
154.6124117,19.4099998474121
154.6280367,14.4399995803833
154.6436617,9.85000038146973
154.6592867,5.1100001335144
154.6749117,0.0
154.6905367,-5.19999980926514
154.7061617,-9.82999992370605
154.7217867,-13.2200002670288
154.7374117,-15.0600004196167
154.7530367,-15.5299997329712
154.7686617,-15.1999998092651
154.7842867,-14.6999998092651
154.7999117,-14.4399995803833
154.8155367,-14.5900001525879
154.8311617,-15.1499996185303
154.8467867,-16.0200004577637
154.8624117,-16.9599990844727
154.8780367,-17.7700004577637
154.8936617,-18.2600002288818
154.9092867,-18.3500003814697
154.9249117,-18.0400009155273
154.9405367,-17.4699993133545
154.9561617,-16.5499992370605
154.9717867,-14.2799997329712
154.9874117,-8.9399995803833
155.0030367,0.589999973773956
155.0186617,13.5100002288818
155.0342867,27.0
155.0499117,37.6599998474121
155.0655367,43.2099990844727
155.0811617,43.3699989318848
155.0967867,39.4500007629395
155.1124117,33.3800010681152
155.1280367,26.8500003814697
155.1436617,20.8999996185303
155.1592867,15.75
155.1749117,11.039999961853
155.1905367,6.21999979019165
155.2061617,1.22000002861023
155.2217867,-3.48000001907349
155.2374117,-7.19999980926514
155.2530367,-9.5
155.2686617,-10.3599996566772
155.2842867,-10.1899995803833
155.2999117,-9.65999984741211
155.3155367,-9.39000034332275
155.3311617,-9.73999977111816
155.3467867,-10.7299995422363
155.3624117,-12.0699996948242
155.3780367,-13.4200000762939
155.3936617,-14.5
155.4092867,-15.1599998474121
155.4249117,-15.3599996566772
155.4405367,-15.3100004196167
155.4561617,-15.2399997711182
155.4717867,-15.1099996566772
155.4874117,-14.1700000762939
155.5030367,-10.8800001144409
155.5186617,-3.80999994277954
155.5342867,6.90999984741211
155.5499117,19.0900001525879
155.5655367,29.5
155.5811617,35.5499992370605
155.5967867,36.3699989318848
155.6124117,32.8899993896484
155.6280367,27.0799999237061
155.6436617,20.8899993896484
155.6592867,15.5200004577637
155.6749117,11.0799999237061
155.6905367,7.01000022888184
155.7061617,2.65000009536743
155.7217867,-2.17000007629395
155.7374117,-7.11999988555908
155.7530367,-11.4300003051758
155.7686617,-14.3800001144409
155.7842867,-15.6899995803833
155.7999117,-15.710000038147
155.8155367,-15.1000003814697
155.8311617,-14.4700002670288
155.8467867,-14.210000038147
155.8624117,-14.4099998474121
155.8780367,-14.9399995803833
155.8936617,-15.5699996948242
155.9092867,-16.1399993896484
155.9249117,-16.5499992370605
155.9405367,-16.7700004577637
155.9561617,-16.7999992370605
155.9717867,-16.6800003051758
155.9874117,-16.3400001525879
156.0030367,-15.5100002288818
156.0186617,-13.4499998092651
156.0342867,-8.84000015258789
156.0499117,-0.620000004768372
156.0655367,10.8100004196167
156.0811617,23.2099990844727
156.0967867,33.3699989318848
156.1124117,38.810001373291
156.1280367,38.8899993896484
156.1436617,34.9300003051758
156.1592867,29.0200004577637
156.1749117,22.9599990844727
156.1905367,17.6200008392334
156.2061617,13.0600004196167
156.2217867,8.8100004196167
156.2374117,4.40000009536743
156.2530367,-0.230000004172325
156.2686617,-4.71000003814697
156.2842867,-8.38000011444092
156.2999117,-10.8000001907349
156.3155367,-12.0100002288818
156.3311617,-12.4499998092651
156.3467867,-12.6800003051758
156.3624117,-12.9399995803833
156.3780367,-13.1000003814697
156.3936617,-12.9300003051758
156.4092867,-12.5200004577637
156.4249117,-12.3400001525879
156.4405367,-12.8500003814697
156.4561617,-14.0900001525879
156.4717867,-15.6300001144409
156.4874117,-16.9599990844727
156.5030367,-17.7399997711182
156.5186617,-17.9099998474121
156.5342867,-17.2999992370605
156.5499117,-15.2700004577637
156.5655367,-10.710000038147
156.5811617,-2.95000004768372
156.5967867,7.17999982833862
156.6124117,17.7099990844727
156.6280367,26.5499992370605
156.6436617,32.25
156.6592867,34.2299995422363
156.6749117,32.8400001525879
156.6905367,29.0699996948242
156.7061617,24.1900005340576
156.7217867,19.3099994659424
156.7374117,15.039999961853
156.7530367,11.3500003814697
156.7686617,7.76000022888184
156.7842867,3.75999999046326
156.7999117,-0.769999980926514
156.8155367,-5.42000007629395
156.8311617,-9.35999965667725
156.8467867,-11.9099998474121
156.8624117,-12.9399995803833
156.8780367,-12.8900003433228
156.8936617,-12.4300003051758
156.9092867,-12.0200004577637
156.9249117,-11.8199996948242
156.9405367,-11.8800001144409
156.9561617,-12.2700004577637
156.9717867,-13.0500001907349
156.9874117,-14.1400003433228
157.0030367,-15.2399997711182
157.0186617,-16.0100002288818
157.0342867,-16.2199993133545
157.0499117,-15.8299999237061
157.0655367,-14.9200000762939
157.0811617,-13.5500001907349
157.0967867,-11.710000038147
157.1124117,-9.17000007629395
157.1280367,-5.28999996185303
157.1436617,0.879999995231628
157.1592867,9.68000030517578
157.1749117,19.9099998474121
157.1905367,29.1800003051758
157.2061617,35.189998626709
157.2217867,36.9099998474121
157.2374117,34.7799987792969
157.2530367,30.1499996185303
157.2686617,24.6000003814697
157.2842867,19.2399997711182
157.2999117,14.5100002288818
157.3155367,10.2700004577637
157.3311617,6.19999980926514
157.3467867,2.15000009536743
157.3624117,-1.64999997615814
157.3780367,-4.82999992370605
157.3936617,-7.07000017166138
157.4092867,-8.31999969482422
157.4249117,-8.69999980926514
157.4405367,-8.40999984741211
157.4561617,-7.75
157.4717867,-7.05999994277954
157.4874117,-6.73000001907349
157.5030367,-7.01999998092651
157.5186617,-8.01000022888184
157.5342867,-9.5
157.5499117,-10.960000038147
157.5655367,-11.8800001144409
157.5811617,-12.039999961853
157.5967867,-11.6499996185303
157.6124117,-11.210000038147
157.6280367,-11.2399997711182
157.6436617,-11.8699998855591
157.6592867,-12.6800003051758
157.6749117,-12.8599996566772
157.6905367,-11.4200000762939
157.7061617,-7.15000009536743
157.7217867,0.810000002384186
157.7374117,11.8299999237061
157.7530367,23.2399997711182
157.7686617,31.7299995422363
157.7842867,35.189998626709
157.7999117,33.560001373291
157.8155367,28.3899993896484
157.8311617,21.7700004577637
157.8467867,15.4200000762939
157.8624117,10.1800003051758
157.8780367,6.05999994277954
157.8936617,2.66000008583069
157.9092867,-0.449999988079071
157.9249117,-3.48000001907349
157.9405367,-6.30000019073486
157.9561617,-8.57999992370605
157.9717867,-9.97999954223633
157.9874117,-10.3400001525879
158.0030367,-9.85999965667725
158.0186617,-8.9399995803833
158.0342867,-8.02000045776367
158.0499117,-7.5
158.0655367,-7.59999990463257
158.0811617,-8.31999969482422
158.0967867,-9.42000007629395
158.1124117,-10.539999961853
158.1280367,-11.4200000762939
158.1436617,-11.8800001144409
158.1592867,-11.8999996185303
158.1749117,-11.5699996948242
158.1905367,-11.0500001907349
158.2061617,-10.3699998855591
158.2217867,-9.13000011444092
158.2374117,-6.28000020980835
158.2530367,-0.759999990463257
158.2686617,7.46999979019165
158.2842867,16.9099998474121
158.2999117,24.9599990844727
158.3155367,29.4300003051758
158.3311617,29.5
158.3467867,25.8799991607666
158.3624117,20.1499996185303
158.3780367,13.8599996566772
158.3936617,8.10000038146973
158.4092867,3.36999988555908
158.4249117,-0.430000007152557
158.4405367,-3.71000003814697
158.4561617,-6.69000005722046
158.4717867,-9.32999992370605
158.4874117,-11.4300003051758
158.5030367,-12.7600002288818
158.5186617,-13.1499996185303
158.5342867,-12.6700000762939
158.5499117,-11.6000003814697
158.5655367,-10.3999996185303
158.5811617,-9.53999996185303
158.5967867,-9.30000019073486
158.6124117,-9.6899995803833
158.6280367,-10.5
158.6436617,-11.3900003433228
158.6592867,-12.0600004196167
158.6749117,-12.3299999237061
158.6905367,-12.210000038147
158.7061617,-11.9099998474121
158.7217867,-11.6800003051758
158.7374117,-11.3400001525879
158.7530367,-9.85000038146973
158.7686617,-5.63000011444092
158.7842867,2.05999994277954
158.7999117,12.25
158.8155367,22.3199996948242
158.8311617,29.4599990844727
158.8467867,31.9599990844727
158.8624117,29.7399997711182
158.8780367,24.0300006866455
158.8936617,16.6700000762939
158.9092867,9.38000011444092
158.9249117,3.21000003814697
158.9405367,-1.55999994277954
158.9561617,-5.30000019073486
158.9717867,-8.59000015258789
158.9874117,-11.6400003433228
159.0030367,-14.0799999237061
159.0186617,-15.3199996948242
159.0342867,-15.1499996185303
159.0499117,-13.8500003814697
159.0655367,-12.0699996948242
159.0811617,-10.5200004577637
159.0967867,-9.68000030517578
159.1124117,-9.59000015258789
159.1280367,-9.97999954223633
159.1436617,-10.3900003433228
159.1592867,-10.3599996566772
159.1749117,-9.78999996185303
159.1905367,-8.97999954223633
159.2061617,-8.39999961853027
159.2217867,-8.26000022888184
159.2374117,-8.22000026702881
159.2530367,-7.40999984741211
159.2686617,-4.65000009536743
159.2842867,0.990000009536743
159.2999117,9.42000007629395
159.3155367,19.2700004577637
159.3311617,28.5100002288818
159.3467867,35.1500015258789
159.3624117,37.5800018310547
159.3780367,35.2099990844727
159.3936617,29.0499992370605
159.4092867,21.1900005340576
159.4249117,13.5699996948242
159.4405367,7.23000001907349
159.4561617,2.25999999046326
159.4717867,-1.75999999046326
159.4874117,-5.23000001907349
159.5030367,-8.25
159.5186617,-10.6599998474121
159.5342867,-12.25
159.5499117,-12.8900003433228
159.5655367,-12.6899995803833
159.5811617,-11.8699998855591
159.5967867,-10.7299995422363
159.6124117,-9.56999969482422
159.6280367,-8.63000011444092
159.6436617,-8.06999969482422
159.6592867,-7.8899998664856
159.6749117,-8.0
159.6905367,-8.3100004196167
159.7061617,-8.71000003814697
159.7217867,-9.07999992370605
159.7374117,-9.25
