Time(s),Value(%)
853.0083602,-0.870000004768372
853.0239852,-1.51999998092651
853.0396102,-2.02999997138977
853.0552352,-2.39000010490417
853.0708602,-2.65000009536743
853.0864852,-2.86999988555908
853.1021102,-3.01999998092651
853.1177352,-2.99000000953674
853.1333602,-2.70000004768372
853.1489852,-2.20000004768372
853.1646102,-1.62000000476837
853.1802352,-1.13999998569489
853.1958602,-0.850000023841858
853.2114852,-0.779999971389771
853.2271102,-0.949999988079071
853.2427352,-1.37000000476837
853.2583602,-2.00999999046326
853.2739852,-2.8199999332428
853.2896102,-3.71000003814697
853.3052352,-4.61999988555908
853.3208602,-5.53999996185303
853.3364852,-6.55000019073486
853.3521102,-7.82999992370605
853.3677352,-9.42000007629395
853.3833602,-11.210000038147
853.3989852,-12.9899997711182
853.4146102,-14.5600004196167
853.4302352,-15.5500001907349
853.4458602,-15.3900003433228
853.4614852,-13.5600004196167
853.4771102,-9.96000003814697
853.4927352,-5.15999984741211
853.5083602,-0.360000014305115
853.5239852,3.10999989509583
853.5396102,4.53000020980835
853.5552352,3.98000001907349
853.5708602,2.13000011444092
853.5864852,-0.189999997615814
853.6021102,-2.34999990463257
853.6177352,-4.01999998092651
853.6333602,-5.26000022888184
853.6489852,-6.3600001335144
853.6646102,-7.65000009536743
853.6802352,-9.15999984741211
853.6958602,-10.5699996948242
853.7114852,-11.4200000762939
853.7271102,-11.3699998855591
853.7427352,-10.3599996566772
853.7583602,-8.6899995803833
853.7739852,-6.78999996185303
853.7896102,-5.01000022888184
853.8052352,-3.44000005722046
853.8208602,-2.19000005722046
853.8364852,-1.4099999666214
853.8521102,-1.25
853.8677352,-1.64999997615814
853.8833602,-2.44000005722046
853.8989852,-3.51999998092651
853.9146102,-4.92000007629395
853.9302352,-6.69999980926514
853.9458602,-8.75
853.9614852,-10.6999998092651
853.9771102,-12.25
853.9927352,-13.2600002288818
854.0083602,-13.7700004577637
854.0239852,-13.9499998092651
854.0396102,-13.9399995803833
854.0552352,-13.8100004196167
854.0708602,-13.5500001907349
854.0864852,-13.0600004196167
854.1021102,-12.2399997711182
854.1177352,-11.0600004196167
854.1333602,-9.57999992370605
854.1489852,-7.90000009536743
854.1646102,-6.07000017166138
854.1802352,-4.11999988555908
854.1958602,-2.08999991416931
854.2114852,-0.0299999993294477
854.2271102,2.07999992370605
854.2427352,4.48000001907349
854.2583602,7.57000017166138
854.2739852,11.6899995803833
854.2896102,16.9699993133545
854.3052352,22.9599990844727
854.3208602,28.5400009155273
854.3364852,32.3600006103516
854.3521102,33.6599998474121
854.3677352,32.6199989318848
854.3833602,30.1000003814697
854.3989852,26.9200000762939
854.4146102,23.3899993896484
854.4302352,19.3700008392334
854.4458602,14.6300001144409
854.4614852,9.27000045776367
854.4771102,3.83999991416931
854.4927352,-0.819999992847443
854.5083602,-4.01000022888184
854.5239852,-5.46000003814697
854.5396102,-5.51999998092651
854.5552352,-4.96999979019165
854.5708602,-4.61999988555908
854.5864852,-4.98000001907349
854.6021102,-6.1100001335144
854.6177352,-7.75
854.6333602,-9.51000022888184
854.6489852,-11.1700000762939
854.6646102,-12.5100002288818
854.6802352,-13.2600002288818
854.6958602,-13.289999961853
854.7114852,-12.710000038147
854.7271102,-11.75
854.7427352,-10.6999998092651
854.7583602,-9.78999996185303
854.7739852,-9.09000015258789
854.7896102,-8.53999996185303
854.8052352,-7.98999977111816
854.8208602,-7.32999992370605
854.8364852,-6.57000017166138
854.8521102,-5.78000020980835
854.8677352,-5.01000022888184
854.8833602,-4.30999994277954
854.8989852,-3.72000002861023
854.9146102,-3.35999989509583
854.9302352,-3.30999994277954
854.9458602,-3.5699999332428
854.9614852,-4.01999998092651
854.9771102,-4.40000009536743
854.9927352,-4.25
855.0083602,-3.0699999332428
855.0239852,-0.449999988079071
855.0396102,3.65000009536743
855.0552352,8.80000019073486
855.0708602,14.1000003814697
855.0864852,18.5599994659424
855.1021102,21.4500007629395
855.1177352,22.5900001525879
855.1333602,22.2000007629395
855.1489852,20.8500003814697
855.1646102,19.1399993896484
855.1802352,17.3299999237061
855.1958602,15.2799997329712
855.2114852,12.6800003051758
855.2271102,9.55000019073486
855.2427352,6.30000019073486
855.2583602,3.50999999046326
855.2739852,1.62000000476837
855.2896102,0.720000028610229
855.3052352,0.600000023841858
855.3208602,0.810000002384186
855.3364852,0.959999978542328
855.3521102,0.769999980926514
855.3677352,0.170000001788139
855.3833602,-0.779999971389771
855.3989852,-1.99000000953674
855.4146102,-3.36999988555908
855.4302352,-4.80999994277954
855.4458602,-6.23000001907349
855.4614852,-7.48999977111816
855.4771102,-8.44999980926514
855.4927352,-9.02999973297119
855.5083602,-9.25
855.5239852,-9.18000030517578
855.5396102,-8.93000030517578
855.5552352,-8.65999984741211
855.5708602,-8.52000045776367
855.5864852,-8.43000030517578
855.6021102,-8.22000026702881
855.6177352,-7.84999990463257
855.6333602,-7.44000005722046
855.6489852,-7.13000011444092
855.6646102,-6.98999977111816
855.6802352,-6.94000005722046
855.6958602,-6.92000007629395
855.7114852,-6.84999990463257
855.7271102,-6.55999994277954
855.7427352,-5.78000020980835
855.7583602,-4.05999994277954
855.7739852,-0.920000016689301
855.7896102,3.90000009536743
855.8052352,10.1199998855591
855.8208602,16.7800006866455
855.8364852,22.5200004577637
855.8521102,26.1900005340576
855.8677352,27.3500003814697
855.8833602,26.3899993896484
855.8989852,24.2199993133545
855.9146102,21.7399997711182
855.9302352,19.4200000762939
855.9458602,17.2299995422363
855.9614852,14.8699998855591
855.9771102,12.0500001907349
855.9927352,8.72999954223633
856.0083602,5.23000001907349
856.0239852,1.96000003814697
856.0396102,-0.740000009536743
856.0552352,-2.82999992370605
856.0708602,-4.36999988555908
856.0864852,-5.40999984741211
856.1021102,-5.8899998664856
856.1177352,-5.80999994277954
856.1333602,-5.34000015258789
856.1489852,-4.78999996185303
856.1646102,-4.46000003814697
856.1802352,-4.51999998092651
856.1958602,-5.03999996185303
856.2114852,-6.01999998092651
856.2271102,-7.38000011444092
856.2427352,-8.85999965667725
856.2583602,-10.1499996185303
856.2739852,-10.960000038147
856.2896102,-11.289999961853
856.3052352,-11.5900001525879
856.3208602,-12.3100004196167
856.3364852,-13.4700002670288
856.3521102,-14.6400003433228
856.3677352,-15.3999996185303
856.3833602,-15.6400003433228
856.3989852,-15.4700002670288
856.4146102,-15.0900001525879
856.4302352,-14.7200002670288
856.4458602,-14.5299997329712
856.4614852,-14.6000003814697
856.4771102,-14.8900003433228
856.4927352,-15.1499996185303
856.5083602,-14.8199996948242
856.5239852,-13.1300001144409
856.5396102,-9.42000007629395
856.5552352,-3.70000004768372
856.5708602,3.16000008583069
856.5864852,9.77999973297119
856.6021102,14.960000038147
856.6177352,18.2099990844727
856.6333602,19.6900005340576
856.6489852,20.0
856.6646102,19.7299995422363
856.6802352,19.1800003051758
856.6958602,18.3500003814697
856.7114852,17.0
856.7271102,14.8299999237061
856.7427352,11.6800003051758
856.7583602,7.78999996185303
856.7739852,3.85999989509583
856.7896102,0.670000016689301
856.8052352,-1.29999995231628
856.8208602,-2.19000005722046
856.8364852,-2.44000005722046
856.8521102,-2.64000010490417
856.8677352,-3.25999999046326
856.8833602,-4.40999984741211
856.8989852,-5.86999988555908
856.9146102,-7.34999990463257
856.9302352,-8.80000019073486
856.9458602,-10.1599998474121
856.9614852,-11.25
856.9771102,-11.9899997711182
856.9927352,-12.6700000762939
857.0083602,-13.5100002288818
857.0239852,-14.4399995803833
857.0396102,-15.1800003051758
857.0552352,-15.6199998855591
857.0708602,-15.7299995422363
857.0864852,-15.4300003051758
857.1021102,-14.6599998474121
857.1177352,-13.4899997711182
857.1333602,-11.9700002670288
857.1489852,-10.2600002288818
857.1646102,-8.52999973297119
857.1802352,-6.76000022888184
857.1958602,-4.80000019073486
857.2114852,-2.5
857.2271102,0.0
857.2427352,2.39000010490417
857.2583602,4.34000015258789
857.2739852,5.94999980926514
857.2896102,7.76999998092651
857.3052352,10.3900003433228
857.3208602,13.8100004196167
857.3364852,17.2900009155273
857.3521102,19.7700004577637
857.3677352,20.7700004577637
857.3833602,20.7000007629395
857.3989852,20.4200000762939
857.4146102,20.5400009155273
857.4302352,21.0599994659424
857.4458602,21.4699993133545
857.4614852,21.2299995422363
857.4771102,20.1800003051758
857.4927352,18.4400005340576
857.5083602,16.2199993133545
857.5239852,13.7600002288818
857.5396102,11.2799997329712
857.5552352,8.96000003814697
857.5708602,6.96999979019165
857.5864852,5.3600001335144
857.6021102,4.03000020980835
857.6177352,2.84999990463257
857.6333602,1.80999994277954
857.6489852,0.959999978542328
857.6646102,0.239999994635582
857.6802352,-0.550000011920929
857.6958602,-1.62000000476837
857.7114852,-2.89000010490417
857.7271102,-4.13000011444092
857.7427352,-5.05000019073486
857.7583602,-5.57999992370605
857.7739852,-5.82999992370605
857.7896102,-5.98999977111816
857.8052352,-6.21999979019165
857.8208602,-6.59000015258789
857.8364852,-7.09999990463257
857.8521102,-7.67000007629395
857.8677352,-8.21000003814697
857.8833602,-8.69999980926514
857.8989852,-9.07999992370605
857.9146102,-9.27000045776367
857.9302352,-9.32999992370605
857.9458602,-9.35999965667725
857.9614852,-9.34000015258789
857.9771102,-9.15999984741211
857.9927352,-8.78999996185303
858.0083602,-8.30000019073486
858.0239852,-7.71999979019165
858.0396102,-6.88000011444092
858.0552352,-5.36999988555908
858.0708602,-2.65000009536743
858.0864852,1.79999995231628
858.1021102,8.02000045776367
858.1177352,15.1899995803833
858.1333602,21.9699993133545
858.1489852,27.1900005340576
858.1646102,30.3299999237061
858.1802352,31.6100006103516
858.1958602,31.6100006103516
858.2114852,30.9099998474121
858.2271102,29.8099994659424
858.2427352,28.3099994659424
858.2583602,26.2099990844727
858.2739852,23.2700004577637
858.2896102,19.4200000762939
858.3052352,14.8800001144409
858.3208602,10.2299995422363
858.3364852,6.09999990463257
858.3521102,2.82999992370605
858.3677352,0.379999995231628
858.3833602,-1.5
858.3989852,-3.20000004768372
858.4146102,-5.0
858.4302352,-7.01000022888184
858.4458602,-9.17000007629395
858.4614852,-11.4499998092651
858.4771102,-13.8800001144409
858.4927352,-16.3799991607666
858.5083602,-18.7199993133545
858.5239852,-20.6700000762939
858.5396102,-22.1700000762939
858.5552352,-23.3600006103516
858.5708602,-24.3500003814697
858.5864852,-25.1800003051758
858.6021102,-25.8899993896484
858.6177352,-26.5300006866455
858.6333602,-27.0900001525879
858.6489852,-27.4799995422363
858.6646102,-27.6200008392334
858.6802352,-27.4899997711182
858.6958602,-27.1700000762939
858.7114852,-26.8299999237061
858.7271102,-26.5900001525879
858.7427352,-26.3700008392334
858.7583602,-25.9799995422363
858.7739852,-25.25
858.7896102,-24.1599998474121
858.8052352,-22.7600002288818
858.8208602,-20.9400005340576
858.8364852,-18.2700004577637
858.8521102,-14.1300001144409
858.8677352,-8.26000022888184
858.8833602,-1.08000004291534
858.8989852,6.3600001335144
858.9146102,12.8999996185303
858.9302352,17.7199993133545
858.9458602,20.6200008392334
858.9614852,21.9400005340576
858.9771102,22.3400001525879
858.9927352,22.4099998474121
859.0083602,22.3299999237061
859.0239852,21.8400001525879
859.0396102,20.6200008392334
859.0552352,18.5400009155273
859.0708602,15.75
859.0864852,12.6599998474121
859.1021102,9.80000019073486
859.1177352,7.59999990463257
859.1333602,6.19000005722046
859.1489852,5.32999992370605
859.1646102,4.59999990463257
859.1802352,3.69000005722046
859.1958602,2.45000004768372
859.2114852,0.970000028610229
859.2271102,-0.569999992847443
859.2427352,-2.08999991416931
859.2583602,-3.60999989509583
859.2739852,-5.23999977111816
859.2896102,-6.96000003814697
859.3052352,-8.59000015258789
859.3208602,-9.89000034332275
859.3364852,-10.6700000762939
859.3521102,-10.9700002670288
859.3677352,-10.9499998092651
859.3833602,-10.7299995422363
859.3989852,-10.3699998855591
859.4146102,-9.85000038146973
859.4302352,-9.06999969482422
859.4458602,-8.0600004196167
859.4614852,-7.03000020980835
859.4771102,-6.26999998092651
859.4927352,-5.8899998664856
859.5083602,-5.73999977111816
859.5239852,-5.6100001335144
859.5396102,-5.42000007629395
859.5552352,-5.21999979019165
859.5708602,-5.0
859.5864852,-4.38000011444092
859.6021102,-2.69000005722046
859.6177352,0.629999995231628
859.6333602,5.69000005722046
859.6489852,12.0
859.6646102,18.5300006866455
859.6802352,24.1700000762939
859.6958602,28.2000007629395
859.7114852,30.5
859.7271102,31.3600006103516
859.7427352,31.2700004577637
859.7583602,30.6700000762939
859.7739852,29.7399997711182
859.7896102,28.2700004577637
859.8052352,25.8299999237061
859.8208602,22.25
859.8364852,17.8400001525879
859.8521102,13.3599996566772
859.8677352,9.60999965667725
859.8833602,6.98999977111816
859.8989852,5.25
859.9146102,3.83999991416931
859.9302352,2.30999994277954
859.9458602,0.479999989271164
859.9614852,-1.6599999666214
859.9771102,-4.0
859.9927352,-6.40000009536743
860.0083602,-8.72000026702881
860.0239852,-10.8599996566772
860.0396102,-12.7299995422363
860.0552352,-14.3400001525879
860.0708602,-15.7700004577637
860.0864852,-17.0499992370605
860.1021102,-18.1000003814697
860.1177352,-18.8299999237061
860.1333602,-19.1900005340576
860.1489852,-19.2099990844727
860.1646102,-18.9300003051758
860.1802352,-18.4400005340576
860.1958602,-17.8500003814697
860.2114852,-17.1499996185303
860.2271102,-16.3700008392334
860.2427352,-15.6499996185303
860.2583602,-15.0799999237061
860.2739852,-14.6300001144409
860.2896102,-14.1899995803833
860.3052352,-13.5799999237061
860.3208602,-12.4300003051758
860.3364852,-10.0799999237061
860.3521102,-5.82999992370605
860.3677352,0.5
860.3833602,8.32999992370605
860.3989852,16.2900009155273
860.4146102,22.8400001525879
860.4302352,26.6499996185303
860.4458602,26.8400001525879
860.4614852,22.8299999237061
860.4771102,14.4499998092651
860.4927352,2.72000002861023
860.5083602,-10.0600004196167
860.5239852,-21.4099998474121
860.5396102,-29.8299999237061
860.5552352,-35.2700004577637
860.5708602,-38.5699996948242
860.5864852,-40.6399993896484
860.6021102,-41.9099998474121
860.6177352,-42.2999992370605
860.6333602,-41.4799995422363
860.6489852,-39.3300018310547
860.6646102,-36.0200004577637
860.6802352,-31.9699993133545
860.6958602,-27.6800003051758
860.7114852,-23.5300006866455
860.7271102,-19.5799999237061
860.7427352,-15.6400003433228
860.7583602,-11.539999961853
860.7739852,-7.36999988555908
860.7896102,-3.29999995231628
860.8052352,0.519999980926514
860.8208602,4.13000011444092
860.8364852,7.69000005722046
860.8521102,11.3699998855591
860.8677352,15.2299995422363
860.8833602,19.1700000762939
860.8989852,23.0400009155273
860.9146102,26.6900005340576
860.9302352,29.9599990844727
860.9458602,32.7900009155273
860.9614852,35.1500015258789
860.9771102,37.0800018310547
860.9927352,38.6399993896484
861.0083602,39.9799995422363
861.0239852,41.2000007629395
861.0396102,42.3300018310547
861.0552352,43.310001373291
861.0708602,44.0900001525879
861.0864852,44.7599983215332
861.1021102,45.5499992370605
861.1177352,46.8800010681152
861.1333602,49.1599998474121
861.1489852,52.5900001525879
861.1646102,56.939998626709
861.1802352,61.4799995422363
861.1958602,65.2200012207031
861.2114852,67.2900009155273
861.2271102,67.2699966430664
861.2427352,65.4100036621094
861.2583602,62.5999984741211
861.2739852,59.7599983215332
861.2896102,57.310001373291
861.3052352,55.0
861.3208602,52.2700004577637
861.3364852,48.5699996948242
861.3521102,43.6199989318848
861.3677352,37.5499992370605
861.3833602,30.9200000762939
861.3989852,24.4400005340576
861.4146102,18.5100002288818
861.4302352,13.1499996185303
861.4458602,8.11999988555908
861.4614852,3.1800000667572
861.4771102,-1.78999996185303
861.4927352,-6.82999992370605
861.5083602,-11.9899997711182
861.5239852,-17.2099990844727
861.5396102,-22.3400001525879
861.5552352,-27.1299991607666
861.5708602,-31.4400005340576
861.5864852,-35.2799987792969
861.6021102,-38.7900009155273
861.6177352,-42.1599998474121
861.6333602,-45.3699989318848
861.6489852,-48.25
861.6646102,-50.5299987792969
861.6802352,-52.0900001525879
861.6958602,-53.0099983215332
861.7114852,-53.439998626709
861.7271102,-53.4000015258789
861.7427352,-52.810001373291
861.7583602,-51.6599998474121
861.7739852,-50.1500015258789
861.7896102,-48.6599998474121
861.8052352,-47.3699989318848
861.8208602,-45.9199981689453
861.8364852,-43.689998626709
861.8521102,-40.1699981689453
861.8677352,-35.1800003051758
861.8833602,-28.8099994659424
861.8989852,-21.3700008392334
861.9146102,-13.3800001144409
861.9302352,-5.51000022888184
861.9458602,1.54999995231628
861.9614852,7.28999996185303
861.9771102,11.4399995803833
861.9927352,14.0100002288818
862.0083602,15.3900003433228
862.0239852,16.0300006866455
862.0396102,16.0499992370605
862.0552352,15.2299995422363
862.0708602,13.3199996948242
862.0864852,10.3299999237061
862.1021102,6.6100001335144
862.1177352,2.66000008583069
862.1333602,-0.970000028610229
862.1489852,-4.05000019073486
862.1646102,-6.6399998664856
862.1802352,-9.10999965667725
862.1958602,-11.8100004196167
862.2114852,-14.8599996566772
862.2271102,-18.1200008392334
862.2427352,-21.3299999237061
862.2583602,-24.3500003814697
862.2739852,-27.1100006103516
862.2896102,-29.5699996948242
862.3052352,-31.7199993133545
862.3208602,-33.6100006103516
862.3364852,-35.3499984741211
862.3521102,-36.9700012207031
862.3677352,-38.4799995422363
862.3833602,-39.8300018310547
862.3989852,-40.9199981689453
862.4146102,-41.560001373291
862.4302352,-41.5699996948242
862.4458602,-40.9300003051758
862.4614852,-39.7799987792969
862.4771102,-38.3600006103516
862.4927352,-36.9000015258789
862.5083602,-35.5299987792969
862.5239852,-34.1800003051758
862.5396102,-32.6500015258789
862.5552352,-30.7700004577637
862.5708602,-28.2999992370605
862.5864852,-24.8500003814697
862.6021102,-19.9599990844727
862.6177352,-13.4799995422363
862.6333602,-5.75
862.6489852,2.39000010490417
862.6646102,9.97999954223633
862.6802352,16.2999992370605
862.6958602,21.1599998474121
862.7114852,24.8600006103516
862.7271102,27.9400005340576
862.7427352,30.9899997711182
862.7583602,34.189998626709
862.7739852,37.189998626709
862.7896102,39.2700004577637
862.8052352,39.8300018310547
862.8208602,38.75
862.8364852,36.4799995422363
862.8521102,33.7900009155273
862.8677352,31.4599990844727
862.8833602,30.0100002288818
862.8989852,29.4300003051758
862.9146102,29.2600002288818
862.9302352,28.8500003814697
862.9458602,27.7399997711182
862.9614852,25.9200000762939
862.9771102,23.7700004577637
862.9927352,21.7600002288818
863.0083602,20.1299991607666
863.0239852,18.7399997711182
863.0396102,17.1900005340576
863.0552352,15.1599998474121
863.0708602,12.539999961853
863.0864852,9.43000030517578
863.1021102,5.92999982833862
863.1177352,2.15000009536743
863.1333602,-1.72000002861023
863.1489852,-5.42999982833862
863.1646102,-8.76000022888184
863.1802352,-11.6700000762939
863.1958602,-14.1599998474121
863.2114852,-16.2299995422363
863.2271102,-17.9799995422363
863.2427352,-19.6200008392334
863.2583602,-21.2800006866455
863.2739852,-22.8899993896484
863.2896102,-24.0799999237061
863.3052352,-24.2800006866455
863.3208602,-22.7999992370605
863.3364852,-19.1599998474121
863.3521102,-13.460000038147
863.3677352,-6.40999984741211
863.3833602,1.01999998092651
863.3989852,7.94999980926514
863.4146102,13.7700004577637
863.4302352,18.3400001525879
863.4458602,21.8299999237061
863.4614852,24.6399993896484
863.4771102,27.1000003814697
863.4927352,29.2600002288818
863.5083602,30.8400001525879
863.5239852,31.4500007629395
863.5396102,30.8199996948242
863.5552352,28.9899997711182
863.5708602,26.4500007629395
863.5864852,23.8600006103516
863.6021102,21.6800003051758
863.6177352,20.1000003814697
863.6333602,19.1000003814697
863.6489852,18.5400009155273
863.6646102,18.1200008392334
863.6802352,17.4500007629395
863.6958602,16.2800006866455
863.7114852,14.6700000762939
