Time(s),Value(%)
212.0073503,291.049987792969
212.0229753,303.329986572266
212.0386003,313.790008544922
212.0542253,321.769989013672
212.0698503,327.420013427734
212.0854753,327.670013427734
212.1011003,327.670013427734
212.1167253,327.670013427734
212.1323503,327.670013427734
212.1479753,327.670013427734
212.1636003,327.670013427734
212.1792253,327.670013427734
212.1948503,327.670013427734
212.2104753,327.670013427734
212.2261003,325.279998779297
212.2417253,322.209991455078
212.2573503,319.049987792969
212.2729753,315.890014648438
212.2886003,312.730010986328
212.3042253,309.260009765625
212.3198503,304.940002441406
212.3354753,299.329986572266
212.3511003,292.380004882813
212.3667253,284.410003662109
212.3823503,275.809997558594
212.3979753,266.920013427734
212.4136003,257.980010986328
212.4292253,249.149993896484
212.4448503,240.520004272461
212.4604753,232.0
212.4761003,223.440002441406
212.4917253,214.809997558594
212.5073503,206.240005493164
212.5229753,197.940002441406
212.5386003,189.960006713867
212.5542253,182.139999389648
212.5698503,174.259994506836
212.5854753,166.190002441406
212.6011003,157.919998168945
212.6167253,149.610000610352
212.6323503,140.059997558594
212.6479753,131.119995117188
212.6636003,122.809997558594
212.6792253,115.069999694824
212.6948503,107.839996337891
212.7104753,101.110000610352
212.7261003,94.7600021362305
212.7417253,88.4899978637695
212.7573503,81.870002746582
212.7729753,74.5500030517578
212.7886003,66.5500030517578
212.8042253,58.1699981689453
212.8198503,49.7200012207031
212.8354753,41.3499984741211
212.8511003,33.0999984741211
212.8667253,24.9799995422363
212.8823503,17.0100002288818
212.8979753,9.23999977111816
212.9136003,1.69000005722046
212.9292253,-5.6100001335144
212.9448503,-12.6700000762939
212.9604753,-19.4899997711182
212.9761003,-26.0400009155273
212.9917253,-32.310001373291
213.0073503,-38.2999992370605
213.0229753,-44.0999984741211
213.0386003,-49.8499984741211
213.0542253,-55.7099990844727
213.0698503,-61.7700004577637
213.0854753,-68.0100021362305
213.1011003,-74.3499984741211
213.1167253,-80.629997253418
213.1323503,-86.7399978637695
213.1479753,-92.5800018310547
213.1636003,-98.120002746582
213.1792253,-103.400001525879
213.1948503,-108.519996643066
213.2104753,-113.580001831055
213.2261003,-118.580001831055
213.2417253,-123.400001525879
213.2573503,-127.819999694824
213.2729753,-131.600006103516
213.2886003,-134.699996948242
213.3042253,-137.169998168945
213.3198503,-139.050003051758
213.3354753,-140.320007324219
213.3511003,-140.880004882813
213.3667253,-140.759994506836
213.3823503,-140.210006713867
213.3979753,-139.610000610352
213.4136003,-139.25
213.4292253,-139.229995727539
213.4448503,-139.440002441406
213.4604753,-139.720001220703
213.4761003,-139.880004882813
213.4917253,-139.869995117188
213.5073503,-139.669998168945
213.5229753,-139.300003051758
213.5386003,-138.699996948242
213.5542253,-137.839996337891
213.5698503,-136.720001220703
213.5854753,-135.529998779297
213.6011003,-134.559997558594
213.6167253,-134.059997558594
213.6323503,-132.009994506836
213.6479753,-130.360000610352
213.6636003,-128.919998168945
213.6792253,-127.580001831055
213.6948503,-126.309997558594
213.7104753,-125.099998474121
213.7261003,-123.919998168945
213.7417253,-122.76000213623
213.7573503,-121.610000610352
213.7729753,-120.470001220703
213.7886003,-119.339996337891
213.8042253,-118.220001220703
213.8198503,-117.120002746582
213.8354753,-116.040000915527
213.8511003,-114.970001220703
213.8667253,-113.910003662109
213.8823503,-112.879997253418
213.8979753,-111.860000610352
213.9136003,-110.769996643066
213.9292253,-109.51000213623
213.9448503,-108.0
213.9604753,-106.25
213.9761003,-104.330001831055
213.9917253,-102.330001831055
214.0073503,-100.339996337891
214.0229753,-98.3499984741211
214.0386003,-96.3300018310547
214.0542253,-94.2200012207031
214.0698503,-91.9899978637695
214.0854753,-89.6500015258789
214.1011003,-87.2300033569336
214.1167253,-84.7600021362305
214.1323503,-82.2799987792969
214.1479753,-79.8600006103516
214.1636003,-77.6500015258789
214.1792253,-75.75
214.1948503,-74.2099990844727
214.2104753,-72.9499969482422
214.2261003,-71.870002746582
214.2417253,-70.8399963378906
214.2573503,-69.7900009155273
214.2729753,-68.6600036621094
214.2886003,-67.4499969482422
214.3042253,-66.2099990844727
214.3198503,-65.0199966430664
214.3354753,-63.9500007629395
214.3511003,-63.0299987792969
214.3667253,-62.25
214.3823503,-61.6100006103516
214.3979753,-61.1300010681152
214.4136003,-60.7799987792969
214.4292253,-60.4300003051758
214.4448503,-59.9099998474121
214.4604753,-59.0900001525879
214.4761003,-58.0200004577637
214.4917253,-56.8300018310547
214.5073503,-55.560001373291
214.5229753,-54.1599998474121
214.5386003,-52.5499992370605
214.5542253,-50.7099990844727
214.5698503,-48.6800003051758
214.5854753,-46.4799995422363
214.6011003,-44.0999984741211
214.6167253,-41.439998626709
214.6323503,-37.9599990844727
214.6479753,-34.2200012207031
214.6636003,-30.3199996948242
214.6792253,-26.4400005340576
214.6948503,-22.7299995422363
214.7104753,-19.2700004577637
214.7261003,-16.0499992370605
214.7417253,-12.9799995422363
214.7573503,-9.90999984741211
214.7729753,-6.73000001907349
214.7886003,-3.42000007629395
214.8042253,-0.0299999993294477
214.8198503,3.33999991416931
214.8354753,6.63000011444092
214.8511003,9.78999996185303
214.8667253,12.6999998092651
214.8823503,15.1899995803833
214.8979753,17.1200008392334
214.9136003,18.5
214.9292253,19.4799995422363
214.9448503,20.25
214.9604753,20.9300003051758
214.9761003,21.5900001525879
214.9917253,22.2600002288818
215.0073503,22.9099998474121
215.0229753,23.4699993133545
215.0386003,23.8400001525879
215.0542253,23.8999996185303
215.0698503,23.6499996185303
215.0854753,23.1299991607666
215.1011003,22.3700008392334
215.1167253,21.3799991607666
215.1323503,20.2299995422363
215.1479753,19.0499992370605
215.1636003,18.0400009155273
215.1792253,17.3099994659424
215.1948503,16.8199996948242
215.2104753,16.4400005340576
215.2261003,16.1299991607666
215.2417253,15.9399995803833
215.2573503,15.960000038147
215.2729753,16.2000007629395
215.2886003,16.6100006103516
215.3042253,17.1800003051758
215.3198503,17.9599990844727
215.3354753,19.0300006866455
215.3511003,20.4099998474121
215.3667253,22.0400009155273
215.3823503,23.8400001525879
215.3979753,25.75
215.4136003,27.6900005340576
215.4292253,29.5799999237061
215.4448503,31.3600006103516
215.4604753,33.0200004577637
215.4761003,34.5999984741211
215.4917253,36.1699981689453
215.5073503,37.7299995422363
215.5229753,39.1800003051758
215.5386003,40.4300003051758
215.5542253,41.4700012207031
215.5698503,42.3199996948242
215.5854753,43.0299987792969
215.6011003,43.6399993896484
215.6167253,44.1599998474121
215.6323503,44.9700012207031
215.6479753,45.6800003051758
215.6636003,46.3199996948242
215.6792253,46.9099998474121
215.6948503,47.4700012207031
215.7104753,47.9700012207031
215.7261003,48.3199996948242
215.7417253,48.4599990844727
215.7573503,48.3600006103516
215.7729753,48.0800018310547
215.7886003,47.6699981689453
215.8042253,47.1800003051758
215.8198503,46.6699981689453
215.8354753,46.1500015258789
215.8511003,45.5999984741211
215.8667253,44.9900016784668
215.8823503,44.2200012207031
215.8979753,43.2200012207031
215.9136003,41.9599990844727
215.9292253,40.4799995422363
215.9448503,38.810001373291
215.9604753,36.9700012207031
215.9761003,35.0099983215332
215.9917253,33.0400009155273
216.0073503,31.2299995422363
216.0229753,29.7399997711182
216.0386003,28.6100006103516
216.0542253,27.8299999237061
216.0698503,27.3500003814697
216.0854753,27.1100006103516
216.1011003,27.0699996948242
216.1167253,27.1200008392334
216.1323503,27.2099990844727
216.1479753,27.3400001525879
216.1636003,27.6499996185303
216.1792253,28.2800006866455
216.1948503,29.2700004577637
216.2104753,30.5499992370605
216.2261003,32.0099983215332
216.2417253,33.5699996948242
216.2573503,35.1199989318848
216.2729753,36.5
216.2886003,37.5099983215332
216.3042253,37.9500007629395
216.3198503,37.7900009155273
216.3354753,37.1300010681152
216.3511003,36.0999984741211
216.3667253,34.8400001525879
216.3823503,33.4500007629395
216.3979753,32.0
216.4136003,30.5499992370605
216.4292253,29.1000003814697
216.4448503,27.5900001525879
216.4604753,25.9799995422363
216.4761003,24.2199993133545
216.4917253,22.3400001525879
216.5073503,20.3400001525879
216.5229753,18.2199993133545
216.5386003,16.0200004577637
216.5542253,13.8500003814697
216.5698503,11.8199996948242
216.5854753,10.0100002288818
216.6011003,8.38000011444092
216.6167253,6.82000017166138
216.6323503,5.38000011444092
216.6479753,3.84999990463257
216.6636003,2.1800000667572
216.6792253,0.259999990463257
216.6948503,-1.9099999666214
216.7104753,-4.23999977111816
216.7261003,-6.5
216.7417253,-8.51000022888184
216.7573503,-10.2399997711182
216.7729753,-11.7799997329712
216.7886003,-13.1300001144409
216.8042253,-14.2200002670288
216.8198503,-14.9700002670288
216.8354753,-15.3999996185303
216.8511003,-15.6099996566772
216.8667253,-15.6999998092651
216.8823503,-15.6899995803833
216.8979753,-15.5299997329712
216.9136003,-15.2200002670288
216.9292253,-14.7799997329712
216.9448503,-14.2600002288818
216.9604753,-13.7299995422363
216.9761003,-13.2299995422363
216.9917253,-12.6999998092651
217.0073503,-11.9799995422363
217.0229753,-10.9300003051758
217.0386003,-9.52999973297119
217.0542253,-7.8600001335144
217.0698503,-6.11999988555908
217.0854753,-4.44000005722046
217.1011003,-2.9300000667572
217.1167253,-1.63999998569489
217.1323503,-0.639999985694885
217.1479753,-0.0199999995529652
217.1636003,0.209999993443489
217.1792253,0.119999997317791
217.1948503,-0.189999997615814
217.2104753,-0.629999995231628
217.2261003,-1.16999995708466
217.2417253,-1.80999994277954
217.2573503,-2.53999996185303
217.2729753,-3.3199999332428
217.2886003,-4.07000017166138
217.3042253,-4.75
217.3198503,-5.40000009536743
217.3354753,-6.09000015258789
217.3511003,-6.82000017166138
217.3667253,-7.51999998092651
217.3823503,-8.13000011444092
217.3979753,-8.60999965667725
217.4136003,-8.98999977111816
217.4292253,-9.39999961853027
217.4448503,-10.0
217.4604753,-10.9700002670288
217.4761003,-12.3100004196167
217.4917253,-13.9799995422363
217.5073503,-15.8900003433228
217.5229753,-18.0100002288818
217.5386003,-20.2299995422363
217.5542253,-22.3600006103516
217.5698503,-24.0699996948242
217.5854753,-25.1299991607666
217.6011003,-25.6100006103516
217.6167253,-25.7399997711182
217.6323503,-26.0599994659424
217.6479753,-26.2399997711182
217.6636003,-26.2600002288818
217.6792253,-26.1000003814697
217.6948503,-25.75
217.7104753,-25.2099990844727
217.7261003,-24.3799991607666
217.7417253,-23.1599998474121
217.7573503,-21.5300006866455
217.7729753,-19.5200004577637
217.7886003,-17.1800003051758
217.8042253,-14.5299997329712
217.8198503,-11.6499996185303
217.8354753,-8.67000007629395
217.8511003,-5.76000022888184
217.8667253,-2.97000002861023
217.8823503,-0.25
217.8979753,2.46000003814697
217.9136003,5.09999990463257
217.9292253,7.48000001907349
217.9448503,9.43000030517578
217.9604753,10.9499998092651
217.9761003,12.1300001144409
217.9917253,13.1000003814697
218.0073503,13.9399995803833
218.0229753,14.6300001144409
218.0386003,15.1800003051758
218.0542253,15.6000003814697
218.0698503,15.9399995803833
218.0854753,16.2700004577637
218.1011003,16.6200008392334
218.1167253,16.9400005340576
218.1323503,17.0900001525879
218.1479753,16.9400005340576
218.1636003,16.3999996185303
218.1792253,15.4799995422363
218.1948503,14.2799997329712
218.2104753,12.9099998474121
218.2261003,11.5100002288818
218.2417253,10.1400003433228
218.2573503,8.84000015258789
218.2729753,7.61999988555908
218.2886003,6.42999982833862
218.3042253,5.25
218.3198503,4.03999996185303
218.3354753,2.78999996185303
218.3511003,1.42999994754791
218.3667253,-0.100000001490116
218.3823503,-1.78999996185303
218.3979753,-3.53999996185303
218.4136003,-5.19000005722046
218.4292253,-6.67999982833862
218.4448503,-8.13000011444092
218.4604753,-9.69999980926514
218.4761003,-11.4300003051758
218.4917253,-13.1800003051758
218.5073503,-14.8000001907349
218.5229753,-16.1800003051758
218.5386003,-17.2800006866455
218.5542253,-18.0400009155273
218.5698503,-18.2800006866455
218.5854753,-17.8199996948242
218.6011003,-16.6499996185303
218.6167253,-14.9399995803833
218.6323503,-12.9700002670288
218.6479753,-10.8400001525879
218.6636003,-8.6899995803833
218.6792253,-6.65999984741211
218.6948503,-4.88000011444092
218.7104753,-3.47000002861023
218.7261003,-2.45000004768372
218.7417253,-1.76999998092651
218.7573503,-1.4099999666214
218.7729753,-1.33000004291534
218.7886003,-1.50999999046326
218.8042253,-1.87999999523163
218.8198503,-2.33999991416931
218.8354753,-2.80999994277954
218.8511003,-3.25999999046326
218.8667253,-3.72000002861023
218.8823503,-4.32000017166138
218.8979753,-5.17999982833862
218.9136003,-6.30000019073486
218.9292253,-7.59999990463257
218.9448503,-8.90999984741211
218.9604753,-10.1199998855591
218.9761003,-11.1899995803833
218.9917253,-12.1800003051758
219.0073503,-13.2399997711182
219.0229753,-14.5299997329712
219.0386003,-16.0799999237061
219.0542253,-17.9099998474121
219.0698503,-20.0499992370605
219.0854753,-22.5300006866455
219.1011003,-25.2900009155273
219.1167253,-28.0499992370605
219.1323503,-30.3999996185303
219.1479753,-32.0999984741211
219.1636003,-33.25
219.1792253,-34.1699981689453
219.1948503,-35.060001373291
219.2104753,-35.8300018310547
219.2261003,-36.3400001525879
219.2417253,-36.5
219.2573503,-36.3300018310547
219.2729753,-35.9300003051758
219.2886003,-35.3699989318848
219.3042253,-34.6599998474121
219.3198503,-33.810001373291
219.3354753,-32.7799987792969
219.3511003,-31.5
219.3667253,-29.8899993896484
219.3823503,-27.9599990844727
219.3979753,-25.7199993133545
219.4136003,-23.1200008392334
219.4292253,-19.9899997711182
219.4448503,-16.1399993896484
219.4604753,-11.539999961853
219.4761003,-6.48999977111816
219.4917253,-1.46000003814697
219.5073503,3.10999989509583
219.5229753,7.07000017166138
219.5386003,10.4799995422363
219.5542253,13.5
219.5698503,16.3099994659424
219.5854753,19.0
219.6011003,21.5900001525879
219.6167253,24.1299991607666
219.6323503,26.6900005340576
219.6479753,29.3700008392334
219.6636003,32.1599998474121
219.6792253,34.8499984741211
219.6948503,37.0400009155273
219.7104753,38.439998626709
219.7261003,38.9900016784668
219.7417253,38.9300003051758
219.7573503,38.4700012207031
219.7729753,37.7799987792969
219.7886003,36.9000015258789
219.8042253,35.9000015258789
219.8198503,34.8199996948242
219.8354753,33.6699981689453
219.8511003,32.439998626709
219.8667253,31.0699996948242
219.8823503,29.5599994659424
219.8979753,27.9300003051758
219.9136003,26.2000007629395
219.9292253,24.3700008392334
219.9448503,22.4799995422363
219.9604753,20.5699996948242
219.9761003,18.6700000762939
219.9917253,16.7900009155273
220.0073503,14.8900003433228
220.0229753,12.9399995803833
220.0386003,11.0
220.0542253,9.14000034332275
220.0698503,7.46000003814697
220.0854753,5.96000003814697
220.1011003,4.6399998664856
220.1167253,3.53999996185303
220.1323503,2.82999992370605
220.1479753,2.67000007629395
220.1636003,3.09999990463257
220.1792253,4.07999992370605
220.1948503,5.57000017166138
220.2104753,7.57000017166138
220.2261003,9.9399995803833
220.2417253,12.4300003051758
220.2573503,14.6800003051758
220.2729753,16.5100002288818
220.2886003,18.1000003814697
220.3042253,19.7600002288818
220.3198503,21.5300006866455
220.3354753,23.1900005340576
220.3511003,24.4400005340576
220.3667253,25.1700000762939
220.3823503,25.4400005340576
220.3979753,25.4400005340576
220.4136003,25.3099994659424
220.4292253,25.1399993896484
220.4448503,24.9400005340576
220.4604753,24.6900005340576
220.4761003,24.3700008392334
220.4917253,23.9599990844727
220.5073503,23.4699993133545
220.5229753,22.8199996948242
220.5386003,21.8700008392334
220.5542253,20.5100002288818
220.5698503,18.7000007629395
220.5854753,16.5900001525879
220.6011003,14.3500003814697
220.6167253,12.1300001144409
220.6323503,10.0299997329712
220.6479753,7.96999979019165
220.6636003,5.82000017166138
220.6792253,3.39000010490417
220.6948503,0.579999983310699
220.7104753,-2.54999995231628
220.7261003,-5.82999992370605
220.7417253,-9.09000015258789
220.7573503,-12.2200002670288
220.7729753,-15.210000038147
220.7886003,-18.0799999237061
220.8042253,-20.8099994659424
220.8198503,-23.3500003814697
220.8354753,-25.6499996185303
220.8511003,-27.7600002288818
220.8667253,-29.7700004577637
220.8823503,-31.7199993133545
220.8979753,-33.5099983215332
220.9136003,-35.0
220.9292253,-36.0699996948242
220.9448503,-36.7099990844727
220.9604753,-37.0
220.9761003,-36.9599990844727
220.9917253,-36.5499992370605
221.0073503,-35.6399993896484
221.0229753,-34.1800003051758
221.0386003,-32.310001373291
221.0542253,-30.3299999237061
221.0698503,-28.5
221.0854753,-26.9699993133545
221.1011003,-25.7099990844727
221.1167253,-24.5599994659424
221.1323503,-23.3500003814697
221.1479753,-21.9500007629395
221.1636003,-20.3299999237061
221.1792253,-18.5599994659424
221.1948503,-16.7000007629395
221.2104753,-14.8299999237061
221.2261003,-13.0
221.2417253,-11.3800001144409
221.2573503,-10.25
221.2729753,-9.85000038146973
221.2886003,-10.1899995803833
221.3042253,-11.0600004196167
221.3198503,-12.1700000762939
221.3354753,-13.2799997329712
221.3511003,-14.3000001907349
221.3667253,-15.1999998092651
221.3823503,-16.0
221.3979753,-16.7800006866455
221.4136003,-17.6499996185303
221.4292253,-18.6599998474121
221.4448503,-19.8299999237061
221.4604753,-21.0699996948242
221.4761003,-22.2800006866455
221.4917253,-23.3700008392334
221.5073503,-24.3299999237061
221.5229753,-25.2199993133545
221.5386003,-26.2000007629395
221.5542253,-27.4300003051758
221.5698503,-28.9400005340576
221.5854753,-30.7000007629395
221.6011003,-32.6699981689453
221.6167253,-34.7999992370605
221.6323503,-37.0299987792969
221.6479753,-39.1399993896484
221.6636003,-40.8199996948242
221.6792253,-41.8699989318848
221.6948503,-42.310001373291
221.7104753,-42.3199996948242
221.7261003,-42.0699996948242
221.7417253,-41.5499992370605
221.7573503,-40.7200012207031
221.7729753,-39.5299987792969
221.7886003,-38.0499992370605
221.8042253,-36.3300018310547
221.8198503,-34.3899993896484
221.8354753,-32.1399993896484
221.8511003,-29.3700008392334
221.8667253,-26.0100002288818
221.8823503,-22.1700000762939
221.8979753,-18.1700000762939
221.9136003,-14.3000001907349
221.9292253,-10.7799997329712
221.9448503,-7.61999988555908
221.9604753,-4.73999977111816
221.9761003,-2.05999994277954
221.9917253,0.479999989271164
222.0073503,2.95000004768372
222.0229753,5.32999992370605
222.0386003,7.67000007629395
222.0542253,9.98999977111816
222.0698503,12.2799997329712
222.0854753,14.4099998474121
222.1011003,16.1299991607666
222.1167253,17.25
222.1323503,17.75
222.1479753,17.8099994659424
222.1636003,17.6599998474121
222.1792253,17.4699993133545
222.1948503,17.2999992370605
222.2104753,17.1900005340576
222.2261003,17.0699996948242
222.2417253,16.8700008392334
222.2573503,16.4400005340576
222.2729753,15.6599998474121
222.2886003,14.5100002288818
222.3042253,13.0799999237061
222.3198503,11.4499998092651
222.3354753,9.6899995803833
222.3511003,7.8600001335144
222.3667253,6.09000015258789
222.3823503,4.55999994277954
222.3979753,3.33999991416931
222.4136003,2.34999990463257
222.4292253,1.42999994754791
222.4448503,0.5
222.4604753,-0.370000004768372
222.4761003,-1.08000004291534
222.4917253,-1.58000004291534
222.5073503,-1.87000000476837
222.5229753,-1.9099999666214
222.5386003,-1.60000002384186
222.5542253,-0.819999992847443
222.5698503,0.449999988079071
222.5854753,2.24000000953674
222.6011003,4.59999990463257
222.6167253,7.57999992370605
222.6323503,11.1000003814697
222.6479753,14.9099998474121
222.6636003,18.6800003051758
222.6792253,22.2900009155273
222.6948503,26.0
222.7104753,30.0400009155273
222.7261003,34.3300018310547
222.7417253,38.4199981689453
222.7573503,41.8800010681152
222.7729753,44.5299987792969
