Time(s),Value(℃)
390.0011142,67.9700012207031
390.0167392,68.0500030517578
390.0323642,68.1399993896484
390.0479892,68.2300033569336
390.0636142,68.3199996948242
390.0792392,68.4100036621094
390.0948642,68.5100021362305
390.1104892,68.6100006103516
390.1261142,68.6999969482422
390.1417392,68.8000030517578
390.1573642,68.9000015258789
390.1729892,69.0
390.1886142,69.0899963378906
390.2042392,69.1900024414063
390.2198642,69.2900009155273
390.2354892,69.4000015258789
390.2511142,69.5
390.2667392,69.6100006103516
390.2823642,69.7200012207031
390.2979892,69.8399963378906
390.3136142,69.9499969482422
390.3292392,70.0800018310547
390.3448642,70.1999969482422
390.3604892,70.3199996948242
390.3761142,70.4499969482422
390.3917392,70.5699996948242
390.4073642,70.6900024414063
390.4229892,70.8000030517578
390.4386142,70.9100036621094
390.4542392,71.0199966430664
390.4698642,71.1100006103516
390.4854892,71.2099990844727
390.5011142,71.3000030517578
390.5167392,71.3899993896484
390.5323642,71.4800033569336
390.5479892,71.5699996948242
390.5636142,71.6600036621094
390.5792392,71.7600021362305
390.5948642,71.870002746582
390.6104892,71.9899978637695
390.6261142,72.1100006103516
390.6417392,72.2399978637695
390.6573642,72.370002746582
390.6729892,72.5
390.6886142,72.620002746582
390.7042392,72.7399978637695
390.7198642,72.8499984741211
390.7354892,72.9599990844727
390.7511142,73.0500030517578
390.7667392,73.1399993896484
390.7823642,73.2200012207031
390.7979892,73.3000030517578
390.8136142,73.370002746582
390.8292392,73.4499969482422
390.8448642,73.5199966430664
390.8604892,73.5999984741211
390.8761142,73.6800003051758
390.8917392,73.75
390.9073642,73.8199996948242
390.9229892,73.8899993896484
390.9386142,73.9499969482422
390.9542392,74.0100021362305
390.9698642,74.0599975585938
390.9854892,74.1100006103516
391.0011142,74.1500015258789
391.0167392,74.1900024414063
391.0323642,74.2300033569336
391.0479892,74.2699966430664
391.0636142,74.3000030517578
391.0792392,74.3300018310547
391.0948642,74.3600006103516
391.1104892,74.3899993896484
391.1261142,74.4199981689453
391.1417392,74.4499969482422
391.1573642,74.4800033569336
391.1729892,74.5100021362305
391.1886142,74.5299987792969
391.2042392,74.5500030517578
391.2198642,74.5699996948242
391.2354892,74.5899963378906
391.2511142,74.5899963378906
391.2667392,74.5999984741211
391.2823642,74.5999984741211
391.2979892,74.5999984741211
391.3136142,74.5999984741211
391.3292392,74.5999984741211
391.3448642,74.5999984741211
391.3604892,74.5999984741211
391.3761142,74.5999984741211
391.3917392,74.6100006103516
391.4073642,74.629997253418
391.4229892,74.6500015258789
391.4386142,74.6800003051758
391.4542392,74.7099990844727
391.4698642,74.7600021362305
391.4854892,74.8000030517578
391.5011142,74.8499984741211
391.5167392,74.9000015258789
391.5323642,74.9400024414063
391.5479892,74.9700012207031
391.5636142,75.0
391.5792392,75.0199966430664
391.5948642,75.0299987792969
391.6104892,75.0400009155273
391.6261142,75.0500030517578
391.6417392,75.0699996948242
391.6573642,75.0800018310547
391.6729892,75.0999984741211
391.6886142,75.1100006103516
391.7042392,75.129997253418
391.7198642,75.129997253418
391.7354892,75.120002746582
391.7511142,75.0999984741211
391.7667392,75.0699996948242
391.7823642,75.0299987792969
391.7979892,74.9800033569336
391.8136142,74.9300003051758
391.8292392,74.8899993896484
391.8448642,74.8600006103516
391.8604892,74.8300018310547
391.8761142,74.8300018310547
391.8917392,74.8300018310547
391.9073642,74.8399963378906
391.9229892,74.8600006103516
391.9386142,74.8899993896484
391.9542392,74.9199981689453
391.9698642,74.9400024414063
391.9854892,74.9599990844727
392.0011142,74.9800033569336
392.0167392,74.9899978637695
392.0323642,75.0
392.0479892,75.0100021362305
392.0636142,75.0100021362305
392.0792392,75.0100021362305
392.0948642,75.0100021362305
392.1104892,75.0100021362305
392.1261142,75.0100021362305
392.1417392,75.0100021362305
392.1573642,75.0100021362305
392.1729892,75.0100021362305
392.1886142,75.0100021362305
392.2042392,75.0100021362305
392.2198642,75.0100021362305
392.2354892,75.0100021362305
392.2511142,75.0199966430664
392.2667392,75.0199966430664
392.2823642,75.0400009155273
392.2979892,75.0500030517578
392.3136142,75.0699996948242
392.3292392,75.0999984741211
392.3448642,75.120002746582
392.3604892,75.1500015258789
392.3761142,75.1800003051758
392.3917392,75.1999969482422
392.4073642,75.2200012207031
392.4229892,75.2300033569336
392.4386142,75.2399978637695
392.4542392,75.25
392.4698642,75.25
392.4854892,75.2600021362305
392.5011142,75.2699966430664
392.5167392,75.2900009155273
392.5323642,75.3099975585938
392.5479892,75.3300018310547
392.5636142,75.3600006103516
392.5792392,75.3899993896484
392.5948642,75.4199981689453
392.6104892,75.4599990844727
392.6261142,75.4899978637695
392.6417392,75.5199966430664
392.6573642,75.5599975585938
392.6729892,75.5899963378906
392.6886142,75.629997253418
392.7042392,75.6600036621094
392.7198642,75.6999969482422
392.7354892,75.7300033569336
392.7511142,75.7600021362305
392.7667392,75.7799987792969
392.7823642,75.7799987792969
392.7979892,75.7799987792969
392.8136142,75.7600021362305
392.8292392,75.7300033569336
392.8448642,75.6900024414063
392.8604892,75.6399993896484
392.8761142,75.5899963378906
392.8917392,75.5500030517578
392.9073642,75.5100021362305
392.9229892,75.4800033569336
392.9386142,75.4499969482422
392.9542392,75.4300003051758
392.9698642,75.4100036621094
392.9854892,75.4000015258789
393.0011142,75.379997253418
393.0167392,75.370002746582
393.0323642,75.3499984741211
393.0479892,75.3399963378906
393.0636142,75.3199996948242
393.0792392,75.2900009155273
393.0948642,75.2699966430664
393.1104892,75.2399978637695
393.1261142,75.1999969482422
393.1417392,75.1699981689453
393.1573642,75.129997253418
393.1729892,75.0899963378906
393.1886142,75.0400009155273
393.2042392,74.9899978637695
393.2198642,74.9400024414063
393.2354892,74.879997253418
393.2511142,74.8199996948242
393.2667392,74.7600021362305
393.2823642,74.6900024414063
393.2979892,74.620002746582
393.3136142,74.5500030517578
393.3292392,74.4800033569336
393.3448642,74.4000015258789
393.3604892,74.3300018310547
393.3761142,74.25
393.3917392,74.1699981689453
393.4073642,74.0800018310547
393.4229892,74.0
393.4386142,73.9199981689453
393.4542392,73.8300018310547
393.4698642,73.75
393.4854892,73.6600036621094
393.5011142,73.5800018310547
393.5167392,73.5
393.5323642,73.4100036621094
393.5479892,73.3300018310547
393.5636142,73.25
393.5792392,73.1800003051758
393.5948642,73.1100006103516
393.6104892,73.0500030517578
393.6261142,72.9800033569336
393.6417392,72.9199981689453
393.6573642,72.870002746582
393.6729892,72.8099975585938
393.6886142,72.7600021362305
393.7042392,72.7200012207031
393.7198642,72.6699981689453
393.7354892,72.629997253418
393.7511142,72.5999984741211
393.7667392,72.5599975585938
393.7823642,72.5299987792969
393.7979892,72.4899978637695
393.8136142,72.4599990844727
393.8292392,72.4199981689453
393.8448642,72.3899993896484
393.8604892,72.3499984741211
393.8761142,72.3199996948242
393.8917392,72.2900009155273
393.9073642,72.25
393.9229892,72.2200012207031
393.9386142,72.1900024414063
393.9542392,72.1600036621094
393.9698642,72.1399993896484
393.9854892,72.1100006103516
394.0011142,72.0899963378906
394.0167392,72.0800018310547
394.0323642,72.0699996948242
394.0479892,72.0699996948242
394.0636142,72.0699996948242
394.0792392,72.0800018310547
394.0948642,72.0899963378906
394.1104892,72.0999984741211
394.1261142,72.1100006103516
394.1417392,72.120002746582
394.1573642,72.129997253418
394.1729892,72.1399993896484
394.1886142,72.1500015258789
394.2042392,72.1600036621094
394.2198642,72.1699981689453
394.2354892,72.1699981689453
394.2511142,72.1699981689453
394.2667392,72.1699981689453
394.2823642,72.1600036621094
394.2979892,72.1500015258789
394.3136142,72.1399993896484
394.3292392,72.129997253418
394.3448642,72.120002746582
394.3604892,72.1100006103516
394.3761142,72.0999984741211
394.3917392,72.0999984741211
394.4073642,72.0999984741211
394.4229892,72.0999984741211
394.4386142,72.1100006103516
394.4542392,72.120002746582
394.4698642,72.129997253418
394.4854892,72.1399993896484
394.5011142,72.1500015258789
394.5167392,72.1600036621094
394.5323642,72.1600036621094
394.5479892,72.1600036621094
394.5636142,72.1699981689453
394.5792392,72.1699981689453
394.5948642,72.1699981689453
394.6104892,72.1800003051758
394.6261142,72.1900024414063
394.6417392,72.2099990844727
394.6573642,72.2300033569336
394.6729892,72.2600021362305
394.6886142,72.3000030517578
394.7042392,72.3499984741211
394.7198642,72.4000015258789
394.7354892,72.4599990844727
394.7511142,72.5199966430664
394.7667392,72.5800018310547
394.7823642,72.6500015258789
394.7979892,72.7099990844727
394.8136142,72.7799987792969
394.8292392,72.8600006103516
394.8448642,72.9499969482422
394.8604892,73.0500030517578
394.8761142,73.1600036621094
394.8917392,73.2900009155273
394.9073642,73.4400024414063
394.9229892,73.5999984741211
394.9386142,73.7699966430664
394.9542392,73.9599990844727
394.9698642,74.1600036621094
394.9854892,74.370002746582
395.0011142,74.5800018310547
395.0167392,74.8000030517578
395.0323642,75.0299987792969
395.0479892,75.2600021362305
395.0636142,75.4899978637695
395.0792392,75.7200012207031
395.0948642,75.9499969482422
395.1104892,76.1800003051758
395.1261142,76.4000015258789
395.1417392,76.620002746582
395.1573642,76.8199996948242
395.1729892,77.0299987792969
395.1886142,77.2200012207031
395.2042392,77.3899993896484
395.2198642,77.5599975585938
395.2354892,77.7099990844727
395.2511142,77.8499984741211
395.2667392,77.9700012207031
395.2823642,78.0800018310547
395.2979892,78.1699981689453
395.3136142,78.2399978637695
395.3292392,78.3000030517578
395.3448642,78.3399963378906
395.3604892,78.3600006103516
395.3761142,78.379997253418
395.3917392,78.379997253418
395.4073642,78.379997253418
395.4229892,78.370002746582
395.4386142,78.370002746582
395.4542392,78.3600006103516
395.4698642,78.3499984741211
395.4854892,78.3499984741211
395.5011142,78.3499984741211
395.5167392,78.3399963378906
395.5323642,78.3399963378906
395.5479892,78.3300018310547
395.5636142,78.3199996948242
395.5792392,78.2900009155273
395.5948642,78.2699966430664
395.6104892,78.2300033569336
395.6261142,78.1800003051758
395.6417392,78.129997253418
395.6573642,78.0599975585938
395.6729892,78.0
395.6886142,77.9300003051758
395.7042392,77.8499984741211
395.7198642,77.7799987792969
395.7354892,77.6999969482422
395.7511142,77.6100006103516
395.7667392,77.5199966430664
395.7823642,77.4100036621094
395.7979892,77.2799987792969
395.8136142,77.1399993896484
395.8292392,76.9700012207031
395.8448642,76.7900009155273
395.8604892,76.5899963378906
395.8761142,76.370002746582
395.8917392,76.1399993896484
395.9073642,75.8899993896484
395.9229892,75.629997253418
395.9386142,75.3499984741211
395.9542392,75.0699996948242
395.9698642,74.7799987792969
395.9854892,74.4800033569336
396.0011142,74.1800003051758
396.0167392,73.879997253418
396.0323642,73.5899963378906
396.0479892,73.2900009155273
396.0636142,73.0
396.0792392,72.7200012207031
396.0948642,72.4499969482422
396.1104892,72.1900024414063
396.1261142,71.9400024414063
396.1417392,71.7099990844727
396.1573642,71.5
396.1729892,71.3000030517578
396.1886142,71.120002746582
396.2042392,70.9499969482422
396.2198642,70.8099975585938
396.2354892,70.6800003051758
396.2511142,70.5599975585938
396.2667392,70.4700012207031
396.2823642,70.379997253418
396.2979892,70.3000030517578
396.3136142,70.2399978637695
396.3292392,70.1800003051758
396.3448642,70.120002746582
396.3604892,70.0699996948242
396.3761142,70.0199966430664
396.3917392,69.9700012207031
396.4073642,69.9300003051758
396.4229892,69.879997253418
396.4386142,69.8399963378906
396.4542392,69.8000030517578
396.4698642,69.7600021362305
396.4854892,69.7200012207031
396.5011142,69.6900024414063
396.5167392,69.6600036621094
396.5323642,69.6399993896484
396.5479892,69.629997253418
396.5636142,69.629997253418
396.5792392,69.629997253418
396.5948642,69.6399993896484
396.6104892,69.6500015258789
396.6261142,69.6699981689453
396.6417392,69.6900024414063
396.6573642,69.7200012207031
396.6729892,69.75
396.6886142,69.7799987792969
396.7042392,69.8099975585938
396.7198642,69.8499984741211
396.7354892,69.879997253418
396.7511142,69.9199981689453
396.7667392,69.9599990844727
396.7823642,70.0
396.7979892,70.0400009155273
396.8136142,70.0800018310547
396.8292392,70.120002746582
396.8448642,70.1600036621094
396.8604892,70.1999969482422
396.8761142,70.2399978637695
396.8917392,70.2699966430664
396.9073642,70.3099975585938
396.9229892,70.3300018310547
396.9386142,70.3600006103516
396.9542392,70.379997253418
396.9698642,70.3899993896484
396.9854892,70.4000015258789
397.0011142,70.4100036621094
397.0167392,70.4199981689453
397.0323642,70.4199981689453
397.0479892,70.4100036621094
397.0636142,70.4100036621094
397.0792392,70.4000015258789
397.0948642,70.3899993896484
397.1104892,70.379997253418
397.1261142,70.370002746582
397.1417392,70.3600006103516
397.1573642,70.3399963378906
397.1729892,70.3199996948242
397.1886142,70.3000030517578
397.2042392,70.2900009155273
397.2198642,70.2699966430664
397.2354892,70.25
397.2511142,70.2300033569336
397.2667392,70.2200012207031
397.2823642,70.2099990844727
397.2979892,70.1999969482422
397.3136142,70.1900024414063
397.3292392,70.1800003051758
397.3448642,70.1699981689453
397.3604892,70.1699981689453
397.3761142,70.1600036621094
397.3917392,70.1500015258789
397.4073642,70.1500015258789
397.4229892,70.1399993896484
397.4386142,70.129997253418
397.4542392,70.129997253418
397.4698642,70.1100006103516
397.4854892,70.0999984741211
397.5011142,70.0800018310547
397.5167392,70.0599975585938
397.5323642,70.0299987792969
397.5479892,70.0
397.5636142,69.9700012207031
397.5792392,69.9300003051758
397.5948642,69.9000015258789
397.6104892,69.8600006103516
397.6261142,69.8199996948242
397.6417392,69.7799987792969
397.6573642,69.75
397.6729892,69.7099990844727
397.6886142,69.6800003051758
397.7042392,69.6500015258789
397.7198642,69.620002746582
397.7354892,69.5999984741211
397.7511142,69.5800018310547
397.7667392,69.5599975585938
397.7823642,69.5400009155273
397.7979892,69.5299987792969
397.8136142,69.5299987792969
397.8292392,69.5299987792969
397.8448642,69.5400009155273
397.8604892,69.5599975585938
397.8761142,69.5800018310547
397.8917392,69.6100006103516
397.9073642,69.6399993896484
397.9229892,69.6800003051758
397.9386142,69.7200012207031
397.9542392,69.7600021362305
397.9698642,69.8000030517578
397.9854892,69.8399963378906
398.0011142,69.8899993896484
398.0167392,69.9300003051758
398.0323642,69.9700012207031
398.0479892,70.0
398.0636142,70.0400009155273
398.0792392,70.0800018310547
398.0948642,70.1100006103516
398.1104892,70.1500015258789
398.1261142,70.1800003051758
398.1417392,70.2200012207031
398.1573642,70.2600021362305
398.1729892,70.2900009155273
398.1886142,70.3300018310547
398.2042392,70.370002746582
398.2198642,70.4100036621094
398.2354892,70.4499969482422
398.2511142,70.4899978637695
398.2667392,70.5299987792969
398.2823642,70.5699996948242
398.2979892,70.6100006103516
398.3136142,70.6600036621094
398.3292392,70.7099990844727
398.3448642,70.75
398.3604892,70.8000030517578
398.3761142,70.8499984741211
398.3917392,70.8899993896484
398.4073642,70.9400024414063
398.4229892,70.9800033569336
398.4386142,71.0199966430664
398.4542392,71.0599975585938
398.4698642,71.0899963378906
398.4854892,71.129997253418
398.5011142,71.1500015258789
398.5167392,71.1800003051758
398.5323642,71.1999969482422
398.5479892,71.2099990844727
398.5636142,71.2300033569336
398.5792392,71.25
398.5948642,71.2699966430664
398.6104892,71.2900009155273
398.6261142,71.3199996948242
398.6417392,71.3499984741211
398.6573642,71.379997253418
398.6729892,71.4100036621094
398.6886142,71.4499969482422
398.7042392,71.4800033569336
398.7198642,71.5199966430664
398.7354892,71.5500030517578
398.7511142,71.5800018310547
398.7667392,71.6100006103516
398.7823642,71.6399993896484
398.7979892,71.6600036621094
398.8136142,71.6900024414063
398.8292392,71.7200012207031
398.8448642,71.7399978637695
398.8604892,71.7699966430664
398.8761142,71.8000030517578
398.8917392,71.8399963378906
398.9073642,71.879997253418
398.9229892,71.9199981689453
398.9386142,71.9700012207031
398.9542392,72.0100021362305
398.9698642,72.0599975585938
398.9854892,72.0999984741211
399.0011142,72.1399993896484
399.0167392,72.1699981689453
399.0323642,72.1999969482422
399.0479892,72.2200012207031
399.0636142,72.2300033569336
399.0792392,72.2399978637695
399.0948642,72.25
399.1104892,72.25
399.1261142,72.2600021362305
399.1417392,72.2600021362305
399.1573642,72.2600021362305
399.1729892,72.25
399.1886142,72.25
399.2042392,72.2399978637695
399.2198642,72.2300033569336
399.2354892,72.2099990844727
399.2511142,72.1999969482422
399.2667392,72.1900024414063
399.2823642,72.1800003051758
399.2979892,72.1699981689453
399.3136142,72.1600036621094
399.3292392,72.1600036621094
399.3448642,72.1600036621094
399.3604892,72.1600036621094
399.3761142,72.1600036621094
399.3917392,72.1600036621094
399.4073642,72.1600036621094
399.4229892,72.1600036621094
399.4386142,72.1500015258789
399.4542392,72.1399993896484
399.4698642,72.129997253418
399.4854892,72.120002746582
399.5011142,72.1100006103516
399.5167392,72.0999984741211
399.5323642,72.0800018310547
399.5479892,72.0699996948242
399.5636142,72.0599975585938
399.5792392,72.0500030517578
399.5948642,72.0400009155273
399.6104892,72.0400009155273
399.6261142,72.0500030517578
399.6417392,72.0699996948242
399.6573642,72.0999984741211
399.6729892,72.1399993896484
399.6886142,72.1800003051758
399.7042392,72.2300033569336
399.7198642,72.2799987792969
399.7354892,72.3300018310547
399.7511142,72.379997253418
399.7667392,72.4199981689453
399.7823642,72.4499969482422
399.7979892,72.4700012207031
399.8136142,72.4899978637695
399.8292392,72.5100021362305
399.8448642,72.5199966430664
399.8604892,72.5299987792969
399.8761142,72.5400009155273
399.8917392,72.5599975585938
399.9073642,72.5699996948242
399.9229892,72.5800018310547
399.9386142,72.5999984741211
399.9542392,72.620002746582
399.9698642,72.6399993896484
399.9854892,72.6600036621094
400.0011142,72.6900024414063
400.0167392,72.7200012207031
400.0323642,72.7399978637695
400.0479892,72.7699966430664
400.0636142,72.7900009155273
400.0792392,72.8099975585938
400.0948642,72.8300018310547
400.1104892,72.8499984741211
400.1261142,72.8600006103516
400.1417392,72.879997253418
400.1573642,72.9100036621094
400.1729892,72.9300003051758
400.1886142,72.9499969482422
400.2042392,72.9700012207031
400.2198642,72.9899978637695
400.2354892,73.0100021362305
400.2511142,73.0299987792969
400.2667392,73.0400009155273
400.2823642,73.0500030517578
400.2979892,73.0699996948242
400.3136142,73.0800018310547
400.3292392,73.0899963378906
400.3448642,73.1100006103516
400.3604892,73.129997253418
400.3761142,73.1500015258789
400.3917392,73.1800003051758
400.4073642,73.2200012207031
400.4229892,73.25
400.4386142,73.3000030517578
400.4542392,73.3399963378906
400.4698642,73.3899993896484
400.4854892,73.4300003051758
400.5011142,73.4800033569336
400.5167392,73.5199966430664
400.5323642,73.5500030517578
400.5479892,73.5699996948242
400.5636142,73.5699996948242
400.5792392,73.5599975585938
400.5948642,73.5299987792969
400.6104892,73.4800033569336
400.6261142,73.4300003051758
400.6417392,73.3600006103516
400.6573642,73.2900009155273
400.6729892,73.2200012207031
400.6886142,73.1500015258789
400.7042392,73.0899963378906
400.7198642,73.0299987792969
400.7354892,72.9800033569336
400.7511142,72.9400024414063
400.7667392,72.9000015258789
400.7823642,72.870002746582
400.7979892,72.8399963378906
400.8136142,72.8199996948242
400.8292392,72.8000030517578
400.8448642,72.7900009155273
400.8604892,72.7699966430664
400.8761142,72.7600021362305
400.8917392,72.75
400.9073642,72.75
400.9229892,72.7399978637695
400.9386142,72.7399978637695
400.9542392,72.7399978637695
400.9698642,72.7399978637695
