Time(s),Value(%)
905.0047644,10.7299995422363
905.0203894,-6.67999982833862
905.0360144,-20.7800006866455
905.0516394,-30.4599990844727
905.0672644,-35.7200012207031
905.0828894,-37.6599998474121
905.0985144,-38.060001373291
905.1141394,-38.7299995422363
905.1297644,-40.8600006103516
905.1453894,-44.6800003051758
905.1610144,-49.5400009155273
905.1766394,-54.4900016784668
905.1922644,-58.7599983215332
905.2078894,-61.9300003051758
905.2235144,-63.9300003051758
905.2391394,-64.9499969482422
905.2547644,-65.4000015258789
905.2703894,-65.620002746582
905.2860144,-65.5500030517578
905.3016394,-64.7799987792969
905.3172644,-62.8600006103516
905.3328894,-59.310001373291
905.3485144,-53.1199989318848
905.3641394,-42.0099983215332
905.3797644,-23.1599998474121
905.3953894,4.82000017166138
905.4110144,40.0900001525879
905.4266394,77.4700012207031
905.4422644,110.25
905.4578894,132.940002441406
905.4735144,143.0
905.4891394,141.259994506836
905.5047644,130.740005493164
905.5203894,115.209999084473
905.5360144,97.7099990844727
905.5516394,79.8399963378906
905.5672644,61.9799995422363
905.5828894,43.9900016784668
905.5985144,25.8500003814697
905.6141394,7.94000005722046
905.6297644,-8.85000038146973
905.6453894,-23.1599998474121
905.6610144,-33.7900009155273
905.6766394,-40.3699989318848
905.6922644,-43.5800018310547
905.7078894,-44.7299995422363
905.7235144,-45.3199996948242
905.7391394,-46.5999984741211
905.7547644,-49.310001373291
905.7703894,-53.4700012207031
905.7860144,-58.3400001525879
905.8016394,-62.9099998474121
905.8172644,-66.4100036621094
905.8328894,-68.5
905.8485144,-69.3000030517578
905.8641394,-69.2300033569336
905.8797644,-68.75
905.8953894,-67.9899978637695
905.9110144,-66.7099990844727
905.9266394,-64.6399993896484
905.9422644,-61.3699989318848
905.9578894,-56.0800018310547
905.9735144,-47.1199989318848
905.9891394,-31.7399997711182
906.0047644,-7.03000020980835
906.0203894,27.3899993896484
906.0360144,67.1900024414063
906.0516394,104.720001220703
906.0672644,132.720001220703
906.0828894,147.320007324219
906.0985144,148.779998779297
906.1141394,140.339996337891
906.1297644,126.220001220703
906.1453894,109.919998168945
906.1610144,93.3300018310547
906.1766394,76.7699966430664
906.1922644,59.689998626709
906.2078894,41.5900001525879
906.2235144,22.6700000762939
906.2391394,3.89000010490417
906.2547644,-13.4200000762939
906.2703894,-27.9200000762939
906.2860144,-38.5699996948242
906.3016394,-45.189998626709
906.3172644,-48.5999984741211
906.3328894,-50.2299995422363
906.3485144,-51.560001373291
906.3641394,-53.7599983215332
906.3797644,-57.310001373291
906.3953894,-61.8600006103516
906.4110144,-66.5599975585938
906.4266394,-70.6100006103516
906.4422644,-73.5
906.4578894,-75.120002746582
906.4735144,-75.4700012207031
906.4891394,-74.7399978637695
906.5047644,-73.3499984741211
906.5203894,-71.8000030517578
906.5360144,-70.25
906.5516394,-68.3499984741211
906.5672644,-65.4800033569336
906.5828894,-60.7200012207031
906.5985144,-52.2700004577637
906.6141394,-37.189998626709
906.6297644,-12.8800001144409
906.6453894,20.3999996185303
906.6610144,58.6699981689453
906.6766394,95.370002746582
906.6922644,124.050003051758
906.7078894,140.830001831055
906.7235144,145.339996337891
906.7391394,140.0
906.7547644,128.410003662109
906.7703894,113.779998779297
906.7860144,98.0100021362305
906.8016394,81.629997253418
906.8172644,64.4199981689453
906.8328894,46.2400016784668
906.8485144,27.4099998474121
906.8641394,8.56999969482422
906.8797644,-9.22999954223633
906.8953894,-24.5599994659424
906.9110144,-36.0200004577637
906.9266394,-43.1100006103516
906.9422644,-46.5900001525879
906.9578894,-48.0699996948242
906.9735144,-49.1800003051758
906.9891394,-51.0800018310547
907.0047644,-54.310001373291
907.0203894,-58.7000007629395
907.0360144,-63.4599990844727
907.0516394,-67.5999984741211
907.0672644,-70.4599990844727
907.0828894,-71.879997253418
907.0985144,-72.0800018310547
907.1141394,-71.5599975585938
907.1297644,-70.6999969482422
907.1453894,-69.5100021362305
907.1610144,-67.7600021362305
907.1766394,-65.2900009155273
907.1922644,-62.0099983215332
907.2078894,-57.9099998474121
907.2235144,-52.75
907.2391394,-45.25
907.2547644,-32.5699996948242
907.2703894,-11.6000003814697
907.2860144,18.5100002288818
907.3016394,54.9199981689453
907.3172644,91.6900024414063
907.3328894,122.209999084473
907.3485144,141.789993286133
907.3641394,149.009994506836
907.3797644,145.490005493164
907.3953894,134.460006713867
907.4110144,119.370002746582
907.4266394,102.779998779297
907.4422644,86.0199966430664
907.4578894,69.379997253418
907.4735144,52.9000015258789
907.4891394,36.8899993896484
907.5047644,21.9200000762939
907.5203894,8.22999954223633
907.5360144,-4.53999996185303
907.5516394,-16.9099998474121
907.5672644,-28.7000007629395
907.5828894,-39.1500015258789
907.5985144,-47.5800018310547
907.6141394,-53.7200012207031
907.6297644,-57.7200012207031
907.6453894,-60.1399993896484
907.6610144,-61.9199981689453
907.6766394,-63.9300003051758
907.6922644,-66.4700012207031
907.7078894,-69.25
907.7235144,-71.620002746582
907.7391394,-73.0100021362305
907.7547644,-73.2200012207031
907.7703894,-72.5699996948242
907.7860144,-71.4499969482422
907.8016394,-69.8399963378906
907.8172644,-67.4899978637695
907.8328894,-64.2799987792969
907.8485144,-60.2900009155273
907.8641394,-55.2799987792969
907.8797644,-48.2700004577637
907.8953894,-37.439998626709
907.9110144,-20.5900001525879
907.9266394,3.75
907.9422644,34.9500007629395
907.9578894,69.629997253418
907.9735144,102.480003356934
907.9891394,128.059997558594
908.0047644,142.699996948242
908.0203894,145.770004272461
908.0360144,139.669998168945
908.0516394,128.339996337891
908.0672644,115.169998168945
908.0828894,101.839996337891
908.0985144,88.379997253418
908.1141394,74.0299987792969
908.1297644,58.1500015258789
908.1453894,40.6399993896484
908.1610144,22.3500003814697
908.1766394,5.03999996185303
908.1922644,-9.40999984741211
908.2078894,-19.8899993896484
908.2235144,-26.4400005340576
908.2391394,-30.0100002288818
908.2547644,-31.9200000762939
908.2703894,-33.4199981689453
908.2860144,-35.4799995422363
908.3016394,-38.5999984741211
908.3172644,-42.5999984741211
908.3328894,-46.7999992370605
908.3485144,-50.5299987792969
908.3641394,-53.4500007629395
908.3797644,-55.6500015258789
908.3953894,-57.5299987792969
908.4110144,-59.3499984741211
908.4266394,-60.8699989318848
908.4422644,-61.5299987792969
908.4578894,-60.939998626709
908.4735144,-59.2000007629395
908.4891394,-56.6800003051758
908.5047644,-53.5
908.5203894,-48.7099990844727
908.5360144,-39.8800010681152
908.5516394,-24.1200008392334
908.5672644,0.0099999997764825
908.5828894,31.2000007629395
908.5985144,65.1999969482422
908.6141394,96.1399993896484
908.6297644,118.779998779297
908.6453894,130.360000610352
908.6610144,131.139999389648
908.6766394,123.48999786377
908.6922644,110.580001831055
908.7078894,95.25
908.7235144,79.2900009155273
908.7391394,63.3400001525879
908.7547644,47.2599983215332
908.7703894,30.7299995422363
908.7860144,13.8000001907349
908.8016394,-2.80999994277954
908.8172644,-17.7700004577637
908.8328894,-29.7000007629395
908.8485144,-37.9700012207031
908.8641394,-43.0400009155273
908.8797644,-46.0900001525879
908.8953894,-48.4799995422363
908.9110144,-51.1100006103516
908.9266394,-54.3199996948242
908.9422644,-57.939998626709
908.9578894,-61.5800018310547
908.9735144,-64.879997253418
908.9891394,-67.6100006103516
909.0047644,-69.6399993896484
909.0203894,-70.9899978637695
909.0360144,-71.8300018310547
909.0516394,-72.2600021362305
909.0672644,-72.120002746582
909.0828894,-71.1800003051758
909.0985144,-69.3399963378906
909.1141394,-66.629997253418
909.1297644,-62.7400016784668
909.1453894,-56.3600006103516
909.1610144,-45.1800003051758
909.1766394,-26.7199993133545
909.1922644,0.0
909.2078894,33.0400009155273
909.2235144,67.4499969482422
909.2391394,97.2099990844727
909.2547644,117.629997253418
909.2703894,126.949996948242
909.2860144,126.309997558594
909.3016394,118.569999694824
909.3172644,106.809997558594
909.3328894,93.3099975585938
909.3485144,79.1100006103516
909.3641394,64.370002746582
909.3797644,48.9900016784668
909.3953894,33.0200004577637
909.4110144,16.8500003814697
909.4266394,1.25
909.4422644,-12.6999998092651
909.4578894,-24.0699996948242
909.4735144,-32.3300018310547
909.4891394,-37.6599998474121
909.5047644,-40.8300018310547
909.5203894,-42.9500007629395
909.5360144,-45.0900001525879
909.5516394,-47.8899993896484
909.5672644,-51.4500007629395
909.5828894,-55.4300003051758
909.5985144,-59.2799987792969
909.6141394,-62.4900016784668
909.6297644,-64.8499984741211
909.6453894,-66.4100036621094
909.6610144,-67.1999969482422
909.6766394,-67.0899963378906
909.6922644,-65.9300003051758
909.7078894,-63.810001373291
909.7235144,-60.9900016784668
909.7391394,-57.8300018310547
909.7547644,-54.4300003051758
909.7703894,-50.1199989318848
909.7860144,-43.0999984741211
909.8016394,-30.8999996185303
909.8172644,-11.5699996948242
909.8328894,14.9499998092651
909.8485144,46.0099983215332
909.8641394,76.8399963378906
909.8797644,102.300003051758
909.8953894,118.930000305176
909.9110144,125.800003051758
909.9266394,124.089996337891
909.9422644,116.199996948242
909.9578894,104.669998168945
909.9735144,91.3600006103516
909.9891394,77.2600021362305
910.0047644,62.6599998474121
910.0203894,47.5099983215332
910.0360144,31.8299999237061
910.0516394,16.0499992370605
910.0672644,1.22000002861023
910.0828894,-11.460000038147
910.0985144,-21.1399993896484
910.1141394,-27.5699996948242
910.1297644,-31.2999992370605
910.1453894,-33.5200004577637
910.1610144,-35.5400009155273
910.1766394,-38.1599998474121
910.1922644,-41.4900016784668
910.2078894,-45.1300010681152
910.2235144,-48.5699996948242
910.2391394,-51.4700012207031
910.2547644,-53.75
910.2703894,-55.4599990844727
910.2860144,-56.689998626709
910.3016394,-57.4799995422363
910.3172644,-57.7000007629395
910.3328894,-57.1500015258789
910.3485144,-55.8300018310547
910.3641394,-53.8499984741211
910.3797644,-51.2900009155273
910.3953894,-47.8400001525879
910.4110144,-42.4500007629395
910.4266394,-33.1500015258789
910.4422644,-17.8899993896484
910.4578894,4.03000020980835
910.4735144,30.9599990844727
910.4891394,59.0299987792969
910.5047644,83.5899963378906
910.5203894,100.879997253418
910.5360144,109.26000213623
910.5516394,109.360000610352
910.5672644,103.319999694824
910.5828894,93.620002746582
910.5985144,82.25
910.6141394,70.2399978637695
910.6297644,57.7900009155273
910.6453894,44.75
910.6610144,31.2199993133545
910.6766394,17.8600006103516
910.6922644,5.6100001335144
910.7078894,-4.63000011444092
910.7235144,-12.4200000762939
910.7391394,-17.8099994659424
910.7547644,-21.2900009155273
910.7703894,-23.6299991607666
910.7860144,-25.5
910.8016394,-27.2399997711182
910.8172644,-28.9899997711182
910.8328894,-30.9300003051758
910.8485144,-33.2999992370605
910.8641394,-36.060001373291
910.8797644,-38.8199996948242
910.8953894,-41.2299995422363
910.9110144,-43.310001373291
910.9266394,-45.1699981689453
910.9422644,-46.6599998474121
910.9578894,-47.4799995422363
910.9735144,-47.4000015258789
910.9891394,-46.4900016784668
911.0047644,-44.9599990844727
911.0203894,-42.9300003051758
911.0360144,-39.939998626709
911.0516394,-34.4900016784668
911.0672644,-24.5300006866455
911.0828894,-8.57999992370605
911.0985144,13.1300001144409
911.1141394,38.2200012207031
911.1297644,62.689998626709
911.1453894,82.4899978637695
911.1610144,95.0299987792969
911.1766394,99.6699981689453
911.1922644,97.3600006103516
911.2078894,90.0400009155273
911.2235144,79.8199996948242
911.2391394,68.2399978637695
911.2547644,56.1300010681152
911.2703894,43.9000015258789
911.2860144,32.0299987792969
911.3016394,21.0100002288818
911.3172644,10.8400001525879
911.3328894,1.21000003814697
911.3485144,-7.8899998664856
911.3641394,-15.9899997711182
911.3797644,-22.5499992370605
911.3953894,-27.3199996948242
911.4110144,-30.5
911.4266394,-32.7400016784668
911.4422644,-34.7299995422363
911.4578894,-36.8699989318848
911.4735144,-39.2799987792969
911.4891394,-41.8899993896484
911.5047644,-44.5200004577637
911.5203894,-46.8699989318848
911.5360144,-48.6500015258789
911.5516394,-49.7999992370605
911.5672644,-50.5099983215332
911.5828894,-51.0299987792969
911.5985144,-51.3400001525879
911.6141394,-51.2000007629395
911.6297644,-50.3199996948242
911.6453894,-48.3800010681152
911.6610144,-44.7599983215332
911.6766394,-38.2000007629395
911.6922644,-27.0599994659424
911.7078894,-10.1700000762939
911.7235144,11.9899997711182
911.7391394,36.939998626709
911.7547644,60.810001373291
911.7703894,79.7300033569336
911.7860144,91.2799987792969
911.8016394,95.0699996948242
911.8172644,92.4199981689453
911.8328894,85.4599990844727
911.8485144,76.1999969482422
911.8641394,65.9499969482422
911.8797644,55.1800003051758
911.8953894,43.9099998474121
911.9110144,32.1300010681152
911.9266394,20.0499992370605
911.9422644,8.1899995803833
911.9578894,-2.71000003814697
911.9735144,-11.9899997711182
911.9891394,-19.25
912.0047644,-24.4300003051758
912.0203894,-27.8099994659424
912.0360144,-30.0699996948242
912.0516394,-32.060001373291
912.0672644,-34.4799995422363
912.0828894,-37.5999984741211
912.0985144,-41.1800003051758
912.1141394,-44.7599983215332
912.1297644,-47.8899993896484
912.1453894,-50.2599983215332
912.1610144,-51.7999992370605
912.1766394,-52.7000007629395
912.1922644,-53.2099990844727
912.2078894,-53.3800010681152
912.2235144,-53.0900001525879
912.2391394,-52.0999984741211
912.2547644,-50.0
912.2703894,-46.0
912.2860144,-38.7299995422363
912.3016394,-26.4300003051758
912.3172644,-7.63000011444092
912.3328894,17.2399997711182
912.3485144,44.8400001525879
912.3641394,70.0500030517578
912.3797644,88.4400024414063
912.3953894,97.9000015258789
912.4110144,98.9199981689453
912.4266394,93.8000030517578
912.4422644,85.3000030517578
912.4578894,75.370002746582
912.4735144,64.7900009155273
912.4891394,53.5400009155273
912.5047644,41.5099983215332
912.5203894,28.9400005340576
912.5360144,16.4200000762939
912.5516394,4.65999984741211
912.5672644,-5.76999998092651
912.5828894,-14.5699996948242
912.5985144,-21.5900001525879
912.6141394,-26.8600006103516
912.6297644,-30.7399997711182
912.6453894,-33.8300018310547
912.6610144,-36.75
912.6766394,-40.0400009155273
912.6922644,-43.8199996948242
912.7078894,-47.7099990844727
912.7235144,-51.1399993896484
912.7391394,-53.7299995422363
912.7547644,-55.4199981689453
912.7703894,-56.2799987792969
912.7860144,-56.4799995422363
912.8016394,-56.3300018310547
912.8172644,-56.2400016784668
912.8328894,-56.3199996948242
912.8485144,-56.189998626709
912.8641394,-54.8499984741211
912.8797644,-50.8699989318848
912.8953894,-42.5200004577637
912.9110144,-28.1399993896484
912.9266394,-6.90999984741211
912.9422644,19.7999992370605
912.9578894,47.9700012207031
912.9735144,72.4599990844727
912.9891394,89.370002746582
913.0047644,97.3000030517578
913.0203894,97.2600021362305
913.0360144,91.5999984741211
913.0516394,82.8399963378906
913.0672644,72.7300033569336
913.0828894,62.0099983215332
913.0985144,50.7400016784668
913.1141394,38.8400001525879
913.1297644,26.5400009155273
913.1453894,14.4399995803833
913.1610144,3.27999997138977
913.1766394,-6.28999996185303
913.1922644,-13.960000038147
913.2078894,-19.6900005340576
913.2235144,-23.7399997711182
913.2391394,-26.5799999237061
913.2547644,-28.7900009155273
913.2703894,-30.8799991607666
913.2860144,-33.2099990844727
913.3016394,-35.9099998474121
913.3172644,-38.9799995422363
913.3328894,-42.2400016784668
913.3485144,-45.2599983215332
913.3641394,-47.5900001525879
913.3797644,-49.0
913.3953894,-49.5200004577637
913.4110144,-49.3800010681152
913.4266394,-48.8899993896484
913.4422644,-48.0999984741211
913.4578894,-46.4799995422363
913.4735144,-42.8699989318848
913.4891394,-35.689998626709
913.5047644,-23.4400005340576
913.5203894,-5.55999994277954
913.5360144,16.8299999237061
913.5516394,40.8899993896484
913.5672644,62.8899993896484
913.5828894,79.5
913.5985144,88.6800003051758
913.6141394,90.1600036621094
913.6297644,85.4300003051758
913.6453894,76.9199981689453
913.6610144,66.8199996948242
913.6766394,56.2700004577637
913.6922644,45.4900016784668
913.7078894,34.4300003051758
913.7235144,23.1499996185303
913.7391394,12.0200004577637
913.7547644,1.71000003814697
913.7703894,-7.01000022888184
913.7860144,-13.539999961853
913.8016394,-17.7900009155273
913.8172644,-20.3199996948242
913.8328894,-22.0
913.8485144,-23.4899997711182
913.8641394,-25.2099990844727
913.8797644,-27.4400005340576
913.8953894,-30.2600002288818
913.9110144,-33.5699996948242
913.9266394,-37.1699981689453
913.9422644,-40.7099990844727
913.9578894,-43.7400016784668
913.9735144,-45.9500007629395
913.9891394,-47.2900009155273
914.0047644,-47.8600006103516
914.0203894,-47.7000007629395
914.0360144,-46.5999984741211
914.0516394,-43.7900009155273
914.0672644,-37.6199989318848
914.0828894,-26.1100006103516
914.0985144,-8.32999992370605
914.1141394,14.6499996185303
914.1297644,39.6800003051758
914.1453894,62.5
914.1610144,79.4100036621094
914.1766394,88.5800018310547
914.1922644,90.2200012207031
914.2078894,85.879997253418
914.2235144,77.629997253418
914.2391394,67.3099975585938
914.2547644,56.0499992370605
914.2703894,44.2900009155273
914.2860144,32.2999992370605
914.3016394,20.4200000762939
914.3172644,9.19999980926514
914.3328894,-0.720000028610229
914.3485144,-9.02999973297119
914.3641394,-15.8000001907349
914.3797644,-21.2600002288818
914.3953894,-25.5100002288818
914.4110144,-28.5900001525879
914.4266394,-30.7600002288818
914.4422644,-32.5699996948242
914.4578894,-34.5900001525879
914.4735144,-37.0200004577637
914.4891394,-39.6500015258789
914.5047644,-42.0699996948242
914.5203894,-44.0499992370605
914.5360144,-45.5499992370605
914.5516394,-46.5999984741211
914.5672644,-47.25
914.5828894,-47.6800003051758
914.5985144,-47.9300003051758
914.6141394,-47.6300010681152
914.6297644,-45.8600006103516
914.6453894,-41.2599983215332
914.6610144,-32.2000007629395
914.6766394,-17.2199993133545
914.6922644,4.15999984741211
914.7078894,30.2700004577637
914.7235144,56.8800010681152
914.7391394,78.9100036621094
914.7547644,92.7799987792969
914.7703894,97.5699996948242
914.7860144,94.7399978637695
914.8016394,86.9199981689453
914.8172644,76.6900024414063
914.8328894,65.8600006103516
914.8485144,55.1599998474121
914.8641394,44.4300003051758
914.8797644,33.1699981689453
914.8953894,21.1700000762939
914.9110144,8.90999984741211
914.9266394,-2.78999996185303
914.9422644,-13.1400003433228
914.9578894,-21.5699996948242
914.9735144,-27.8500003814697
914.9891394,-32.1599998474121
915.0047644,-35.060001373291
915.0203894,-37.2900009155273
915.0360144,-39.4799995422363
915.0516394,-41.9500007629395
915.0672644,-44.689998626709
915.0828894,-47.5299987792969
915.0985144,-50.310001373291
915.1141394,-52.8600006103516
915.1297644,-54.9000015258789
915.1453894,-56.1699981689453
915.1610144,-56.560001373291
915.1766394,-56.1699981689453
915.1922644,-55.1100006103516
915.2078894,-53.0900001525879
915.2235144,-49.1599998474121
915.2391394,-41.6100006103516
915.2547644,-28.5499992370605
915.2703894,-9.10999965667725
915.2860144,15.5900001525879
915.3016394,42.4000015258789
915.3172644,67.129997253418
915.3328894,86.1699981689453
915.3485144,97.5999984741211
915.3641394,101.300003051758
915.3797644,98.3600006103516
915.3953894,90.5400009155273
915.4110144,79.6999969482422
915.4266394,67.25
915.4422644,53.8400001525879
915.4578894,39.5400009155273
915.4735144,24.4599990844727
915.4891394,9.27999973297119
915.5047644,-4.92999982833862
915.5203894,-17.1399993896484
915.5360144,-26.6599998474121
915.5516394,-33.3300018310547
915.5672644,-37.6100006103516
915.5828894,-40.4199981689453
915.5985144,-42.8300018310547
915.6141394,-45.5299987792969
915.6297644,-48.6500015258789
915.6453894,-51.9000015258789
915.6610144,-54.9099998474121
915.6766394,-57.3800010681152
915.6922644,-59.1199989318848
915.7078894,-60.2000007629395
915.7235144,-60.8499984741211
