Time(s),Value(%)
905.0047644,27.7999992370605
905.0203894,17.6000003814697
905.0360144,7.84000015258789
905.0516394,0.0
905.0672644,-5.26999998092651
905.0828894,-8.34000015258789
905.0985144,-10.1700000762939
905.1141394,-11.8800001144409
905.1297644,-14.3699998855591
905.1453894,-18.0699996948242
905.1610144,-22.7800006866455
905.1766394,-27.6900005340576
905.1922644,-31.7199993133545
905.2078894,-34.1500015258789
905.2235144,-34.9300003051758
905.2391394,-34.5699996948242
905.2547644,-33.9900016784668
905.2703894,-34.1399993896484
905.2860144,-35.5999984741211
905.3016394,-38.1300010681152
905.3172644,-40.5699996948242
905.3328894,-41.560001373291
905.3485144,-40.3699989318848
905.3641394,-36.8699989318848
905.3797644,-30.7199993133545
905.3953894,-21.0799999237061
905.4110144,-7.51000022888184
905.4266394,9.13000011444092
905.4422644,26.7199993133545
905.4578894,42.689998626709
905.4735144,55.0699996948242
905.4891394,63.0400009155273
905.5047644,66.8000030517578
905.5203894,67.2600021362305
905.5360144,65.7200012207031
905.5516394,63.4000015258789
905.5672644,60.8899993896484
905.5828894,58.0
905.5985144,53.9900016784668
905.6141394,47.9500007629395
905.6297644,39.439998626709
905.6453894,28.9099998474121
905.6610144,17.6900005340576
905.6766394,7.30000019073486
905.6922644,-1.22000002861023
905.7078894,-7.6399998664856
905.7235144,-12.210000038147
905.7391394,-15.4499998092651
905.7547644,-18.1000003814697
905.7703894,-21.0599994659424
905.7860144,-25.0599994659424
905.8016394,-30.0699996948242
905.8172644,-35.2000007629395
905.8328894,-39.3199996948242
905.8485144,-41.7999992370605
905.8641394,-42.8199996948242
905.8797644,-43.0999984741211
905.8953894,-43.3400001525879
905.9110144,-43.7099990844727
905.9266394,-43.8199996948242
905.9422644,-43.1399993896484
905.9578894,-41.5
905.9735144,-39.3199996948242
905.9891394,-37.1599998474121
906.0047644,-34.8600006103516
906.0203894,-31.2600002288818
906.0360144,-24.6700000762939
906.0516394,-13.8699998855591
906.0672644,0.990000009536743
906.0828894,18.1100006103516
906.0985144,34.7400016784668
906.1141394,48.2400016784668
906.1297644,56.9799995422363
906.1453894,60.7700004577637
906.1610144,60.7700004577637
906.1766394,58.7299995422363
906.1922644,56.1399993896484
906.2078894,53.5900001525879
906.2235144,50.8899993896484
906.2391394,47.4099998474121
906.2547644,42.2999992370605
906.2703894,34.7599983215332
906.2860144,24.8400001525879
906.3016394,13.75
906.3172644,3.27999997138977
906.3328894,-5.15000009536743
906.3485144,-11.1499996185303
906.3641394,-15.3900003433228
906.3797644,-19.0
906.3953894,-22.8799991607666
906.4110144,-27.2399997711182
906.4266394,-31.7299995422363
906.4422644,-35.7299995422363
906.4578894,-38.8400001525879
906.4735144,-41.1100006103516
906.4891394,-42.6399993896484
906.5047644,-43.4300003051758
906.5203894,-43.5299987792969
906.5360144,-43.2700004577637
906.5516394,-42.9799995422363
906.5672644,-42.6500015258789
906.5828894,-41.9099998474121
906.5985144,-40.4099998474121
906.6141394,-38.2200012207031
906.6297644,-35.7599983215332
906.6453894,-33.2700004577637
906.6610144,-30.1900005340576
906.6766394,-25.0300006866455
906.6922644,-16.1200008392334
906.7078894,-2.92000007629395
906.7235144,13.0699996948242
906.7391394,28.8899993896484
906.7547644,41.6100006103516
906.7703894,49.6800003051758
906.7860144,53.4099998474121
906.8016394,54.3199996948242
906.8172644,54.0999984741211
906.8328894,53.9099998474121
906.8485144,54.0
906.8641394,53.6800003051758
906.8797644,51.6100006103516
906.8953894,46.6500015258789
906.9110144,38.6399993896484
906.9266394,28.7199993133545
906.9422644,18.7099990844727
906.9578894,10.1000003814697
906.9735144,3.45000004768372
906.9891394,-1.5900000333786
907.0047644,-5.73999977111816
907.0203894,-9.71000003814697
907.0360144,-13.8999996185303
907.0516394,-18.2299995422363
907.0672644,-22.3299999237061
907.0828894,-25.9699993133545
907.0985144,-29.0499992370605
907.1141394,-31.3999996185303
907.1297644,-32.7999992370605
907.1453894,-33.310001373291
907.1610144,-33.2200012207031
907.1766394,-32.8499984741211
907.1922644,-32.4300003051758
907.2078894,-32.4099998474121
907.2235144,-33.2400016784668
907.2391394,-34.8800010681152
907.2547644,-36.5200004577637
907.2703894,-36.9799995422363
907.2860144,-35.0499992370605
907.3016394,-29.8099994659424
907.3172644,-21.0900001525879
907.3328894,-9.51000022888184
907.3485144,3.57999992370605
907.3641394,16.5699996948242
907.3797644,28.0699996948242
907.3953894,37.1500015258789
907.4110144,43.1800003051758
907.4266394,45.8600006103516
907.4422644,45.5
907.4578894,43.25
907.4735144,40.6300010681152
907.4891394,38.6699981689453
907.5047644,37.2599983215332
907.5203894,35.4099998474121
907.5360144,31.8999996185303
907.5516394,26.0699996948242
907.5672644,18.2700004577637
907.5828894,9.77999973297119
907.5985144,2.07999992370605
907.6141394,-3.83999991416931
907.6297644,-7.92000007629395
907.6453894,-10.6700000762939
907.6610144,-12.7200002670288
907.6766394,-14.4499998092651
907.6922644,-16.0200004577637
907.7078894,-17.4300003051758
907.7235144,-18.6200008392334
907.7391394,-19.5300006866455
907.7547644,-20.2399997711182
907.7703894,-20.9099998474121
907.7860144,-21.6900005340576
907.8016394,-22.7199993133545
907.8172644,-23.9899997711182
907.8328894,-25.2000007629395
907.8485144,-25.9099998474121
907.8641394,-25.9599990844727
907.8797644,-25.7800006866455
907.8953894,-26.0900001525879
907.9110144,-26.9400005340576
907.9266394,-27.1200008392334
907.9422644,-24.5
907.9578894,-17.3400001525879
907.9735144,-5.53999996185303
907.9891394,9.0
908.0047644,23.3899993896484
908.0203894,35.060001373291
908.0360144,42.75
908.0516394,46.5
908.0672644,47.2599983215332
908.0828894,46.2599983215332
908.0985144,44.6699981689453
908.1141394,43.3300018310547
908.1297644,42.4199981689453
908.1453894,41.2700004577637
908.1610144,38.6199989318848
908.1766394,33.4199981689453
908.1922644,25.5699996948242
908.2078894,16.0100002288818
908.2235144,6.26000022888184
908.2391394,-2.09999990463257
908.2547644,-8.13000011444092
908.2703894,-11.8500003814697
908.2860144,-14.1499996185303
908.3016394,-16.0900001525879
908.3172644,-18.3999996185303
908.3328894,-21.2399997711182
908.3485144,-24.3500003814697
908.3641394,-27.2099990844727
908.3797644,-29.3999996185303
908.3953894,-30.8099994659424
908.4110144,-31.75
908.4266394,-32.6100006103516
908.4422644,-33.5999984741211
908.4578894,-34.5299987792969
908.4735144,-34.9199981689453
908.4891394,-34.3899993896484
908.5047644,-32.8199996948242
908.5203894,-30.3400001525879
908.5360144,-27.1399993896484
908.5516394,-23.1599998474121
908.5672644,-17.7299995422363
908.5828894,-9.72999954223633
908.5985144,1.37000000476837
908.6141394,14.6800003051758
908.6297644,27.9799995422363
908.6453894,38.8699989318848
908.6610144,45.9000015258789
908.6766394,48.9500007629395
908.6922644,48.8899993896484
908.7078894,46.9599990844727
908.7235144,44.2900009155273
908.7391394,41.5900001525879
908.7547644,38.9500007629395
908.7703894,35.8199996948242
908.7860144,31.4799995422363
908.8016394,25.5
908.8172644,18.0200004577637
908.8328894,9.6899995803833
908.8485144,1.37999999523163
908.8641394,-5.98000001907349
908.8797644,-11.6199998855591
908.8953894,-15.1000003814697
908.9110144,-16.75
908.9266394,-17.7299995422363
908.9422644,-19.4799995422363
908.9578894,-22.7299995422363
908.9735144,-27.1700000762939
908.9891394,-31.8999996185303
909.0047644,-36.1199989318848
909.0203894,-39.2900009155273
909.0360144,-40.9700012207031
909.0516394,-40.9900016784668
909.0672644,-39.7900009155273
909.0828894,-38.1800003051758
909.0985144,-36.810001373291
909.1141394,-35.8600006103516
909.1297644,-35.0699996948242
909.1453894,-34.0499992370605
909.1610144,-32.6599998474121
909.1766394,-30.9500007629395
909.1922644,-28.5499992370605
909.2078894,-24.3600006103516
909.2235144,-16.9599990844727
909.2391394,-5.73999977111816
909.2547644,8.3100004196167
909.2703894,22.9500007629395
909.2860144,35.8400001525879
909.3016394,45.6800003051758
909.3172644,52.3600006103516
909.3328894,56.4000015258789
909.3485144,58.2299995422363
909.3641394,57.7400016784668
909.3797644,54.5800018310547
909.3953894,48.6399993896484
909.4110144,40.3499984741211
909.4266394,30.5300006866455
909.4422644,20.3600006103516
909.4578894,11.1000003814697
909.4735144,3.67000007629395
909.4891394,-1.55999994277954
909.5047644,-4.73999977111816
909.5203894,-6.34000015258789
909.5360144,-7.1100001335144
909.5516394,-8.02999973297119
909.5672644,-9.85999965667725
909.5828894,-12.6700000762939
909.5985144,-16.0300006866455
909.6141394,-19.5200004577637
909.6297644,-23.1700000762939
909.6453894,-27.25
909.6610144,-31.5300006866455
909.6766394,-35.2200012207031
909.6922644,-37.5099983215332
909.7078894,-38.0699996948242
909.7235144,-37.2599983215332
909.7391394,-35.810001373291
909.7547644,-34.2799987792969
909.7703894,-32.7200012207031
909.7860144,-30.9300003051758
909.8016394,-28.7600002288818
909.8172644,-25.9899997711182
909.8328894,-22.0499992370605
909.8485144,-15.75
909.8641394,-5.78000020980835
909.8797644,8.13000011444092
909.8953894,24.5100002288818
909.9110144,40.310001373291
909.9266394,52.2200012207031
909.9422644,58.2999992370605
909.9578894,58.7599983215332
909.9735144,55.4300003051758
909.9891394,50.5999984741211
910.0047644,45.8899993896484
910.0203894,41.75
910.0360144,37.560001373291
910.0516394,32.2700004577637
910.0672644,25.2099990844727
910.0828894,16.5100002288818
910.0985144,7.03000020980835
910.1141394,-1.97000002861023
910.1297644,-9.35999965667725
910.1453894,-14.460000038147
910.1610144,-17.0699996948242
910.1766394,-17.5400009155273
910.1922644,-16.7700004577637
910.2078894,-15.8999996185303
910.2235144,-15.8000001907349
910.2391394,-16.7399997711182
910.2547644,-18.5799999237061
910.2703894,-20.9599990844727
910.2860144,-23.4099998474121
910.3016394,-25.3400001525879
910.3172644,-26.2900009155273
910.3328894,-26.2099990844727
910.3485144,-25.4500007629395
910.3641394,-24.4200000762939
910.3797644,-23.3600006103516
910.3953894,-22.3799991607666
910.4110144,-21.7399997711182
910.4266394,-21.5400009155273
910.4422644,-21.1800003051758
910.4578894,-19.1499996185303
910.4735144,-13.789999961853
910.4891394,-4.34000015258789
910.5047644,8.47999954223633
910.5203894,22.8099994659424
910.5360144,36.1399993896484
910.5516394,46.060001373291
910.5672644,51.1399993896484
910.5828894,51.6599998474121
910.5985144,49.2200012207031
910.6141394,45.6300010681152
910.6297644,42.0900001525879
910.6453894,38.9300003051758
910.6610144,35.6399993896484
910.6766394,31.0799999237061
910.6922644,24.3199996948242
910.7078894,15.5900001525879
910.7235144,6.48999977111816
910.7391394,-0.959999978542328
910.7547644,-5.75
910.7703894,-8.27000045776367
910.7860144,-9.65999984741211
910.8016394,-10.8900003433228
910.8172644,-12.3299999237061
910.8328894,-14.0
910.8485144,-15.8800001144409
910.8641394,-18.1100006103516
910.8797644,-20.8600006103516
910.8953894,-24.1399993896484
910.9110144,-27.75
910.9266394,-31.1800003051758
910.9422644,-33.6500015258789
910.9578894,-34.5800018310547
910.9735144,-33.9500007629395
910.9891394,-32.2599983215332
911.0047644,-29.9200000762939
911.0203894,-27.0900001525879
911.0360144,-23.8299999237061
911.0516394,-20.1700000762939
911.0672644,-15.6999998092651
911.0828894,-9.31999969482422
911.0985144,0.150000005960464
911.1141394,12.8900003433228
911.1297644,27.6200008392334
911.1453894,42.1800003051758
911.1610144,54.5
911.1766394,63.1100006103516
911.1922644,67.2699966430664
911.2078894,66.9499969482422
911.2235144,62.8699989318848
911.2391394,56.4799995422363
911.2547644,49.310001373291
911.2703894,42.0699996948242
911.2860144,34.4099998474121
911.3016394,25.5799999237061
911.3172644,15.4899997711182
911.3328894,5.13000011444092
911.3485144,-4.0
911.3641394,-10.7299995422363
911.3797644,-14.7600002288818
911.3953894,-16.6700000762939
911.4110144,-17.5200004577637
911.4266394,-18.1599998474121
911.4422644,-19.1200008392334
911.4578894,-20.7000007629395
911.4735144,-22.9799995422363
911.4891394,-25.7199993133545
911.5047644,-28.1900005340576
911.5203894,-29.5799999237061
911.5360144,-29.6800003051758
911.5516394,-29.1800003051758
911.5672644,-29.1499996185303
911.5828894,-30.2000007629395
911.5985144,-31.9599990844727
911.6141394,-33.4599990844727
911.6297644,-33.9000015258789
911.6453894,-33.0
911.6610144,-30.8600006103516
911.6766394,-27.3600006103516
911.6922644,-21.7600002288818
911.7078894,-13.1700000762939
911.7235144,-1.33000004291534
911.7391394,12.8000001907349
911.7547644,27.1599998474121
911.7703894,39.4099998474121
911.7860144,48.0400009155273
911.8016394,52.9700012207031
911.8172644,55.1100006103516
911.8328894,55.4599990844727
911.8485144,54.6100006103516
911.8641394,52.6599998474121
911.8797644,49.4300003051758
911.8953894,44.3899993896484
911.9110144,37.0099983215332
911.9266394,27.2999992370605
911.9422644,16.1599998474121
911.9578894,5.03999996185303
911.9735144,-4.80999994277954
911.9891394,-12.6700000762939
912.0047644,-18.2900009155273
912.0203894,-21.7600002288818
912.0360144,-23.75
912.0516394,-25.5599994659424
912.0672644,-28.3500003814697
912.0828894,-32.2999992370605
912.0985144,-36.5099983215332
912.1141394,-39.7900009155273
912.1297644,-41.3699989318848
912.1453894,-41.310001373291
912.1610144,-40.2099990844727
912.1766394,-38.7000007629395
912.1922644,-37.2999992370605
912.2078894,-36.4000015258789
912.2235144,-36.2700004577637
912.2391394,-36.8199996948242
912.2547644,-37.6100006103516
912.2703894,-37.9099998474121
912.2860144,-36.4900016784668
912.3016394,-31.6800003051758
912.3172644,-22.1700000762939
912.3328894,-8.03999996185303
912.3485144,8.80000019073486
912.3641394,25.4300003051758
912.3797644,39.2999992370605
912.3953894,49.2900009155273
912.4110144,55.8300018310547
912.4266394,59.9199981689453
912.4422644,62.0800018310547
912.4578894,61.939998626709
912.4735144,58.8400001525879
912.4891394,52.5699996948242
912.5047644,43.7000007629395
912.5203894,33.2599983215332
912.5360144,22.3199996948242
912.5516394,11.7700004577637
912.5672644,2.36999988555908
912.5828894,-5.30999994277954
912.5985144,-10.8999996185303
912.6141394,-14.3699998855591
912.6297644,-16.2000007629395
912.6453894,-17.2399997711182
912.6610144,-18.2999992370605
912.6766394,-19.8600006103516
912.6922644,-22.1700000762939
912.7078894,-25.25
912.7235144,-28.8099994659424
912.7391394,-32.2099990844727
912.7547644,-34.7200012207031
912.7703894,-35.810001373291
912.7860144,-35.5299987792969
912.8016394,-34.6399993896484
912.8172644,-34.0999984741211
912.8328894,-34.3199996948242
912.8485144,-34.9599990844727
912.8641394,-35.1399993896484
912.8797644,-33.8300018310547
912.8953894,-29.9500007629395
912.9110144,-22.3700008392334
912.9266394,-10.3699998855591
912.9422644,5.51000022888184
912.9578894,23.2299995422363
912.9735144,39.810001373291
912.9891394,52.4900016784668
913.0047644,59.7900009155273
913.0203894,62.0
913.0360144,60.4099998474121
913.0516394,56.4799995422363
913.0672644,51.3800010681152
913.0828894,45.9500007629395
913.0985144,40.5
913.1141394,34.8400001525879
913.1297644,28.6000003814697
913.1453894,21.5200004577637
913.1610144,13.6999998092651
913.1766394,5.55000019073486
913.1922644,-2.11999988555908
913.2078894,-8.14000034332275
913.2235144,-11.6700000762939
913.2391394,-13.0100002288818
913.2547644,-13.5200004577637
913.2703894,-14.6599998474121
913.2860144,-17.1399993896484
913.3016394,-20.8799991607666
913.3172644,-25.3999996185303
913.3328894,-30.2299995422363
913.3485144,-34.8300018310547
913.3641394,-38.4799995422363
913.3797644,-40.6199989318848
913.3953894,-41.189998626709
913.4110144,-40.5400009155273
913.4266394,-39.1199989318848
913.4422644,-37.3400001525879
913.4578894,-35.4000015258789
913.4735144,-32.9300003051758
913.4891394,-28.7399997711182
913.5047644,-21.2800006866455
913.5203894,-9.55000019073486
913.5360144,6.11999988555908
913.5516394,23.8500003814697
913.5672644,40.6199989318848
913.5828894,53.3800010681152
913.5985144,60.3199996948242
913.6141394,61.4500007629395
913.6297644,58.2799987792969
913.6453894,52.8300018310547
913.6610144,46.7700004577637
913.6766394,40.8499984741211
913.6922644,34.8600006103516
913.7078894,28.1200008392334
913.7235144,20.2800006866455
913.7391394,11.6499996185303
913.7547644,3.00999999046326
913.7703894,-4.78999996185303
913.7860144,-11.210000038147
913.8016394,-16.0900001525879
913.8172644,-19.4400005340576
913.8328894,-21.4599990844727
913.8485144,-22.6100006103516
913.8641394,-23.5499992370605
913.8797644,-24.8400001525879
913.8953894,-26.7000007629395
913.9110144,-28.8500003814697
913.9266394,-30.6700000762939
913.9422644,-31.6599998474121
913.9578894,-31.8199996948242
913.9735144,-31.5699996948242
913.9891394,-31.3700008392334
914.0047644,-31.4500007629395
914.0203894,-31.6100006103516
914.0360144,-31.2299995422363
914.0516394,-29.2600002288818
914.0672644,-24.5
914.0828894,-16.2399997711182
914.0985144,-4.80999994277954
914.1141394,8.48999977111816
914.1297644,22.0100002288818
914.1453894,34.1800003051758
914.1610144,43.9000015258789
914.1766394,50.7000007629395
914.1922644,54.7400016784668
914.2078894,56.4900016784668
914.2235144,56.3800010681152
914.2391394,54.5099983215332
914.2547644,50.4799995422363
914.2703894,43.7099990844727
914.2860144,34.0999984741211
914.3016394,22.5699996948242
914.3172644,10.7200002670288
914.3328894,0.100000001490116
914.3485144,-8.34000015258789
914.3641394,-14.3800001144409
914.3797644,-18.2999992370605
914.3953894,-20.7800006866455
914.4110144,-22.5400009155273
914.4266394,-24.1599998474121
914.4422644,-25.8799991607666
914.4578894,-27.6200008392334
914.4735144,-29.1100006103516
914.4891394,-30.1499996185303
914.5047644,-30.6299991607666
914.5203894,-30.4500007629395
914.5360144,-29.7199993133545
914.5516394,-28.8600006103516
914.5672644,-28.3700008392334
914.5828894,-28.5300006866455
914.5985144,-29.3199996948242
914.6141394,-30.2999992370605
914.6297644,-30.4200000762939
914.6453894,-27.9300003051758
914.6610144,-21.0400009155273
914.6766394,-9.07999992370605
914.6922644,6.88000011444092
914.7078894,24.2299995422363
914.7235144,39.9700012207031
914.7391394,51.9799995422363
914.7547644,59.5900001525879
914.7703894,63.3199996948242
914.7860144,64.2399978637695
914.8016394,63.3699989318848
914.8172644,61.1399993896484
914.8328894,57.3400001525879
914.8485144,51.4300003051758
914.8641394,42.9700012207031
914.8797644,32.0499992370605
914.8953894,19.5400009155273
914.9110144,7.15000009536743
914.9266394,-3.25
914.9422644,-10.5
914.9578894,-14.4899997711182
914.9735144,-16.1800003051758
914.9891394,-17.1800003051758
915.0047644,-18.9599990844727
915.0203894,-22.4599990844727
915.0360144,-27.9099998474121
915.0516394,-34.75
915.0672644,-41.6300010681152
915.0828894,-46.8499984741211
915.0985144,-49.2999992370605
915.1141394,-49.0800018310547
915.1297644,-47.2200012207031
915.1453894,-45.0400009155273
915.1610144,-43.5299987792969
915.1766394,-42.8699989318848
915.1922644,-42.1100006103516
915.2078894,-39.4700012207031
915.2235144,-33.189998626709
915.2391394,-22.4400005340576
915.2547644,-7.86999988555908
915.2703894,8.35000038146973
915.2860144,23.5200004577637
915.3016394,35.7000007629395
915.3172644,44.4500007629395
915.3328894,50.4799995422363
915.3485144,54.8600006103516
915.3641394,58.3199996948242
915.3797644,60.7700004577637
915.3953894,61.3400001525879
915.4110144,58.9799995422363
915.4266394,53.0699996948242
915.4422644,43.5499992370605
915.4578894,30.9699993133545
915.4735144,16.6700000762939
915.4891394,2.66000008583069
915.5047644,-9.09000015258789
915.5203894,-17.5799999237061
915.5360144,-23.1200008392334
915.5516394,-26.7999992370605
915.5672644,-29.4899997711182
915.5828894,-31.3299999237061
915.5985144,-32.2099990844727
915.6141394,-32.2599983215332
915.6297644,-31.8899993896484
915.6453894,-31.4099998474121
915.6610144,-31.0200004577637
915.6766394,-30.8999996185303
915.6922644,-31.1499996185303
915.7078894,-31.7999992370605
915.7235144,-32.8499984741211
915.7391394,-34.3300018310547
