Time(s),Value(%)
704.0127443,44.8699989318848
704.0283693,53.0800018310547
704.0439943,58.8499984741211
704.0596193,62.2700004577637
704.0752443,64.0800018310547
704.0908693,64.9700012207031
704.1064943,65.1600036621094
704.1221193,64.4700012207031
704.1377443,62.7099990844727
704.1533693,59.8800010681152
704.1689943,56.0999984741211
704.1846193,51.5
704.2002443,46.3300018310547
704.2158693,40.8300018310547
704.2314943,35.1100006103516
704.2471193,29.1100006103516
704.2627443,22.7399997711182
704.2783693,16.0799999237061
704.2939943,9.53999996185303
704.3096193,3.66000008583069
704.3252443,-1.23000001907349
704.3408693,-5.19999980926514
704.3564943,-8.52999973297119
704.3721193,-11.6400003433228
704.3877443,-14.8699998855591
704.4033693,-18.3999996185303
704.4189943,-22.2199993133545
704.4346193,-26.2399997711182
704.4502443,-30.4899997711182
704.4658693,-35.0099983215332
704.4814943,-39.7599983215332
704.4971193,-44.4300003051758
704.5127443,-48.6800003051758
704.5283693,-52.0299987792969
704.5439943,-54.5200004577637
704.5596193,-56.4599990844727
704.5752443,-58.0800018310547
704.5908693,-59.3800010681152
704.6064943,-60.2599983215332
704.6221193,-60.7099990844727
704.6377443,-60.7799987792969
704.6533693,-60.4199981689453
704.6689943,-59.439998626709
704.6846193,-57.560001373291
704.7002443,-54.6699981689453
704.7158693,-50.4900016784668
704.7314943,-44.3800010681152
704.7471193,-35.75
704.7627443,-24.7000007629395
704.7783693,-12.210000038147
704.7939943,0.389999985694885
704.8096193,12.1999998092651
704.8252443,23.1000003814697
704.8408693,33.1599998474121
704.8564943,41.8499984741211
704.8721193,48.2299995422363
704.8877443,51.7999992370605
704.9033693,52.9300003051758
704.9189943,52.5400009155273
704.9346193,51.3899993896484
704.9502443,49.5800018310547
704.9658693,46.7999992370605
704.9814943,42.8199996948242
704.9971193,37.7599983215332
705.0127443,31.9799995422363
705.0283693,25.9099998474121
705.0439943,19.8799991607666
705.0596193,14.1300001144409
705.0752443,8.75
705.0908693,3.71000003814697
705.1064943,-1.17999994754791
705.1221193,-6.05999994277954
705.1377443,-10.8699998855591
705.1533693,-15.3900003433228
705.1689943,-19.4300003051758
705.1846193,-22.9200000762939
705.2002443,-25.9899997711182
705.2158693,-28.8999996185303
705.2314943,-32.0
705.2471193,-35.560001373291
705.2627443,-39.6300010681152
705.2783693,-44.1199989318848
705.2939943,-48.9500007629395
705.3096193,-54.1199989318848
705.3252443,-59.4799995422363
705.3408693,-64.620002746582
705.3564943,-68.9499969482422
705.3721193,-72.0400009155273
705.3877443,-73.9400024414063
705.4033693,-75.0599975585938
705.4189943,-75.7399978637695
705.4346193,-76.129997253418
705.4502443,-76.379997253418
705.4658693,-76.6699981689453
705.4814943,-77.1100006103516
705.4971193,-77.5599975585938
705.5127443,-78.0599975585938
705.5283693,-77.3399963378906
705.5439943,-74.4000015258789
705.5596193,-68.4899978637695
705.5752443,-59.6300010681152
705.5908693,-48.6300010681152
705.6064943,-36.7200012207031
705.6221193,-25.0699996948242
705.6377443,-14.3100004196167
705.6533693,-4.44000005722046
705.6689943,5.07999992370605
705.6846193,14.8800001144409
705.7002443,25.25
705.7158693,36.0800018310547
705.7314943,47.1199989318848
705.7471193,58.0900001525879
705.7627443,68.620002746582
705.7783693,77.8899993896484
705.7939943,84.4800033569336
705.8096193,87.0699996948242
705.8252443,85.3000030517578
705.8408693,79.9400024414063
705.8564943,72.4300003051758
705.8721193,64.1399993896484
705.8877443,56.0499992370605
705.9033693,48.6100006103516
705.9189943,41.8600006103516
705.9346193,35.6699981689453
705.9502443,29.9400005340576
705.9658693,24.6299991607666
705.9814943,19.7099990844727
705.9971193,15.0100002288818
706.0127443,10.1899995803833
706.0283693,4.94000005722046
706.0439943,-0.800000011920929
706.0596193,-6.78000020980835
706.0752443,-12.539999961853
706.0908693,-17.7999992370605
706.1064943,-22.6299991607666
706.1221193,-27.2199993133545
706.1377443,-31.5699996948242
706.1533693,-35.4300003051758
706.1689943,-38.5800018310547
706.1846193,-40.9799995422363
706.2002443,-42.810001373291
706.2158693,-44.3400001525879
706.2314943,-45.8499984741211
706.2471193,-47.5
706.2627443,-49.310001373291
706.2783693,-51.2700004577637
706.2939943,-53.4099998474121
706.3096193,-55.7999992370605
706.3252443,-58.3699989318848
706.3408693,-60.8199996948242
706.3564943,-62.5900001525879
706.3721193,-63.1599998474121
706.3877443,-62.3300018310547
706.4033693,-60.2400016784668
706.4189943,-57.189998626709
706.4346193,-53.5
706.4502443,-49.4700012207031
706.4658693,-45.3400001525879
706.4814943,-41.1300010681152
706.4971193,-36.0099983215332
706.5127443,-28.1700000762939
706.5283693,-15.9899997711182
706.5439943,0.75
706.5596193,20.8500003814697
706.5752443,42.5499992370605
706.5908693,64.4000015258789
706.6064943,85.2399978637695
706.6221193,103.660003662109
706.6377443,117.660003662109
706.6533693,125.569999694824
706.6689943,127.330001831055
706.6846193,124.360000610352
706.7002443,118.569999694824
706.7158693,111.48999786377
706.7314943,104.069999694824
706.7471193,96.7799987792969
706.7627443,89.8000030517578
706.7783693,83.0899963378906
706.7939943,76.5400009155273
706.8096193,70.0400009155273
706.8252443,63.5400009155273
706.8408693,57.060001373291
706.8564943,50.5499992370605
706.8721193,43.9700012207031
706.8877443,37.3600006103516
706.9033693,30.8500003814697
706.9189943,24.5799999237061
706.9346193,18.5900001525879
706.9502443,12.7200002670288
706.9658693,6.76000022888184
706.9814943,0.75
706.9971193,-5.07000017166138
707.0127443,-10.4499998092651
707.0283693,-15.2399997711182
707.0439943,-19.4799995422363
707.0596193,-23.3099994659424
707.0752443,-26.8999996185303
707.0908693,-30.3500003814697
707.1064943,-33.7000007629395
707.1221193,-36.9000015258789
707.1377443,-39.8899993896484
707.1533693,-42.6100006103516
707.1689943,-45.0499992370605
707.1846193,-47.2200012207031
707.2002443,-49.1100006103516
707.2158693,-50.7200012207031
707.2314943,-52.0
707.2471193,-52.560001373291
707.2627443,-51.560001373291
707.2783693,-47.9700012207031
707.2939943,-41.0999984741211
707.3096193,-30.9400005340576
707.3252443,-18.2399997711182
707.3408693,-4.21999979019165
707.3564943,9.84000015258789
707.3721193,22.9400005340576
707.3877443,34.3800010681152
707.4033693,43.6599998474121
707.4189943,50.3699989318848
707.4346193,54.3699989318848
707.4502443,56.0400009155273
707.4658693,56.2099990844727
707.4814943,55.7099990844727
707.4971193,54.8499984741211
707.5127443,53.0999984741211
707.5283693,49.9599990844727
707.5439943,45.1500015258789
707.5596193,38.9799995422363
707.5752443,32.0699996948242
707.5908693,25.0200004577637
707.6064943,18.2299995422363
707.6221193,11.9399995803833
707.6377443,6.21000003814697
707.6533693,0.990000009536743
707.6689943,-3.91000008583069
707.6846193,-8.64000034332275
707.7002443,-13.1700000762939
707.7158693,-17.2999992370605
707.7314943,-20.9099998474121
707.7471193,-23.9799995422363
707.7627443,-26.6499996185303
707.7783693,-29.2299995422363
707.7939943,-32.1500015258789
707.8096193,-35.7799987792969
707.8252443,-40.1500015258789
707.8408693,-45.1399993896484
707.8564943,-50.6199989318848
707.8721193,-56.5299987792969
707.8877443,-62.6800003051758
707.9033693,-68.5800018310547
707.9189943,-73.5199966430664
707.9346193,-77.0100021362305
707.9502443,-79.1699981689453
707.9658693,-80.5100021362305
707.9814943,-81.370002746582
707.9971193,-81.7699966430664
708.0127443,-81.620002746582
708.0283693,-80.879997253418
708.0439943,-79.6999969482422
708.0596193,-78.3899993896484
708.0752443,-77.3399963378906
708.0908693,-76.870002746582
708.1064943,-76.9899978637695
708.1221193,-77.4700012207031
708.1377443,-77.9700012207031
708.1533693,-78.2399978637695
708.1689943,-77.9599990844727
708.1846193,-76.3499984741211
708.2002443,-71.8899993896484
708.2158693,-63.2099990844727
708.2314943,-50.189998626709
708.2471193,-33.9599990844727
708.2627443,-16.1399993896484
708.2783693,1.97000002861023
708.2939943,19.4200000762939
708.3096193,35.2400016784668
708.3252443,48.2400016784668
708.3408693,57.5400009155273
708.3564943,63.2700004577637
708.3721193,66.379997253418
708.3877443,67.8300018310547
708.4033693,68.0599975585938
708.4189943,67.0299987792969
708.4346193,64.6399993896484
708.4502443,61.0099983215332
708.4658693,56.5499992370605
708.4814943,51.5900001525879
708.4971193,46.2900009155273
708.5127443,40.3899993896484
708.5283693,34.2599983215332
708.5439943,28.3199996948242
708.5596193,23.1800003051758
708.5752443,19.1800003051758
708.5908693,16.2800006866455
708.6064943,14.0799999237061
708.6221193,12.0799999237061
708.6377443,9.77000045776367
708.6533693,6.88000011444092
708.6689943,3.40000009536743
708.6846193,-0.540000021457672
708.7002443,-4.94999980926514
708.7158693,-9.85000038146973
708.7314943,-15.1499996185303
708.7471193,-20.3600006103516
708.7627443,-24.7399997711182
708.7783693,-27.7600002288818
708.7939943,-29.5
708.8096193,-30.4099998474121
708.8252443,-30.8400001525879
708.8408693,-30.8199996948242
708.8564943,-30.2999992370605
708.8721193,-29.2700004577637
708.8877443,-27.8899993896484
708.9033693,-26.4300003051758
708.9189943,-25.1700000762939
708.9346193,-24.3099994659424
708.9502443,-23.8700008392334
708.9658693,-23.8500003814697
708.9814943,-24.3199996948242
708.9971193,-25.3899993896484
709.0127443,-26.9500007629395
709.0283693,-28.5900001525879
709.0439943,-29.5900001525879
709.0596193,-29.1700000762939
709.0752443,-26.8400001525879
709.0908693,-22.5
709.1064943,-16.4400005340576
709.1221193,-9.1899995803833
709.1377443,-1.39999997615814
709.1533693,6.32000017166138
709.1689943,13.6800003051758
709.1846193,21.0499992370605
709.2002443,29.4899997711182
709.2158693,40.0800018310547
709.2314943,53.0499992370605
709.2471193,67.75
709.2627443,83.1600036621094
709.2783693,98.4100036621094
709.2939943,112.790000915527
709.3096193,125.330001831055
709.3252443,134.600006103516
709.3408693,139.309997558594
709.3564943,139.229995727539
709.3721193,135.259994506836
709.3877443,128.850006103516
709.4033693,121.330001831055
709.4189943,113.580001831055
709.4346193,105.98999786377
709.4502443,98.7099990844727
709.4658693,91.7799987792969
709.4814943,85.3300018310547
709.4971193,79.4499969482422
709.5127443,73.8399963378906
709.5283693,68.6500015258789
709.5439943,63.7400016784668
709.5596193,59.0699996948242
709.5752443,54.6399993896484
709.5908693,50.4799995422363
709.6064943,46.5299987792969
709.6221193,42.6300010681152
709.6377443,38.5099983215332
709.6533693,33.9500007629395
709.6689943,28.8799991607666
709.6846193,23.3999996185303
709.7002443,17.6100006103516
709.7158693,11.5699996948242
709.7314943,5.40999984741211
709.7471193,-0.5
709.7627443,-5.71000003814697
709.7783693,-9.84000015258789
709.7939943,-12.9399995803833
709.8096193,-15.3199996948242
709.8252443,-17.2600002288818
709.8408693,-18.8199996948242
709.8564943,-20.0100002288818
709.8721193,-20.8600006103516
709.8877443,-21.4799995422363
709.9033693,-22.0200004577637
709.9189943,-22.6800003051758
709.9346193,-23.6000003814697
709.9502443,-24.7000007629395
709.9658693,-25.4400005340576
709.9814943,-24.8099994659424
709.9971193,-21.9400005340576
710.0127443,-16.6599998474121
710.0283693,-9.59000015258789
710.0439943,-1.54999995231628
710.0596193,6.96000003814697
710.0752443,15.9700002670288
710.0908693,25.2999992370605
710.1064943,34.1100006103516
710.1221193,41.2000007629395
710.1377443,45.8600006103516
710.1533693,48.2599983215332
710.1689943,49.1399993896484
710.1846193,49.1800003051758
710.2002443,48.4799995422363
710.2158693,46.7400016784668
710.2314943,43.7900009155273
710.2471193,39.7599983215332
710.2627443,35.0
710.2783693,29.8700008392334
710.2939943,24.7000007629395
710.3096193,19.7000007629395
710.3252443,14.9399995803833
710.3408693,10.3800001144409
710.3564943,5.8899998664856
710.3721193,1.42999994754791
710.3877443,-2.89000010490417
710.4033693,-6.8600001335144
710.4189943,-10.3199996948242
710.4346193,-13.2700004577637
710.4502443,-15.8800001144409
710.4658693,-18.4099998474121
710.4814943,-21.1800003051758
710.4971193,-24.4500007629395
710.5127443,-28.2700004577637
710.5283693,-32.5299987792969
710.5439943,-37.1599998474121
710.5596193,-42.1599998474121
710.5752443,-47.3899993896484
710.5908693,-52.5
710.6064943,-56.939998626709
710.6221193,-60.3300018310547
710.6377443,-62.7400016784668
710.6533693,-64.5100021362305
710.6689943,-65.879997253418
710.6846193,-66.8499984741211
710.7002443,-67.3399963378906
710.7158693,-67.370002746582
710.7314943,-67.0500030517578
710.7471193,-66.620002746582
710.7627443,-66.3399963378906
710.7783693,-66.4100036621094
710.7939943,-66.8300018310547
710.8096193,-67.3199996948242
710.8252443,-67.4599990844727
710.8408693,-66.870002746582
710.8564943,-65.4400024414063
710.8721193,-63.1699981689453
710.8877443,-59.9500007629395
710.9033693,-55.2200012207031
710.9189943,-48.060001373291
710.9346193,-37.9500007629395
710.9502443,-25.3600006103516
710.9658693,-11.710000038147
710.9814943,1.47000002861023
710.9971193,13.210000038147
711.0127443,23.2099990844727
711.0283693,31.4300003051758
711.0439943,37.6500015258789
711.0596193,41.5800018310547
711.0752443,43.25
711.0908693,43.0400009155273
711.1064943,41.3300018310547
711.1221193,38.4199981689453
711.1377443,34.6100006103516
711.1533693,30.1499996185303
711.1689943,25.1100006103516
711.1846193,19.5300006866455
711.2002443,13.6000003814697
711.2158693,7.8600001335144
711.2314943,3.08999991416931
711.2471193,-0.0900000035762787
711.2627443,-1.5900000333786
711.2783693,-1.87999999523163
711.2939943,-1.70000004768372
711.3096193,-1.98000001907349
711.3252443,-3.6800000667572
711.3408693,-7.40000009536743
711.3564943,-13.1300001144409
711.3721193,-20.4799995422363
711.3877443,-29.1700000762939
711.4033693,-39.1199989318848
711.4189943,-49.9900016784668
711.4346193,-60.9099998474121
711.4502443,-70.6100006103516
711.4658693,-78.1600036621094
711.4814943,-83.5
711.4971193,-87.1100006103516
711.5127443,-89.4300003051758
711.5283693,-90.2200012207031
711.5439943,-89.4199981689453
711.5596193,-87.3300018310547
711.5752443,-84.5100021362305
711.5908693,-81.5899963378906
711.6064943,-79.0899963378906
711.6221193,-77.2399978637695
711.6377443,-76.0400009155273
711.6533693,-75.370002746582
711.6689943,-75.2699966430664
711.6846193,-75.8600006103516
711.7002443,-77.0599975585938
711.7158693,-78.3499984741211
711.7314943,-78.8399963378906
711.7471193,-77.620002746582
711.7627443,-74.1999969482422
711.7783693,-68.5800018310547
711.7939943,-60.9900016784668
711.8096193,-51.4099998474121
711.8252443,-39.3499984741211
711.8408693,-24.3999996185303
711.8564943,-6.92000007629395
711.8721193,11.7799997329712
711.8877443,30.0499992370605
711.9033693,46.75
711.9189943,61.7900009155273
711.9346193,75.3499984741211
711.9502443,87.0400009155273
711.9658693,96.0400009155273
711.9814943,101.910003662109
711.9971193,105.110000610352
712.0127443,106.610000610352
712.0283693,107.269996643066
712.0439943,107.300003051758
712.0596193,106.5
712.0752443,104.629997253418
712.0908693,101.809997558594
712.1064943,98.4300003051758
712.1221193,94.9199981689453
712.1377443,91.5899963378906
712.1533693,88.5199966430664
712.1689943,85.6600036621094
712.1846193,82.870002746582
712.2002443,80.0400009155273
712.2158693,77.1500015258789
712.2314943,74.2200012207031
712.2471193,71.2799987792969
712.2627443,68.379997253418
712.2783693,65.5199966430664
712.2939943,62.6199989318848
712.3096193,59.5800018310547
712.3252443,56.3199996948242
712.3408693,52.7799987792969
712.3564943,49.0299987792969
712.3721193,45.1399993896484
712.3877443,41.1300010681152
712.4033693,36.9700012207031
712.4189943,32.6800003051758
712.4346193,28.3799991607666
712.4502443,24.2800006866455
712.4658693,20.4899997711182
712.4814943,16.9300003051758
712.4971193,13.4399995803833
712.5127443,10.0100002288818
712.5283693,6.76000022888184
712.5439943,3.8199999332428
712.5596193,1.25
712.5752443,-1.0
712.5908693,-3.05999994277954
712.6064943,-5.07000017166138
712.6221193,-7.1100001335144
712.6377443,-9.05000019073486
712.6533693,-10.2399997711182
712.6689943,-9.39999961853027
712.6846193,-5.3600001335144
712.7002443,2.01999998092651
712.7158693,11.8100004196167
712.7314943,22.6800003051758
712.7471193,33.8300018310547
712.7627443,45.25
712.7783693,56.8699989318848
712.7939943,67.6500015258789
712.8096193,76.0400009155273
712.8252443,81.0800018310547
712.8408693,83.0100021362305
712.8564943,82.9100036621094
712.8721193,81.7799987792969
712.8877443,79.9400024414063
712.9033693,77.1699981689453
712.9189943,73.2300033569336
712.9346193,68.2300033569336
712.9502443,62.560001373291
712.9658693,56.689998626709
712.9814943,50.939998626709
712.9971193,45.3800010681152
713.0127443,39.7900009155273
713.0283693,33.8800010681152
713.0439943,27.5200004577637
713.0596193,20.8299999237061
713.0752443,14.1400003433228
713.0908693,7.78999996185303
713.1064943,1.98000001907349
713.1221193,-3.27999997138977
713.1377443,-8.14999961853027
713.1533693,-12.9200000762939
713.1689943,-17.9500007629395
713.1846193,-23.5300006866455
713.2002443,-29.6800003051758
713.2158693,-36.2700004577637
713.2314943,-43.1399993896484
713.2471193,-50.2200012207031
713.2627443,-57.3499984741211
713.2783693,-64.1900024414063
713.2939943,-70.2300033569336
713.3096193,-75.1100006103516
713.3252443,-78.8600006103516
713.3408693,-81.8099975585938
713.3564943,-84.1600036621094
713.3721193,-85.9700012207031
713.3877443,-87.2200012207031
713.4033693,-87.9599990844727
713.4189943,-88.3300018310547
713.4346193,-88.5599975585938
713.4502443,-88.879997253418
713.4658693,-89.4599990844727
713.4814943,-90.1999969482422
713.4971193,-90.4100036621094
713.5127443,-88.4400024414063
713.5283693,-83.6100006103516
713.5439943,-75.7799987792969
713.5596193,-65.75
713.5752443,-54.560001373291
713.5908693,-42.6699981689453
713.6064943,-29.8099994659424
713.6221193,-15.8400001525879
713.6377443,-1.76999998092651
713.6533693,10.6999998092651
713.6689943,20.3400001525879
713.6846193,27.0300006866455
713.7002443,31.5400009155273
713.7158693,34.7900009155273
713.7314943,37.2099990844727
713.7471193,38.7299995422363
713.7627443,39.2200012207031
713.7783693,38.6399993896484
713.7939943,37.0900001525879
713.8096193,34.7200012207031
713.8252443,31.7299995422363
713.8408693,28.1499996185303
713.8564943,23.7700004577637
713.8721193,18.2299995422363
713.8877443,11.5
713.9033693,4.01999998092651
713.9189943,-3.39000010490417
713.9346193,-10.0500001907349
713.9502443,-15.7399997711182
713.9658693,-20.75
713.9814943,-25.4699993133545
713.9971193,-30.1499996185303
714.0127443,-34.7700004577637
714.0283693,-39.2700004577637
714.0439943,-43.7099990844727
714.0596193,-48.2099990844727
714.0752443,-52.689998626709
714.0908693,-56.9000015258789
714.1064943,-60.5499992370605
714.1221193,-63.5499992370605
714.1377443,-66.0
714.1533693,-68.0899963378906
714.1689943,-70.0800018310547
714.1846193,-72.1500015258789
714.2002443,-74.3300018310547
714.2158693,-76.6600036621094
714.2314943,-79.2399978637695
714.2471193,-82.1999969482422
714.2627443,-85.4700012207031
714.2783693,-88.6500015258789
714.2939943,-91.1500015258789
714.3096193,-92.629997253418
714.3252443,-93.4100036621094
714.3408693,-94.129997253418
714.3564943,-95.120002746582
714.3721193,-96.2099990844727
714.3877443,-97.0100021362305
714.4033693,-97.2200012207031
714.4189943,-96.6500015258789
714.4346193,-94.6800003051758
714.4502443,-90.0400009155273
714.4658693,-81.5299987792969
714.4814943,-69.0199966430664
714.4971193,-53.5099983215332
714.5127443,-36.1599998474121
714.5283693,-18.4300003051758
714.5439943,-1.16999995708466
714.5596193,14.6599998474121
714.5752443,27.8700008392334
714.5908693,37.5699996948242
714.6064943,43.8400001525879
714.6221193,47.4500007629395
714.6377443,49.2599983215332
714.6533693,49.8199996948242
714.6689943,49.4599990844727
714.6846193,48.5299987792969
714.7002443,47.2599983215332
714.7158693,45.5
714.7314943,42.6300010681152
714.7471193,37.9799995422363
714.7627443,31.4099998474121
