Time(s),Value(℃)
1380.010146,6.5
1380.025771,6.48000001907349
1380.041396,6.46000003814697
1380.057021,6.44999980926514
1380.072646,6.42999982833862
1380.088271,6.40999984741211
1380.103896,6.3899998664856
1380.119521,6.36999988555908
1380.135146,6.34999990463257
1380.150771,6.32999992370605
1380.166396,6.30999994277954
1380.182021,6.28999996185303
1380.197646,6.26000022888184
1380.213271,6.23999977111816
1380.228896,6.21999979019165
1380.244521,6.19000005722046
1380.260146,6.17000007629395
1380.275771,6.15000009536743
1380.291396,6.13000011444092
1380.307021,6.1100001335144
1380.322646,6.09000015258789
1380.338271,6.07000017166138
1380.353896,6.05999994277954
1380.369521,6.05000019073486
1380.385146,6.03999996185303
1380.400771,6.01999998092651
1380.416396,6.01999998092651
1380.432021,6.01000022888184
1380.447646,6.0
1380.463271,6.0
1380.478896,5.98999977111816
1380.494521,5.98999977111816
1380.510146,5.98999977111816
1380.525771,5.98999977111816
1380.541396,5.98999977111816
1380.557021,5.98999977111816
1380.572646,5.98999977111816
1380.588271,5.98999977111816
1380.603896,6.0
1380.619521,6.0
1380.635146,6.0
1380.650771,6.01000022888184
1380.666396,6.01000022888184
1380.682021,6.01999998092651
1380.697646,6.01999998092651
1380.713271,6.03000020980835
1380.728896,6.03999996185303
1380.744521,6.05000019073486
1380.760146,6.05999994277954
1380.775771,6.07999992370605
1380.791396,6.09000015258789
1380.807021,6.1100001335144
1380.822646,6.11999988555908
1380.838271,6.1399998664856
1380.853896,6.15999984741211
1380.869521,6.17999982833862
1380.885146,6.19000005722046
1380.900771,6.21000003814697
1380.916396,6.23000001907349
1380.932021,6.26000022888184
1380.947646,6.28000020980835
1380.963271,6.30000019073486
1380.978896,6.32999992370605
1380.994521,6.3600001335144
1381.010146,6.38000011444092
1381.025771,6.40999984741211
1381.041396,6.44000005722046
1381.057021,6.46999979019165
1381.072646,6.5
1381.088271,6.53000020980835
1381.103896,6.55999994277954
1381.119521,6.59000015258789
1381.135146,6.61999988555908
1381.150771,6.65999984741211
1381.166396,6.69000005722046
1381.182021,6.71999979019165
1381.197646,6.76000022888184
1381.213271,6.78999996185303
1381.228896,6.82000017166138
1381.244521,6.84999990463257
1381.260146,6.86999988555908
1381.275771,6.90000009536743
1381.291396,6.92000007629395
1381.307021,6.94999980926514
1381.322646,6.96999979019165
1381.338271,6.98999977111816
1381.353896,7.01000022888184
1381.369521,7.03000020980835
1381.385146,7.05000019073486
1381.400771,7.07000017166138
1381.416396,7.09000015258789
1381.432021,7.09999990463257
1381.447646,7.11999988555908
1381.463271,7.13000011444092
1381.478896,7.15000009536743
1381.494521,7.15999984741211
1381.510146,7.17999982833862
1381.525771,7.19000005722046
1381.541396,7.19999980926514
1381.557021,7.21000003814697
1381.572646,7.21999979019165
1381.588271,7.23000001907349
1381.603896,7.23999977111816
1381.619521,7.25
1381.635146,7.26000022888184
1381.650771,7.26999998092651
1381.666396,7.28000020980835
1381.682021,7.28000020980835
1381.697646,7.28999996185303
1381.713271,7.28999996185303
1381.728896,7.30000019073486
1381.744521,7.30000019073486
1381.760146,7.30999994277954
1381.775771,7.30999994277954
1381.791396,7.30999994277954
1381.807021,7.30999994277954
1381.822646,7.30999994277954
1381.838271,7.30999994277954
1381.853896,7.32000017166138
1381.869521,7.32000017166138
1381.885146,7.32000017166138
1381.900771,7.32000017166138
1381.916396,7.32000017166138
1381.932021,7.32000017166138
1381.947646,7.32000017166138
1381.963271,7.32000017166138
1381.978896,7.32000017166138
1381.994521,7.32000017166138
1382.010146,7.32000017166138
1382.025771,7.32000017166138
1382.041396,7.32000017166138
1382.057021,7.32000017166138
1382.072646,7.32000017166138
1382.088271,7.32000017166138
1382.103896,7.32000017166138
1382.119521,7.32000017166138
1382.135146,7.32000017166138
1382.150771,7.32000017166138
1382.166396,7.32000017166138
1382.182021,7.32000017166138
1382.197646,7.32000017166138
1382.213271,7.32000017166138
1382.228896,7.32000017166138
1382.244521,7.32000017166138
1382.260146,7.32000017166138
1382.275771,7.30999994277954
1382.291396,7.30999994277954
1382.307021,7.30999994277954
1382.322646,7.30999994277954
1382.338271,7.30999994277954
1382.353896,7.30999994277954
1382.369521,7.30999994277954
1382.385146,7.30000019073486
1382.400771,7.30000019073486
1382.416396,7.30000019073486
1382.432021,7.30000019073486
1382.447646,7.28999996185303
1382.463271,7.28999996185303
1382.478896,7.28999996185303
1382.494521,7.28000020980835
1382.510146,7.28000020980835
1382.525771,7.28000020980835
1382.541396,7.28000020980835
1382.557021,7.26999998092651
1382.572646,7.26999998092651
1382.588271,7.26999998092651
1382.603896,7.26999998092651
1382.619521,7.26999998092651
1382.635146,7.26999998092651
1382.650771,7.26999998092651
1382.666396,7.26999998092651
1382.682021,7.26999998092651
1382.697646,7.26999998092651
1382.713271,7.26999998092651
1382.728896,7.26999998092651
1382.744521,7.26999998092651
1382.760146,7.26999998092651
1382.775771,7.28000020980835
1382.791396,7.28000020980835
1382.807021,7.28000020980835
1382.822646,7.28999996185303
1382.838271,7.28999996185303
1382.853896,7.30000019073486
1382.869521,7.30000019073486
1382.885146,7.30999994277954
1382.900771,7.30999994277954
1382.916396,7.32000017166138
1382.932021,7.32000017166138
1382.947646,7.32999992370605
1382.963271,7.32999992370605
1382.978896,7.34000015258789
1382.994521,7.34000015258789
1383.010146,7.34000015258789
1383.025771,7.34999990463257
1383.041396,7.34999990463257
1383.057021,7.34999990463257
1383.072646,7.34999990463257
1383.088271,7.3600001335144
1383.103896,7.3600001335144
1383.119521,7.3600001335144
1383.135146,7.3600001335144
1383.150771,7.3600001335144
1383.166396,7.3600001335144
1383.182021,7.3600001335144
1383.197646,7.3600001335144
1383.213271,7.3600001335144
1383.228896,7.3600001335144
1383.244521,7.3600001335144
1383.260146,7.3600001335144
1383.275771,7.3600001335144
1383.291396,7.3600001335144
1383.307021,7.34999990463257
1383.322646,7.34999990463257
1383.338271,7.34999990463257
1383.353896,7.34999990463257
1383.369521,7.34999990463257
1383.385146,7.34000015258789
1383.400771,7.34000015258789
1383.416396,7.34000015258789
1383.432021,7.34000015258789
1383.447646,7.32999992370605
1383.463271,7.32999992370605
1383.478896,7.32999992370605
1383.494521,7.32000017166138
1383.510146,7.32000017166138
1383.525771,7.32000017166138
1383.541396,7.30999994277954
1383.557021,7.30999994277954
1383.572646,7.30999994277954
1383.588271,7.30000019073486
1383.603896,7.30000019073486
1383.619521,7.28999996185303
1383.635146,7.28000020980835
1383.650771,7.28000020980835
1383.666396,7.26999998092651
1383.682021,7.26999998092651
1383.697646,7.26000022888184
1383.713271,7.26000022888184
1383.728896,7.25
1383.744521,7.25
1383.760146,7.23999977111816
1383.775771,7.23999977111816
1383.791396,7.23000001907349
1383.807021,7.21999979019165
1383.822646,7.21999979019165
1383.838271,7.21000003814697
1383.853896,7.21000003814697
1383.869521,7.19999980926514
1383.885146,7.19999980926514
1383.900771,7.19000005722046
1383.916396,7.17999982833862
1383.932021,7.17999982833862
1383.947646,7.17000007629395
1383.963271,7.17000007629395
1383.978896,7.15999984741211
1383.994521,7.15999984741211
1384.010146,7.15999984741211
1384.025771,7.15000009536743
1384.041396,7.15000009536743
1384.057021,7.1399998664856
1384.072646,7.1399998664856
1384.088271,7.13000011444092
1384.103896,7.13000011444092
1384.119521,7.11999988555908
1384.135146,7.11999988555908
1384.150771,7.1100001335144
1384.166396,7.09999990463257
1384.182021,7.09999990463257
1384.197646,7.09000015258789
1384.213271,7.07999992370605
1384.228896,7.07000017166138
1384.244521,7.05999994277954
1384.260146,7.05000019073486
1384.275771,7.03999996185303
1384.291396,7.03000020980835
1384.307021,7.01999998092651
1384.322646,7.01000022888184
1384.338271,6.98999977111816
1384.353896,6.98000001907349
1384.369521,6.96000003814697
1384.385146,6.94999980926514
1384.400771,6.92999982833862
1384.416396,6.90999984741211
1384.432021,6.90000009536743
1384.447646,6.88000011444092
1384.463271,6.8600001335144
1384.478896,6.84000015258789
1384.494521,6.82999992370605
1384.510146,6.80999994277954
1384.525771,6.78999996185303
1384.541396,6.76999998092651
1384.557021,6.75
1384.572646,6.71999979019165
1384.588271,6.69999980926514
1384.603896,6.67999982833862
1384.619521,6.65999984741211
1384.635146,6.63000011444092
1384.650771,6.6100001335144
1384.666396,6.57999992370605
1384.682021,6.55999994277954
1384.697646,6.53000020980835
1384.713271,6.51000022888184
1384.728896,6.48000001907349
1384.744521,6.44999980926514
1384.760146,6.42999982833862
1384.775771,6.40000009536743
1384.791396,6.36999988555908
1384.807021,6.34000015258789
1384.822646,6.32000017166138
1384.838271,6.28999996185303
1384.853896,6.26000022888184
1384.869521,6.23000001907349
1384.885146,6.19999980926514
1384.900771,6.17999982833862
1384.916396,6.15000009536743
1384.932021,6.11999988555908
1384.947646,6.09000015258789
1384.963271,6.05999994277954
1384.978896,6.03999996185303
1384.994521,6.01000022888184
1385.010146,5.98000001907349
1385.025771,5.94999980926514
1385.041396,5.92000007629395
1385.057021,5.90000009536743
1385.072646,5.86999988555908
1385.088271,5.84000015258789
1385.103896,5.82000017166138
1385.119521,5.78999996185303
1385.135146,5.76999998092651
1385.150771,5.75
1385.166396,5.71999979019165
1385.182021,5.69999980926514
1385.197646,5.67999982833862
1385.213271,5.65999984741211
1385.228896,5.6399998664856
1385.244521,5.61999988555908
1385.260146,5.6100001335144
1385.275771,5.59000015258789
1385.291396,5.57999992370605
1385.307021,5.55999994277954
1385.322646,5.55000019073486
1385.338271,5.53000020980835
1385.353896,5.51000022888184
1385.369521,5.5
1385.385146,5.48000001907349
1385.400771,5.46000003814697
1385.416396,5.44999980926514
1385.432021,5.42999982833862
1385.447646,5.40999984741211
1385.463271,5.40000009536743
1385.478896,5.38000011444092
1385.494521,5.3600001335144
1385.510146,5.34999990463257
1385.525771,5.32999992370605
1385.541396,5.30999994277954
1385.557021,5.30000019073486
1385.572646,5.28000020980835
1385.588271,5.26999998092651
1385.603896,5.25
1385.619521,5.23999977111816
1385.635146,5.23000001907349
1385.650771,5.21000003814697
1385.666396,5.19999980926514
1385.682021,5.19000005722046
1385.697646,5.17999982833862
1385.713271,5.17000007629395
1385.728896,5.15000009536743
1385.744521,5.1399998664856
1385.760146,5.13000011444092
1385.775771,5.11999988555908
1385.791396,5.1100001335144
1385.807021,5.09000015258789
1385.822646,5.07999992370605
1385.838271,5.05999994277954
1385.853896,5.05000019073486
1385.869521,5.03000020980835
1385.885146,5.01999998092651
1385.900771,5.0
1385.916396,4.98999977111816
1385.932021,4.96999979019165
1385.947646,4.96000003814697
1385.963271,4.94000005722046
1385.978896,4.92999982833862
1385.994521,4.90999984741211
1386.010146,4.90000009536743
1386.025771,4.8899998664856
1386.041396,4.86999988555908
1386.057021,4.8600001335144
1386.072646,4.84999990463257
1386.088271,4.84000015258789
1386.103896,4.82999992370605
1386.119521,4.82999992370605
1386.135146,4.82000017166138
1386.150771,4.80999994277954
1386.166396,4.80999994277954
1386.182021,4.80000019073486
1386.197646,4.80000019073486
1386.213271,4.78999996185303
1386.228896,4.78999996185303
1386.244521,4.78000020980835
1386.260146,4.78000020980835
1386.275771,4.78000020980835
1386.291396,4.78000020980835
1386.307021,4.78000020980835
1386.322646,4.78000020980835
1386.338271,4.78999996185303
1386.353896,4.78999996185303
1386.369521,4.78999996185303
1386.385146,4.80000019073486
1386.400771,4.80000019073486
1386.416396,4.80999994277954
1386.432021,4.80999994277954
1386.447646,4.82000017166138
1386.463271,4.82000017166138
1386.478896,4.82000017166138
1386.494521,4.82999992370605
1386.510146,4.82999992370605
1386.525771,4.82999992370605
1386.541396,4.82000017166138
1386.557021,4.82000017166138
1386.572646,4.82000017166138
1386.588271,4.80999994277954
1386.603896,4.80000019073486
1386.619521,4.80000019073486
1386.635146,4.78999996185303
1386.650771,4.76999998092651
1386.666396,4.76000022888184
1386.682021,4.75
1386.697646,4.73999977111816
1386.713271,4.73000001907349
1386.728896,4.71999979019165
1386.744521,4.71000003814697
1386.760146,4.69999980926514
1386.775771,4.69000005722046
1386.791396,4.69000005722046
1386.807021,4.67999982833862
1386.822646,4.67000007629395
1386.838271,4.67000007629395
1386.853896,4.65999984741211
1386.869521,4.65999984741211
1386.885146,4.65999984741211
1386.900771,4.65000009536743
1386.916396,4.65000009536743
1386.932021,4.65000009536743
1386.947646,4.6399998664856
1386.963271,4.6399998664856
1386.978896,4.63000011444092
1386.994521,4.61999988555908
1387.010146,4.6100001335144
1387.025771,4.6100001335144
1387.041396,4.59999990463257
1387.057021,4.59000015258789
1387.072646,4.57000017166138
1387.088271,4.55999994277954
1387.103896,4.55000019073486
1387.119521,4.53999996185303
1387.135146,4.51999998092651
1387.150771,4.51000022888184
1387.166396,4.48999977111816
1387.182021,4.46999979019165
1387.197646,4.46000003814697
1387.213271,4.44000005722046
1387.228896,4.40999984741211
1387.244521,4.3899998664856
1387.260146,4.3600001335144
1387.275771,4.34000015258789
1387.291396,4.30999994277954
1387.307021,4.28000020980835
1387.322646,4.25
1387.338271,4.21000003814697
1387.353896,4.17999982833862
1387.369521,4.15000009536743
1387.385146,4.11999988555908
1387.400771,4.09000015258789
1387.416396,4.05999994277954
1387.432021,4.03000020980835
1387.447646,4.0
1387.463271,3.98000001907349
1387.478896,3.95000004768372
1387.494521,3.9300000667572
1387.510146,3.91000008583069
1387.525771,3.89000010490417
1387.541396,3.86999988555908
1387.557021,3.85999989509583
1387.572646,3.83999991416931
1387.588271,3.82999992370605
1387.603896,3.80999994277954
1387.619521,3.79999995231628
1387.635146,3.77999997138977
1387.650771,3.76999998092651
1387.666396,3.75
1387.682021,3.74000000953674
1387.697646,3.72000002861023
1387.713271,3.71000003814697
1387.728896,3.69000005722046
1387.744521,3.67000007629395
1387.760146,3.66000008583069
1387.775771,3.64000010490417
1387.791396,3.61999988555908
1387.807021,3.59999990463257
1387.822646,3.57999992370605
1387.838271,3.5699999332428
1387.853896,3.54999995231628
1387.869521,3.52999997138977
1387.885146,3.50999999046326
1387.900771,3.49000000953674
1387.916396,3.47000002861023
1387.932021,3.45000004768372
1387.947646,3.44000005722046
1387.963271,3.42000007629395
1387.978896,3.40000009536743
1387.994521,3.38000011444092
1388.010146,3.35999989509583
1388.025771,3.34999990463257
1388.041396,3.32999992370605
1388.057021,3.30999994277954
1388.072646,3.29999995231628
1388.088271,3.27999997138977
1388.103896,3.25999999046326
1388.119521,3.24000000953674
1388.135146,3.22000002861023
1388.150771,3.20000004768372
1388.166396,3.1800000667572
1388.182021,3.16000008583069
1388.197646,3.13000011444092
1388.213271,3.10999989509583
1388.228896,3.09999990463257
1388.244521,3.07999992370605
1388.260146,3.05999994277954
1388.275771,3.04999995231628
1388.291396,3.03999996185303
1388.307021,3.01999998092651
1388.322646,3.00999999046326
1388.338271,3.0
1388.353896,2.98000001907349
1388.369521,2.97000002861023
1388.385146,2.95000004768372
1388.400771,2.9300000667572
1388.416396,2.91000008583069
1388.432021,2.88000011444092
1388.447646,2.84999990463257
1388.463271,2.82999992370605
1388.478896,2.79999995231628
1388.494521,2.75999999046326
1388.510146,2.73000001907349
1388.525771,2.70000004768372
1388.541396,2.66000008583069
1388.557021,2.63000011444092
1388.572646,2.59999990463257
1388.588271,2.55999994277954
1388.603896,2.52999997138977
1388.619521,2.49000000953674
1388.635146,2.46000003814697
1388.650771,2.42000007629395
1388.666396,2.39000010490417
1388.682021,2.35999989509583
1388.697646,2.32999992370605
1388.713271,2.30999994277954
1388.728896,2.27999997138977
1388.744521,2.25999999046326
1388.760146,2.24000000953674
1388.775771,2.22000002861023
1388.791396,2.20000004768372
1388.807021,2.1800000667572
1388.822646,2.16000008583069
1388.838271,2.14000010490417
1388.853896,2.11999988555908
1388.869521,2.09999990463257
1388.885146,2.07999992370605
1388.900771,2.05999994277954
1388.916396,2.03999996185303
1388.932021,2.00999999046326
1388.947646,1.98000001907349
1388.963271,1.95000004768372
1388.978896,1.91999995708466
1388.994521,1.88999998569489
1389.010146,1.86000001430511
1389.025771,1.83000004291534
1389.041396,1.79999995231628
1389.057021,1.77999997138977
1389.072646,1.75999999046326
1389.088271,1.74000000953674
1389.103896,1.73000001907349
1389.119521,1.71000003814697
1389.135146,1.70000004768372
1389.150771,1.69000005722046
1389.166396,1.69000005722046
1389.182021,1.67999994754791
1389.197646,1.66999995708466
1389.213271,1.64999997615814
1389.228896,1.63999998569489
1389.244521,1.62999999523163
1389.260146,1.62000000476837
1389.275771,1.61000001430511
1389.291396,1.60000002384186
1389.307021,1.5900000333786
1389.322646,1.5900000333786
1389.338271,1.5900000333786
1389.353896,1.5900000333786
1389.369521,1.60000002384186
1389.385146,1.61000001430511
1389.400771,1.62000000476837
1389.416396,1.62999999523163
1389.432021,1.64999997615814
1389.447646,1.6599999666214
1389.463271,1.67999994754791
1389.478896,1.70000004768372
1389.494521,1.72000002861023
1389.510146,1.74000000953674
1389.525771,1.75999999046326
1389.541396,1.77999997138977
1389.557021,1.80999994277954
1389.572646,1.83000004291534
1389.588271,1.85000002384186
1389.603896,1.87000000476837
1389.619521,1.87999999523163
1389.635146,1.89999997615814
1389.650771,1.9099999666214
1389.666396,1.91999995708466
1389.682021,1.91999995708466
1389.697646,1.92999994754791
1389.713271,1.94000005722046
1389.728896,1.94000005722046
1389.744521,1.95000004768372
1389.760146,1.95000004768372
1389.775771,1.96000003814697
1389.791396,1.97000002861023
1389.807021,1.97000002861023
1389.822646,1.98000001907349
1389.838271,1.99000000953674
1389.853896,2.0
1389.869521,2.00999999046326
1389.885146,2.01999998092651
1389.900771,2.02999997138977
1389.916396,2.04999995231628
1389.932021,2.0699999332428
1389.947646,2.07999992370605
1389.963271,2.09999990463257
1389.978896,2.10999989509583
1389.994521,2.13000011444092
1390.010146,2.14000010490417
1390.025771,2.15000009536743
1390.041396,2.16000008583069
1390.057021,2.17000007629395
1390.072646,2.17000007629395
1390.088271,2.1800000667572
1390.103896,2.19000005722046
1390.119521,2.19000005722046
1390.135146,2.20000004768372
1390.150771,2.20000004768372
1390.166396,2.21000003814697
1390.182021,2.22000002861023
1390.197646,2.22000002861023
1390.213271,2.23000001907349
1390.228896,2.24000000953674
1390.244521,2.24000000953674
1390.260146,2.24000000953674
1390.275771,2.25
1390.291396,2.25
1390.307021,2.25
1390.322646,2.25999999046326
1390.338271,2.25999999046326
1390.353896,2.25999999046326
1390.369521,2.25999999046326
1390.385146,2.26999998092651
1390.400771,2.26999998092651
1390.416396,2.26999998092651
1390.432021,2.27999997138977
1390.447646,2.27999997138977
1390.463271,2.27999997138977
1390.478896,2.27999997138977
1390.494521,2.28999996185303
1390.510146,2.28999996185303
1390.525771,2.29999995231628
1390.541396,2.29999995231628
1390.557021,2.30999994277954
1390.572646,2.3199999332428
1390.588271,2.32999992370605
1390.603896,2.33999991416931
1390.619521,2.33999991416931
1390.635146,2.34999990463257
1390.650771,2.35999989509583
1390.666396,2.35999989509583
1390.682021,2.36999988555908
1390.697646,2.36999988555908
1390.713271,2.36999988555908
1390.728896,2.38000011444092
1390.744521,2.38000011444092
1390.760146,2.38000011444092
1390.775771,2.39000010490417
1390.791396,2.39000010490417
1390.807021,2.40000009536743
1390.822646,2.40000009536743
1390.838271,2.41000008583069
1390.853896,2.41000008583069
1390.869521,2.42000007629395
1390.885146,2.42000007629395
1390.900771,2.4300000667572
1390.916396,2.44000005722046
1390.932021,2.44000005722046
1390.947646,2.45000004768372
