Time(s),Value(%)
1196.0041916,-105.319999694824
1196.0198166,-111.099998474121
1196.0354416,-114.860000610352
1196.0510666,-117.449996948242
1196.0666916,-119.410003662109
1196.0823166,-120.51000213623
1196.0979416,-120.690002441406
1196.1135666,-119.860000610352
1196.1291916,-118.150001525879
1196.1448166,-115.569999694824
1196.1604416,-111.73999786377
1196.1760666,-106.190002441406
1196.1916916,-98.9199981689453
1196.2073166,-90.5899963378906
1196.2229416,-82.2799987792969
1196.2385666,-74.9499969482422
1196.2541916,-69.0299987792969
1196.2698166,-64.379997253418
1196.2854416,-60.6800003051758
1196.3010666,-57.8300018310547
1196.3166916,-56.0900001525879
1196.3323166,-55.689998626709
1196.3479416,-56.3300018310547
1196.3635666,-57.2900009155273
1196.3791916,-57.8199996948242
1196.3948166,-57.5499992370605
1196.4104416,-56.5699996948242
1196.4260666,-55.3499984741211
1196.4416916,-54.5800018310547
1196.4573166,-54.8199996948242
1196.4729416,-56.1800003051758
1196.4885666,-58.5900001525879
1196.5041916,-62.0900001525879
1196.5198166,-66.7300033569336
1196.5354416,-72.2600021362305
1196.5510666,-77.7099990844727
1196.5666916,-81.5699996948242
1196.5823166,-82.7399978637695
1196.5979416,-81.4100036621094
1196.6135666,-78.5999984741211
1196.6291916,-75.129997253418
1196.6448166,-71.1999969482422
1196.6604416,-66.6699981689453
1196.6760666,-61.4900016784668
1196.6916916,-55.8300018310547
1196.7073166,-50.0400009155273
1196.7229416,-44.4599990844727
1196.7385666,-39.310001373291
1196.7541916,-34.5699996948242
1196.7698166,-29.8099994659424
1196.7854416,-24.2700004577637
1196.8010666,-17.2700004577637
1196.8166916,-8.64999961853027
1196.8323166,1.37000000476837
1196.8479416,12.6800003051758
1196.8635666,25.4500007629395
1196.8791916,39.8899993896484
1196.8948166,55.7000007629395
1196.9104416,71.7300033569336
1196.9260666,86.4899978637695
1196.9416916,98.9700012207031
1196.9573166,109.069999694824
1196.9729416,117.309997558594
1196.9885666,124.199996948242
1197.0041916,129.759994506836
1197.0198166,133.690002441406
1197.0354416,135.839996337891
1197.0510666,136.440002441406
1197.0666916,135.929992675781
1197.0823166,133.779998779297
1197.0979416,131.369995117188
1197.1135666,128.940002441406
1197.1291916,126.580001831055
1197.1448166,124.169998168945
1197.1604416,121.480003356934
1197.1760666,118.319999694824
1197.1916916,114.790000915527
1197.2073166,111.209999084473
1197.2229416,107.889999389648
1197.2385666,104.980003356934
1197.2541916,102.389999389648
1197.2698166,99.8199996948242
1197.2854416,96.8600006103516
1197.3010666,93.1699981689453
1197.3166916,88.6900024414063
1197.3323166,83.5100021362305
1197.3479416,77.6500015258789
1197.3635666,71.120002746582
1197.3791916,64.0800018310547
1197.3948166,57.0900001525879
1197.4104416,51.0299987792969
1197.4260666,46.7700004577637
1197.4416916,44.75
1197.4573166,44.9500007629395
1197.4729416,47.0200004577637
1197.4885666,50.4199981689453
1197.5041916,54.5200004577637
1197.5198166,58.7400016784668
1197.5354416,62.6399993896484
1197.5510666,66.120002746582
1197.5666916,69.3399963378906
1197.5823166,72.5699996948242
1197.5979416,75.9400024414063
1197.6135666,79.3899993896484
1197.6291916,82.7200012207031
1197.6448166,85.7200012207031
1197.6604416,88.2099990844727
1197.6760666,89.9300003051758
1197.6916916,90.4100036621094
1197.7073166,89.2600021362305
1197.7229416,86.4899978637695
1197.7385666,82.4800033569336
1197.7541916,77.7399978637695
1197.7698166,72.620002746582
1197.7854416,67.3300018310547
1197.8010666,61.9599990844727
1197.8166916,56.6500015258789
1197.8323166,51.5999984741211
1197.8479416,46.9000015258789
1197.8635666,42.5
1197.8791916,38.1699981689453
1197.8948166,33.7400016784668
1197.9104416,29.2099990844727
1197.9260666,24.7399997711182
1197.9416916,20.5200004577637
1197.9573166,16.6599998474121
1197.9729416,13.1000003814697
1197.9885666,9.64999961853027
1198.0041916,6.0
1198.0198166,1.9099999666214
1198.0354416,-2.60999989509583
1198.0510666,-7.17000007629395
1198.0666916,-11.0500001907349
1198.0823166,-13.5600004196167
1198.0979416,-14.5799999237061
1198.1135666,-14.2200002670288
1198.1291916,-12.5
1198.1448166,-8.81999969482422
1198.1604416,-2.1800000667572
1198.1760666,7.92999982833862
1198.1916916,20.75
1198.2073166,34.4000015258789
1198.2229416,47.0299987792969
1198.2385666,57.5800018310547
1198.2541916,65.9300003051758
1198.2698166,72.4000015258789
1198.2854416,77.1800003051758
1198.3010666,80.3199996948242
1198.3166916,81.9199981689453
1198.3323166,82.3000030517578
1198.3479416,81.8499984741211
1198.3635666,80.9300003051758
1198.3791916,79.6800003051758
1198.3948166,77.8300018310547
1198.4104416,74.6100006103516
1198.4260666,69.2099990844727
1198.4416916,61.3300018310547
1198.4573166,51.4500007629395
1198.4729416,40.5999984741211
1198.4885666,29.8999996185303
1198.5041916,20.0799999237061
1198.5198166,11.3299999237061
1198.5354416,3.44000005722046
1198.5510666,-4.07000017166138
1198.5666916,-11.7799997329712
1198.5823166,-20.0599994659424
1198.5979416,-28.8999996185303
1198.6135666,-37.9799995422363
1198.6291916,-46.8499984741211
1198.6448166,-55.1500015258789
1198.6604416,-62.7299995422363
1198.6760666,-69.6399993896484
1198.6916916,-76.0199966430664
1198.7073166,-82.0
1198.7229416,-87.629997253418
1198.7385666,-92.7799987792969
1198.7541916,-97.129997253418
1198.7698166,-100.400001525879
1198.7854416,-102.5
1198.8010666,-103.400001525879
1198.8166916,-102.930000305176
1198.8323166,-100.629997253418
1198.8479416,-96.0899963378906
1198.8635666,-89.3600006103516
1198.8791916,-81.25
1198.8948166,-72.8199996948242
1198.9104416,-64.8099975585938
1198.9260666,-57.3600006103516
1198.9416916,-50.3300018310547
1198.9573166,-43.8300018310547
1198.9729416,-38.3600006103516
1198.9885666,-34.4500007629395
1199.0041916,-32.1300010681152
1199.0198166,-30.9400005340576
1199.0354416,-30.4500007629395
1199.0510666,-30.4099998474121
1199.0666916,-30.7299995422363
1199.0823166,-31.1200008392334
1199.0979416,-31.6599998474121
1199.1135666,-32.1199989318848
1199.1291916,-32.2099990844727
1199.1448166,-31.7099990844727
1199.1604416,-30.5900001525879
1199.1760666,-28.9300003051758
1199.1916916,-26.7700004577637
1199.2073166,-24.1399993896484
1199.2229416,-21.1599998474121
1199.2385666,-18.25
1199.2541916,-16.0200004577637
1199.2698166,-15.0
1199.2854416,-15.2600002288818
1199.3010666,-16.5300006866455
1199.3166916,-18.4699993133545
1199.3323166,-20.8400001525879
1199.3479416,-23.4799995422363
1199.3635666,-26.2399997711182
1199.3791916,-28.8600006103516
1199.3948166,-30.8700008392334
1199.4104416,-31.4599990844727
1199.4260666,-29.9400005340576
1199.4416916,-26.1399993896484
1199.4573166,-19.9799995422363
1199.4729416,-10.960000038147
1199.4885666,1.41999995708466
1199.5041916,16.8299999237061
1199.5198166,33.5499992370605
1199.5354416,49.1699981689453
1199.5510666,61.9599990844727
1199.5666916,71.7900009155273
1199.5823166,79.3099975585938
1199.5979416,84.5500030517578
1199.6135666,86.8300018310547
1199.6291916,85.8099975585938
1199.6448166,82.0199966430664
1199.6604416,76.5999984741211
1199.6760666,70.4800033569336
1199.6916916,63.8600006103516
1199.7073166,56.3800010681152
1199.7229416,47.810001373291
1199.7385666,38.2999992370605
1199.7541916,28.2900009155273
1199.7698166,18.2999992370605
1199.7854416,8.69999980926514
1199.8010666,-0.370000004768372
1199.8166916,-9.05000019073486
1199.8323166,-17.6000003814697
1199.8479416,-26.3199996948242
1199.8635666,-35.3199996948242
1199.8791916,-44.4199981689453
1199.8948166,-53.4500007629395
1199.9104416,-62.4099998474121
1199.9260666,-71.5100021362305
1199.9416916,-80.8099975585938
1199.9573166,-90.0299987792969
1199.9729416,-98.6900024414063
1199.9885666,-106.51000213623
1200.0041916,-113.690002441406
1200.0198166,-120.569999694824
1200.0354416,-127.180000305176
1200.0510666,-133.130004882813
1200.0666916,-138.020004272461
1200.0823166,-141.229995727539
1200.0979416,-143.440002441406
1200.1135666,-144.910003662109
1200.1291916,-145.729995727539
1200.1448166,-145.880004882813
1200.1604416,-145.369995117188
1200.1760666,-144.350006103516
1200.1916916,-143.070007324219
1200.2073166,-141.800003051758
1200.2229416,-140.619995117188
1200.2385666,-139.369995117188
1200.2541916,-137.729995727539
1200.2698166,-135.570007324219
1200.2854416,-133.169998168945
1200.3010666,-131.050003051758
1200.3166916,-129.490005493164
1200.3323166,-128.389999389648
1200.3479416,-127.400001525879
1200.3635666,-126.169998168945
1200.3791916,-124.559997558594
1200.3948166,-122.790000915527
1200.4104416,-121.370002746582
1200.4260666,-120.800003051758
1200.4416916,-121.26000213623
1200.4573166,-122.669998168945
1200.4729416,-125.01000213623
1200.4885666,-128.279998779297
1200.5041916,-132.190002441406
1200.5198166,-135.899993896484
1200.5354416,-138.149993896484
1200.5510666,-138.080001831055
1200.5666916,-135.919998168945
1200.5823166,-132.600006103516
1200.5979416,-128.820007324219
1200.6135666,-124.669998168945
1200.6291916,-119.959999084473
1200.6448166,-114.569999694824
1200.6604416,-108.669998168945
1200.6760666,-102.650001525879
1200.6916916,-97.0500030517578
1200.7073166,-92.2900009155273
1200.7229416,-88.4599990844727
1200.7385666,-85.4400024414063
1200.7541916,-83.1500015258789
1200.7698166,-81.5599975585938
1200.7854416,-80.4400024414063
1200.8010666,-79.1100006103516
1200.8166916,-76.4599990844727
1200.8323166,-71.5299987792969
1200.8479416,-64.1999969482422
1200.8635666,-55.0800018310547
1200.8791916,-44.939998626709
1200.8948166,-34.3800010681152
1200.9104416,-23.7600002288818
1200.9260666,-13.289999961853
1200.9416916,-3.14000010490417
1200.9573166,6.40999984741211
1200.9729416,15.0100002288818
1200.9885666,22.3600006103516
1201.0041916,28.4099998474121
1201.0198166,33.2799987792969
1201.0354416,37.060001373291
1201.0510666,39.7999992370605
1201.0666916,41.689998626709
1201.0823166,42.9799995422363
1201.0979416,44.7000007629395
1201.1135666,47.3499984741211
1201.1291916,50.75
1201.1448166,54.4000015258789
1201.1604416,58.0
1201.1760666,61.6399993896484
1201.1916916,65.5299987792969
1201.2073166,69.7200012207031
1201.2229416,74.0800018310547
1201.2385666,78.3099975585938
1201.2541916,82.0899963378906
1201.2698166,85.1600036621094
1201.2854416,87.5100021362305
1201.3010666,89.1500015258789
1201.3166916,90.0299987792969
1201.3323166,90.0599975585938
1201.3479416,89.3600006103516
1201.3635666,88.4400024414063
1201.3791916,88.0999984741211
1201.3948166,88.9599990844727
1201.4104416,91.0
1201.4260666,93.8000030517578
1201.4416916,96.9300003051758
1201.4573166,100.26000213623
1201.4729416,103.73999786377
1201.4885666,107.339996337891
1201.5041916,110.940002441406
1201.5198166,114.519996643066
1201.5354416,118.209999084473
1201.5510666,122.160003662109
1201.5666916,126.419998168945
1201.5823166,130.759994506836
1201.5979416,134.809997558594
1201.6135666,138.259994506836
1201.6291916,140.949996948242
1201.6448166,142.960006713867
1201.6604416,144.429992675781
1201.6760666,145.440002441406
1201.6916916,145.910003662109
1201.7073166,145.789993286133
1201.7229416,145.169998168945
1201.7385666,144.300003051758
1201.7541916,143.399993896484
1201.7698166,142.600006103516
1201.7854416,141.860000610352
1201.8010666,141.039993286133
1201.8166916,139.960006713867
1201.8323166,138.5
1201.8479416,136.610000610352
1201.8635666,134.320007324219
1201.8791916,131.589996337891
1201.8948166,128.369995117188
1201.9104416,124.730003356934
1201.9260666,120.949996948242
1201.9416916,117.480003356934
1201.9573166,114.599998474121
1201.9729416,112.220001220703
1201.9885666,110.0
1202.0041916,107.709999084473
1202.0198166,105.360000610352
1202.0354416,103.089996337891
1202.0510666,100.98999786377
1202.0666916,99.0400009155273
1202.0823166,96.7799987792969
1202.0979416,94.6699981689453
1202.1135666,92.7200012207031
1202.1291916,90.9400024414063
1202.1448166,89.4300003051758
1202.1604416,88.3600006103516
1202.1760666,87.9199981689453
1202.1916916,88.0999984741211
1202.2073166,88.7200012207031
1202.2229416,89.5999984741211
1202.2385666,90.6399993896484
1202.2541916,91.8099975585938
1202.2698166,92.9800033569336
1202.2854416,93.8000030517578
1202.3010666,93.8300018310547
1202.3166916,92.8199996948242
1202.3323166,90.8199996948242
1202.3479416,88.129997253418
1202.3635666,85.0599975585938
1202.3791916,81.7900009155273
1202.3948166,78.2699966430664
1202.4104416,74.370002746582
1202.4260666,70.0299987792969
1202.4416916,65.3899993896484
1202.4573166,60.7000007629395
1202.4729416,56.189998626709
1202.4885666,51.9599990844727
1202.5041916,47.9700012207031
1202.5198166,44.060001373291
1202.5354416,40.0099983215332
1202.5510666,35.6599998474121
1202.5666916,30.9799995422363
1202.5823166,26.0
1202.5979416,20.7099990844727
1202.6135666,15.0799999237061
1202.6291916,9.1899995803833
1202.6448166,3.32999992370605
1202.6604416,-2.05999994277954
1202.6760666,-6.73999977111816
1202.6916916,-10.7600002288818
1202.7073166,-14.4200000762939
1202.7229416,-17.8999996185303
1202.7385666,-21.1700000762939
1202.7541916,-24.1200008392334
1202.7698166,-26.7099990844727
1202.7854416,-28.9500007629395
1202.8010666,-30.8099994659424
1202.8166916,-32.0699996948242
1202.8323166,-32.4799995422363
1202.8479416,-32.0099983215332
1202.8635666,-30.8799991607666
1202.8791916,-29.3999996185303
1202.8948166,-27.8400001525879
1202.9104416,-26.3700008392334
1202.9260666,-25.1499996185303
1202.9416916,-24.3400001525879
1202.9573166,-24.0799999237061
1202.9729416,-24.4799995422363
1202.9885666,-25.5499992370605
1203.0041916,-27.2000007629395
1203.0198166,-29.2700004577637
1203.0354416,-31.5699996948242
1203.0510666,-33.9099998474121
1203.0666916,-36.1699981689453
1203.0823166,-38.3800010681152
1203.0979416,-40.6300010681152
1203.1135666,-43.0800018310547
1203.1291916,-45.7999992370605
1203.1448166,-48.7700004577637
1203.1604416,-51.9900016784668
1203.1760666,-55.4799995422363
1203.1916916,-59.1399993896484
1203.2073166,-62.7099990844727
1203.2229416,-65.8399963378906
1203.2385666,-68.25
1203.2541916,-70.0299987792969
1203.2698166,-71.4300003051758
1203.2854416,-72.6500015258789
1203.3010666,-73.6900024414063
1203.3166916,-74.5
1203.3323166,-75.0299987792969
1203.3479416,-75.3300018310547
1203.3635666,-75.5100021362305
1203.3791916,-75.6999969482422
1203.3948166,-75.9899978637695
1203.4104416,-76.3600006103516
1203.4260666,-76.629997253418
1203.4416916,-76.4599990844727
1203.4573166,-75.5500030517578
1203.4729416,-73.8399963378906
1203.4885666,-71.4400024414063
1203.5041916,-68.4800033569336
1203.5198166,-64.9700012207031
1203.5354416,-60.8600006103516
1203.5510666,-56.25
1203.5666916,-51.5499992370605
1203.5823166,-47.3300018310547
1203.5979416,-43.939998626709
1203.6135666,-41.3899993896484
1203.6291916,-39.4599990844727
1203.6448166,-37.9799995422363
1203.6604416,-37.0
1203.6760666,-36.7200012207031
1203.6916916,-37.2200012207031
1203.7073166,-38.3899993896484
1203.7229416,-40.0699996948242
1203.7385666,-42.0699996948242
1203.7541916,-44.2299995422363
1203.7698166,-46.3400001525879
1203.7854416,-48.2200012207031
1203.8010666,-49.7999992370605
1203.8166916,-51.2000007629395
1203.8323166,-52.5800018310547
1203.8479416,-53.9599990844727
1203.8635666,-55.1800003051758
1203.8791916,-56.0800018310547
1203.8948166,-56.6100006103516
1203.9104416,-56.8499984741211
1203.9260666,-57.0
1203.9416916,-57.2799987792969
1203.9573166,-57.8899993896484
1203.9729416,-58.8400001525879
1203.9885666,-60.1100006103516
1204.0041916,-61.689998626709
1204.0198166,-63.5900001525879
1204.0354416,-65.7300033569336
1204.0510666,-67.8000030517578
1204.0666916,-69.3099975585938
1204.0823166,-70.6900024414063
1204.0979416,-70.6100006103516
1204.1135666,-69.0500030517578
1204.1291916,-66.1699981689453
1204.1448166,-62.3199996948242
1204.1604416,-57.9099998474121
1204.1760666,-53.3199996948242
1204.1916916,-48.8400001525879
1204.2073166,-44.5
1204.2229416,-40.1399993896484
1204.2385666,-35.5299987792969
1204.2541916,-30.6100006103516
1204.2698166,-25.4699993133545
1204.2854416,-20.3600006103516
1204.3010666,-15.5299997329712
1204.3166916,-11.1499996185303
1204.3323166,-7.38000011444092
1204.3479416,-4.51999998092651
1204.3635666,-2.85999989509583
1204.3791916,-2.47000002861023
1204.3948166,-3.07999992370605
1204.4104416,-4.23000001907349
1204.4260666,-5.48000001907349
1204.4416916,-6.57999992370605
1204.4573166,-7.53999996185303
1204.4729416,-8.4399995803833
1204.4885666,-9.32999992370605
1204.5041916,-10.1099996566772
1204.5198166,-10.7299995422363
1204.5354416,-11.1999998092651
1204.5510666,-11.6400003433228
1204.5666916,-12.0799999237061
1204.5823166,-12.460000038147
1204.5979416,-12.6999998092651
1204.6135666,-12.75
1204.6291916,-12.6400003433228
1204.6448166,-12.4700002670288
1204.6604416,-12.3100004196167
1204.6760666,-12.25
1204.6916916,-12.2600002288818
1204.7073166,-12.1899995803833
1204.7229416,-11.7200002670288
1204.7385666,-10.5699996948242
1204.7541916,-8.68000030517578
1204.7698166,-6.17999982833862
1204.7854416,-3.15000009536743
1204.8010666,0.699999988079071
1204.8166916,6.17000007629395
1204.8323166,13.8199996948242
1204.8479416,23.3500003814697
1204.8635666,33.6699981689453
1204.8791916,43.5499992370605
1204.8948166,52.189998626709
1204.9104416,59.3899993896484
1204.9260666,65.2900009155273
1204.9416916,70.0100021362305
1204.9573166,73.5699996948242
1204.9729416,76.0800018310547
1204.9885666,77.7699966430664
1205.0041916,78.9700012207031
1205.0198166,79.9300003051758
1205.0354416,80.75
1205.0510666,81.1500015258789
1205.0666916,80.4599990844727
1205.0823166,78.5500030517578
1205.0979416,74.629997253418
1205.1135666,69.0999984741211
1205.1291916,62.75
1205.1448166,56.3600006103516
1205.1604416,50.4199981689453
1205.1760666,45.0499992370605
1205.1916916,40.1300010681152
1205.2073166,35.3499984741211
1205.2229416,30.3799991607666
1205.2385666,24.9899997711182
1205.2541916,19.1599998474121
1205.2698166,12.9799995422363
1205.2854416,6.48000001907349
1205.3010666,-0.319999992847443
1205.3166916,-7.34999990463257
1205.3323166,-14.2700004577637
1205.3479416,-20.5400009155273
1205.3635666,-25.8299999237061
1205.3791916,-30.1700000762939
1205.3948166,-33.8899993896484
1205.4104416,-37.1500015258789
1205.4260666,-39.939998626709
1205.4416916,-42.1500015258789
1205.4573166,-43.7799987792969
1205.4729416,-44.8899993896484
1205.4885666,-45.2999992370605
1205.5041916,-44.4199981689453
1205.5198166,-41.6599998474121
1205.5354416,-36.939998626709
1205.5510666,-30.8099994659424
1205.5666916,-24.1399993896484
1205.5823166,-17.6499996185303
1205.5979416,-11.8100004196167
1205.6135666,-6.92999982833862
1205.6291916,-3.4300000667572
1205.6448166,-1.71000003814697
1205.6604416,-2.0
1205.6760666,-4.07999992370605
1205.6916916,-7.40999984741211
1205.7073166,-11.2700004577637
1205.7229416,-15.0500001907349
1205.7385666,-18.3999996185303
1205.7541916,-21.2700004577637
1205.7698166,-23.9200000762939
1205.7854416,-26.8099994659424
1205.8010666,-30.3199996948242
1205.8166916,-34.5699996948242
1205.8323166,-39.4700012207031
1205.8479416,-44.9700012207031
1205.8635666,-51.0499992370605
1205.8791916,-57.4900016784668
1205.8948166,-63.7000007629395
1205.9104416,-68.7200012207031
1205.9260666,-71.9300003051758
1205.9416916,-73.5
1205.9573166,-74.1100006103516
1205.9729416,-74.2799987792969
1205.9885666,-74.0899963378906
1206.0041916,-73.4000015258789
1206.0198166,-72.129997253418
1206.0354416,-70.370002746582
1206.0510666,-68.3499984741211
1206.0666916,-66.3199996948242
1206.0823166,-64.7799987792969
1206.0979416,-63.3800010681152
1206.1135666,-62.0099983215332
1206.1291916,-60.4900016784668
1206.1448166,-58.689998626709
1206.1604416,-56.5
1206.1760666,-53.7700004577637
1206.1916916,-50.1399993896484
1206.2073166,-45.2700004577637
1206.2229416,-39.1100006103516
1206.2385666,-32.0299987792969
1206.2541916,-24.6599998474121
1206.2698166,-17.5799999237061
1206.2854416,-11.1400003433228
1206.3010666,-5.36999988555908
1206.3166916,-0.119999997317791
1206.3323166,4.65000009536743
1206.3479416,8.80000019073486
1206.3635666,12.0699996948242
1206.3791916,14.3500003814697
