Time(s),Value(%)
1781.0083602,-33.9300003051758
1781.0239852,-34.6399993896484
1781.0396102,-35.2599983215332
1781.0552352,-35.7299995422363
1781.0708602,-35.8699989318848
1781.0864852,-35.5800018310547
1781.1021102,-34.9000015258789
1781.1177352,-34.310001373291
1781.1333602,-33.4300003051758
1781.1489852,-32.310001373291
1781.1646102,-30.9200000762939
1781.1802352,-29.0799999237061
1781.1958602,-26.4300003051758
1781.2114852,-22.6200008392334
1781.2271102,-17.6200008392334
1781.2427352,-11.6599998474121
1781.2583602,-5.03999996185303
1781.2739852,2.19000005722046
1781.2896102,10.1999998092651
1781.3052352,18.9699993133545
1781.3208602,27.9599990844727
1781.3364852,36.310001373291
1781.3521102,43.4000015258789
1781.3677352,49.1100006103516
1781.3833602,53.7700004577637
1781.3989852,57.7200012207031
1781.4146102,61.0299987792969
1781.4302352,63.560001373291
1781.4458602,65.2200012207031
1781.4614852,66.120002746582
1781.4771102,66.4800033569336
1781.4927352,66.5400009155273
1781.5083602,66.4499969482422
1781.5239852,66.2900009155273
1781.5396102,65.9599990844727
1781.5552352,65.2699966430664
1781.5708602,64.0100021362305
1781.5864852,62.1500015258789
1781.6021102,59.8600006103516
1781.6177352,57.4799995422363
1781.6333602,55.3199996948242
1781.6489852,53.5099983215332
1781.6646102,51.9900016784668
1781.6802352,50.5400009155273
1781.6958602,48.7799987792969
1781.7114852,46.4300003051758
1781.7271102,43.4099998474121
1781.7427352,39.7999992370605
1781.7583602,35.6100006103516
1781.7739852,30.8099994659424
1781.7896102,25.5599994659424
1781.8052352,20.3500003814697
1781.8208602,15.9099998474121
1781.8364852,12.6999998092651
1781.8521102,10.5699996948242
1781.8677352,9.01000022888184
1781.8833602,7.67000007629395
1781.8989852,6.63000011444092
1781.9146102,6.05999994277954
1781.9302352,6.05999994277954
1781.9458602,6.53999996185303
1781.9614852,7.38000011444092
1781.9771102,8.57999992370605
1781.9927352,10.1999998092651
1782.0083602,12.25
1782.0239852,14.6899995803833
1782.0396102,17.4699993133545
1782.0552352,20.5599994659424
1782.0708602,23.8799991607666
1782.0864852,27.3799991607666
1782.1021102,31.0699996948242
1782.1177352,35.1300010681152
1782.1333602,39.0999984741211
1782.1489852,42.5800018310547
1782.1646102,45.189998626709
1782.1802352,46.8300018310547
1782.1958602,47.6399993896484
1782.2114852,47.9700012207031
1782.2271102,48.1699981689453
1782.2427352,48.2999992370605
1782.2583602,48.1399993896484
1782.2739852,47.3699989318848
1782.2896102,45.8400001525879
1782.3052352,43.5200004577637
1782.3208602,40.4300003051758
1782.3364852,36.5699996948242
1782.3521102,32.1500015258789
1782.3677352,27.7399997711182
1782.3833602,24.1599998474121
1782.3989852,21.9799995422363
1782.4146102,21.0400009155273
1782.4302352,20.7299995422363
1782.4458602,20.6000003814697
1782.4614852,20.4200000762939
1782.4771102,20.0100002288818
1782.4927352,19.1299991607666
1782.5083602,17.7000007629395
1782.5239852,16.0400009155273
1782.5396102,14.7299995422363
1782.5552352,14.2399997711182
1782.5708602,14.4799995422363
1782.5864852,15.0699996948242
1782.6021102,15.8000001907349
1782.6177352,16.7999992370605
1782.6333602,18.2600002288818
1782.6489852,20.1900005340576
1782.6646102,22.4200000762939
1782.6802352,24.6299991607666
1782.6958602,26.4699993133545
1782.7114852,27.6900005340576
1782.7271102,28.3199996948242
1782.7427352,28.6399993896484
1782.7583602,29.1299991607666
1782.7739852,30.1700000762939
1782.7896102,31.9300003051758
1782.8052352,34.4599990844727
1782.8208602,37.9599990844727
1782.8364852,42.8499984741211
1782.8521102,49.4700012207031
1782.8677352,57.7799987792969
1782.8833602,67.0500030517578
1782.8989852,76.25
1782.9146102,84.5
1782.9302352,91.4400024414063
1782.9458602,97.1999969482422
1782.9614852,102.120002746582
1782.9771102,106.540000915527
1782.9927352,110.639999389648
1783.0083602,114.449996948242
1783.0239852,117.949996948242
1783.0396102,121.129997253418
1783.0552352,124.029998779297
1783.0708602,126.620002746582
1783.0864852,128.639999389648
1783.1021102,129.570007324219
1783.1177352,129.839996337891
1783.1333602,128.25
1783.1489852,125.110000610352
1783.1646102,120.959999084473
1783.1802352,116.370002746582
1783.1958602,111.75
1783.2114852,107.26000213623
1783.2271102,102.910003662109
1783.2427352,98.5
1783.2583602,93.7900009155273
1783.2739852,88.5599975585938
1783.2896102,82.7799987792969
1783.3052352,76.5500030517578
1783.3208602,69.9499969482422
1783.3364852,63.0400009155273
1783.3521102,55.939998626709
1783.3677352,48.939998626709
1783.3833602,42.4599990844727
1783.3989852,36.7900009155273
1783.4146102,31.8299999237061
1783.4302352,27.25
1783.4458602,22.8299999237061
1783.4614852,18.5699996948242
1783.4771102,14.5900001525879
1783.4927352,10.9499998092651
1783.5083602,7.61999988555908
1783.5239852,4.46999979019165
1783.5396102,1.37000000476837
1783.5552352,-1.75999999046326
1783.5708602,-4.90999984741211
1783.5864852,-7.80000019073486
1783.6021102,-9.9399995803833
1783.6177352,-10.8699998855591
1783.6333602,-10.5100002288818
1783.6489852,-9.10000038146973
1783.6646102,-6.94000005722046
1783.6802352,-4.05000019073486
1783.6958602,-0.230000004172325
1783.7114852,4.51000022888184
1783.7271102,9.61999988555908
1783.7427352,14.1899995803833
1783.7583602,17.5100002288818
1783.7739852,19.4500007629395
1783.7896102,20.3400001525879
1783.8052352,20.5699996948242
1783.8208602,20.3600006103516
1783.8364852,19.6900005340576
1783.8521102,18.5
1783.8677352,16.8899993896484
1783.8833602,15.0600004196167
1783.8989852,13.2299995422363
1783.9146102,11.5100002288818
1783.9302352,9.77000045776367
1783.9458602,7.67000007629395
1783.9614852,4.80999994277954
1783.9771102,0.990000009536743
1783.9927352,-3.70000004768372
1784.0083602,-8.97999954223633
1784.0239852,-14.460000038147
1784.0396102,-19.8400001525879
1784.0552352,-24.9200000762939
1784.0708602,-29.7000007629395
1784.0864852,-34.3699989318848
1784.1021102,-39.310001373291
1784.1177352,-44.75
1784.1333602,-50.8600006103516
1784.1489852,-57.5499992370605
1784.1646102,-64.8000030517578
1784.1802352,-72.6100006103516
1784.1958602,-80.8000030517578
1784.2114852,-88.8399963378906
1784.2271102,-95.9800033569336
1784.2427352,-101.790000915527
1784.2583602,-106.5
1784.2739852,-110.720001220703
1784.2896102,-114.73999786377
1784.3052352,-118.379997253418
1784.3208602,-121.330001831055
1784.3364852,-123.440002441406
1784.3521102,-124.790000915527
1784.3677352,-125.569999694824
1784.3833602,-125.870002746582
1784.3989852,-125.720001220703
1784.4146102,-125.059997558594
1784.4302352,-123.76000213623
1784.4458602,-121.5
1784.4614852,-117.980003356934
1784.4771102,-113.209999084473
1784.4927352,-107.459999084473
1784.5083602,-100.889999389648
1784.5239852,-93.25
1784.5396102,-83.8499984741211
1784.5552352,-72.3399963378906
1784.5708602,-59.3300018310547
1784.5864852,-46.2099990844727
1784.6021102,-34.2900009155273
1784.6177352,-24.2000007629395
1784.6333602,-15.7600002288818
1784.6489852,-8.21000003814697
1784.6646102,-0.629999995231628
1784.6802352,7.67000007629395
1784.6958602,16.8700008392334
1784.7114852,26.8400001525879
1784.7271102,37.5999984741211
1784.7427352,49.2299995422363
1784.7583602,61.4500007629395
1784.7739852,73.0699996948242
1784.7896102,82.2300033569336
1784.8052352,87.5199966430664
1784.8208602,89.1399993896484
1784.8364852,88.4400024414063
1784.8521102,86.7300033569336
1784.8677352,84.7600021362305
1784.8833602,82.9800033569336
1784.8989852,81.7399978637695
1784.9146102,81.1100006103516
1784.9302352,80.620002746582
1784.9458602,79.3300018310547
1784.9614852,76.4800033569336
1784.9771102,71.9899978637695
1784.9927352,66.370002746582
1785.0083602,60.0299987792969
1785.0239852,53.1199989318848
1785.0396102,45.7099990844727
1785.0552352,37.9500007629395
1785.0708602,30.0699996948242
1785.0864852,22.1900005340576
1785.1021102,14.1400003433228
1785.1177352,5.67999982833862
1785.1333602,-3.1800000667572
1785.1489852,-12.3199996948242
1785.1646102,-21.4899997711182
1785.1802352,-30.4699993133545
1785.1958602,-39.0800018310547
1785.2114852,-47.1800003051758
1785.2271102,-54.6100006103516
1785.2427352,-61.1599998474121
1785.2583602,-66.5400009155273
1785.2739852,-70.5100021362305
1785.2896102,-73.0800018310547
1785.3052352,-74.5100021362305
1785.3208602,-75.2300033569336
1785.3364852,-75.6600036621094
1785.3521102,-76.120002746582
1785.3677352,-76.8899993896484
1785.3833602,-78.2300033569336
1785.3989852,-80.3600006103516
1785.4146102,-83.25
1785.4302352,-86.8499984741211
1785.4458602,-91.2399978637695
1785.4614852,-96.5299987792969
1785.4771102,-102.610000610352
1785.4927352,-109.080001831055
1785.5083602,-115.419998168945
1785.5239852,-121.389999389648
1785.5396102,-127.150001525879
1785.5552352,-132.880004882813
1785.5708602,-138.289993286133
1785.5864852,-142.779998779297
1785.6021102,-145.850006103516
1785.6177352,-147.509994506836
1785.6333602,-148.130004882813
1785.6489852,-148.300003051758
1785.6646102,-148.559997558594
1785.6802352,-149.199996948242
1785.6958602,-150.259994506836
1785.7114852,-151.679992675781
1785.7271102,-153.520004272461
1785.7427352,-155.929992675781
1785.7583602,-158.809997558594
1785.7739852,-161.559997558594
1785.7896102,-163.25
1785.8052352,-163.190002441406
1785.8208602,-161.520004272461
1785.8364852,-158.910003662109
1785.8521102,-155.860000610352
1785.8677352,-152.440002441406
1785.8833602,-148.509994506836
1785.8989852,-143.990005493164
1785.9146102,-139.009994506836
1785.9302352,-133.910003662109
1785.9458602,-129.089996337891
1785.9614852,-124.870002746582
1785.9771102,-121.290000915527
1785.9927352,-118.120002746582
1786.0083602,-115.0
1786.0239852,-111.650001525879
1786.0396102,-107.879997253418
1786.0552352,-103.430000305176
1786.0708602,-97.75
1786.0864852,-90.2399978637695
1786.1021102,-80.5899963378906
1786.1177352,-68.5400009155273
1786.1333602,-55.5299987792969
1786.1489852,-42.5200004577637
1786.1646102,-30.2299995422363
1786.1802352,-19.0
1786.1958602,-8.78999996185303
1786.2114852,0.529999971389771
1786.2271102,9.07999992370605
1786.2427352,16.8500003814697
1786.2583602,23.8700008392334
1786.2739852,30.2099990844727
1786.2896102,35.9700012207031
1786.3052352,41.2400016784668
1786.3208602,46.0800018310547
1786.3364852,50.5
1786.3521102,54.3899993896484
1786.3677352,57.5699996948242
1786.3833602,59.8899993896484
1786.3989852,61.4000015258789
1786.4146102,62.3499984741211
1786.4302352,63.0900001525879
1786.4458602,63.9199981689453
1786.4614852,64.9400024414063
1786.4771102,66.0999984741211
1786.4927352,67.1600036621094
1786.5083602,67.7799987792969
1786.5239852,67.6699981689453
1786.5396102,66.7900009155273
1786.5552352,65.2099990844727
1786.5708602,62.9900016784668
1786.5864852,60.1300010681152
1786.6021102,56.7799987792969
1786.6177352,53.3800010681152
1786.6333602,50.6100006103516
1786.6489852,48.9000015258789
1786.6646102,48.0999984741211
1786.6802352,47.7400016784668
1786.6958602,47.5299987792969
1786.7114852,47.5099983215332
1786.7271102,47.8300018310547
1786.7427352,48.5800018310547
1786.7583602,49.6500015258789
1786.7739852,50.8400001525879
1786.7896102,51.9700012207031
1786.8052352,52.9099998474121
1786.8208602,53.6800003051758
1786.8364852,54.4700012207031
1786.8521102,55.6399993896484
1786.8677352,57.5
1786.8833602,60.1100006103516
1786.8989852,63.4099998474121
1786.9146102,67.3899993896484
1786.9302352,72.2099990844727
1786.9458602,78.0100021362305
1786.9614852,84.6399993896484
1786.9771102,91.5400009155273
1786.9927352,97.9499969482422
1787.0083602,103.410003662109
1787.0239852,107.870002746582
1787.0396102,111.569999694824
1787.0552352,114.690002441406
1787.0708602,117.120002746582
1787.0864852,118.629997253418
1787.1021102,119.120002746582
1787.1177352,117.980003356934
1787.1333602,116.25
1787.1489852,114.230003356934
1787.1646102,112.089996337891
1787.1802352,109.910003662109
1787.1958602,107.680000305176
1787.2114852,105.309997558594
1787.2271102,102.779998779297
1787.2427352,100.029998779297
1787.2583602,96.9599990844727
1787.2739852,93.4499969482422
1787.2896102,89.4199981689453
1787.3052352,84.9899978637695
1787.3208602,80.4100036621094
1787.3364852,75.9700012207031
1787.3521102,71.879997253418
1787.3677352,68.1500015258789
1787.3833602,64.6699981689453
1787.3989852,61.3300018310547
1787.4146102,58.0999984741211
1787.4302352,55.0699996948242
1787.4458602,52.2999992370605
1787.4614852,49.7799987792969
1787.4771102,47.4300003051758
1787.4927352,45.0900001525879
1787.5083602,42.560001373291
1787.5239852,39.6800003051758
1787.5396102,36.4199981689453
1787.5552352,32.8600006103516
1787.5708602,29.0799999237061
1787.5864852,25.1100006103516
1787.6021102,21.0699996948242
1787.6177352,17.2299995422363
1787.6333602,14.1099996566772
1787.6489852,12.2700004577637
1787.6646102,12.1400003433228
1787.6802352,13.7799997329712
1787.6958602,16.8799991607666
1787.7114852,20.8400001525879
1787.7271102,25.0499992370605
1787.7427352,29.0100002288818
1787.7583602,32.4900016784668
1787.7739852,35.560001373291
1787.7896102,38.5
1787.8052352,41.6300010681152
1787.8208602,45.060001373291
1787.8364852,48.6800003051758
1787.8521102,52.3199996948242
1787.8677352,55.7999992370605
1787.8833602,58.9500007629395
1787.8989852,61.4599990844727
1787.9146102,62.7900009155273
1787.9302352,62.4700012207031
1787.9458602,60.5099983215332
1787.9614852,57.3199996948242
1787.9771102,53.5400009155273
1787.9927352,49.6599998474121
1788.0083602,45.9599990844727
1788.0239852,42.4900016784668
1788.0396102,39.1699981689453
1788.0552352,35.7999992370605
1788.0708602,32.1599998474121
1788.0864852,28.0400009155273
1788.1021102,23.4599990844727
1788.1177352,18.6299991607666
1788.1333602,13.789999961853
1788.1489852,9.14000034332275
1788.1646102,4.78000020980835
1788.1802352,0.639999985694885
1788.1958602,-3.47000002861023
1788.2114852,-7.73999977111816
1788.2271102,-12.25
1788.2427352,-17.0
1788.2583602,-22.0599994659424
1788.2739852,-27.4799995422363
1788.2896102,-33.1800003051758
1788.3052352,-38.7999992370605
1788.3208602,-43.810001373291
1788.3364852,-47.8800010681152
1788.3521102,-51.1300010681152
1788.3677352,-53.9700012207031
1788.3833602,-56.6599998474121
1788.3989852,-59.2200012207031
1788.4146102,-61.6100006103516
1788.4302352,-63.8800010681152
1788.4458602,-66.0400009155273
1788.4614852,-67.9800033569336
1788.4771102,-69.379997253418
1788.4927352,-69.7900009155273
1788.5083602,-68.8499984741211
1788.5239852,-66.4800033569336
1788.5396102,-62.8800010681152
1788.5552352,-58.4799995422363
1788.5708602,-53.7799987792969
1788.5864852,-49.189998626709
1788.6021102,-44.9500007629395
1788.6177352,-41.0499992370605
1788.6333602,-37.2999992370605
1788.6489852,-33.5200004577637
1788.6646102,-29.5900001525879
1788.6802352,-25.6200008392334
1788.6958602,-21.75
1788.7114852,-18.1499996185303
1788.7271102,-14.9499998092651
1788.7427352,-12.3199996948242
1788.7583602,-10.5699996948242
1788.7739852,-10.0
1788.7896102,-10.6400003433228
1788.8052352,-12.2299995422363
1788.8208602,-14.2600002288818
1788.8364852,-16.2800006866455
1788.8521102,-18.0100002288818
1788.8677352,-19.3999996185303
1788.8833602,-20.5599994659424
1788.8989852,-21.7299995422363
1788.9146102,-23.1900005340576
1788.9302352,-25.1599998474121
1788.9458602,-27.6700000762939
1788.9614852,-30.6200008392334
1788.9771102,-33.9700012207031
1788.9927352,-37.7099990844727
1789.0083602,-41.7200012207031
1789.0239852,-45.7000007629395
1789.0396102,-49.1800003051758
1789.0552352,-51.8699989318848
1789.0708602,-53.9300003051758
1789.0864852,-55.689998626709
1789.1021102,-57.3400001525879
1789.1177352,-59.1300010681152
1789.1333602,-60.4900016784668
1789.1489852,-61.3499984741211
1789.1646102,-61.7799987792969
1789.1802352,-62.060001373291
1789.1958602,-62.5400009155273
1789.2114852,-63.5
1789.2271102,-64.9899978637695
1789.2427352,-66.8899993896484
1789.2583602,-69.0400009155273
1789.2739852,-71.3199996948242
1789.2896102,-73.5800018310547
1789.3052352,-75.4599990844727
1789.3208602,-76.3300018310547
1789.3364852,-75.5999984741211
1789.3521102,-73.0299987792969
1789.3677352,-68.8499984741211
1789.3833602,-63.5699996948242
1789.3989852,-57.6699981689453
1789.4146102,-51.5099983215332
1789.4302352,-45.2599983215332
1789.4458602,-39.060001373291
1789.4614852,-33.0499992370605
1789.4771102,-27.4799995422363
1789.4927352,-22.5300006866455
1789.5083602,-18.3199996948242
1789.5239852,-14.8199996948242
1789.5396102,-11.9700002670288
1789.5552352,-9.64999961853027
1789.5708602,-7.73000001907349
1789.5864852,-6.05000019073486
1789.6021102,-4.48999977111816
1789.6177352,-3.00999999046326
1789.6333602,-1.67999994754791
1789.6489852,-0.600000023841858
1789.6646102,0.150000005960464
1789.6802352,0.600000023841858
1789.6958602,0.730000019073486
1789.7114852,0.540000021457672
1789.7271102,0.0900000035762787
1789.7427352,-0.419999986886978
1789.7583602,-0.75
1789.7739852,-0.75
1789.7896102,-0.519999980926514
1789.8052352,-0.300000011920929
1789.8208602,-0.189999997615814
1789.8364852,-0.109999999403954
1789.8521102,0.0700000002980232
1789.8677352,0.449999988079071
1789.8833602,0.990000009536743
1789.8989852,1.54999995231628
1789.9146102,1.87000000476837
1789.9302352,1.76999998092651
1789.9458602,1.20000004768372
1789.9614852,0.170000001788139
1789.9771102,-1.29999995231628
1789.9927352,-3.28999996185303
1790.0083602,-5.67000007629395
1790.0239852,-8.06999969482422
1790.0396102,-9.9399995803833
1790.0552352,-10.8599996566772
1790.0708602,-10.8900003433228
1790.0864852,-10.3500003814697
1790.1021102,-9.52000045776367
1790.1177352,-8.56999969482422
1790.1333602,-7.30000019073486
1790.1489852,-5.71000003814697
1790.1646102,-3.83999991416931
1790.1802352,-1.57000005245209
1790.1958602,1.5
1790.2114852,5.82000017166138
1790.2271102,11.4899997711182
1790.2427352,18.2099990844727
1790.2583602,25.6000003814697
1790.2739852,33.2900009155273
1790.2896102,40.9799995422363
1790.3052352,48.2599983215332
1790.3208602,54.6300010681152
1790.3364852,59.7000007629395
1790.3521102,63.4000015258789
1790.3677352,65.9499969482422
1790.3833602,67.5599975585938
1790.3989852,68.4000015258789
1790.4146102,68.6100006103516
1790.4302352,68.370002746582
1790.4458602,67.879997253418
1790.4614852,67.2399978637695
1790.4771102,66.4000015258789
1790.4927352,65.2699966430664
1790.5083602,63.7799987792969
1790.5239852,61.9000015258789
1790.5396102,59.5699996948242
1790.5552352,56.7299995422363
1790.5708602,53.4700012207031
1790.5864852,50.0
1790.6021102,46.6199989318848
1790.6177352,43.4799995422363
1790.6333602,40.4599990844727
1790.6489852,37.3800010681152
1790.6646102,34.25
1790.6802352,31.2800006866455
1790.6958602,28.6900005340576
1790.7114852,26.5499992370605
1790.7271102,24.7600002288818
1790.7427352,23.0799999237061
1790.7583602,21.2299995422363
1790.7739852,19.0200004577637
1790.7896102,16.3999996185303
1790.8052352,13.3900003433228
1790.8208602,9.93000030517578
1790.8364852,5.92000007629395
1790.8521102,1.46000003814697
1790.8677352,-3.02999997138977
1790.8833602,-6.94000005722046
1790.8989852,-9.78999996185303
1790.9146102,-11.6199998855591
1790.9302352,-12.789999961853
1790.9458602,-13.6000003814697
1790.9614852,-14.0500001907349
1790.9771102,-14.0900001525879
1790.9927352,-13.7399997711182
1791.0083602,-13.0500001907349
1791.0239852,-11.9099998474121
1791.0396102,-9.92000007629395
1791.0552352,-6.63000011444092
1791.0708602,-1.96000003814697
1791.0864852,3.80999994277954
1791.1021102,10.3599996566772
1791.1177352,17.5799999237061
1791.1333602,25.1100006103516
1791.1489852,32.4799995422363
1791.1646102,39.060001373291
1791.1802352,44.3699989318848
1791.1958602,48.3199996948242
1791.2114852,51.1399993896484
1791.2271102,52.9900016784668
1791.2427352,53.939998626709
1791.2583602,54.0999984741211
1791.2739852,53.7099990844727
1791.2896102,53.0499992370605
1791.3052352,52.2799987792969
1791.3208602,51.4000015258789
1791.3364852,50.25
1791.3521102,48.6500015258789
1791.3677352,46.5200004577637
1791.3833602,43.8899993896484
1791.3989852,40.9099998474121
1791.4146102,37.7900009155273
1791.4302352,34.689998626709
1791.4458602,31.6900005340576
