Time(s),Value(%)
1047.0125088,-20.6499996185303
1047.0281338,-16.4300003051758
1047.0437588,-12.1599998474121
1047.0593838,-8.14999961853027
1047.0750088,-4.21000003814697
1047.0906338,0.340000003576279
1047.1062588,6.23999977111816
1047.1218838,13.7299995422363
1047.1375088,22.5300006866455
1047.1531338,32.310001373291
1047.1687588,42.7700004577637
1047.1843838,53.4500007629395
1047.2000088,63.4099998474121
1047.2156338,71.2399978637695
1047.2312588,75.8300018310547
1047.2468838,77.1500015258789
1047.2625088,76.0400009155273
1047.2781338,73.4599990844727
1047.2937588,70.0100021362305
1047.3093838,66.0
1047.3250088,61.6500015258789
1047.3406338,57.1599998474121
1047.3562588,52.6300010681152
1047.3718838,48.0800018310547
1047.3875088,43.4300003051758
1047.4031338,38.6399993896484
1047.4187588,33.7299995422363
1047.4343838,28.7399997711182
1047.4500088,23.6800003051758
1047.4656338,18.6100006103516
1047.4812588,13.5699996948242
1047.4968838,8.53999996185303
1047.5125088,3.40000009536743
1047.5281338,-2.00999999046326
1047.5437588,-7.75
1047.5593838,-13.6700000762939
1047.5750088,-19.4300003051758
1047.5906338,-24.75
1047.6062588,-29.5100002288818
1047.6218838,-33.7599983215332
1047.6375088,-37.6300010681152
1047.6531338,-41.2999992370605
1047.6687588,-44.9000015258789
1047.6843838,-48.3899993896484
1047.7000088,-51.5099983215332
1047.7156338,-53.7799987792969
1047.7312588,-54.7900009155273
1047.7468838,-54.439998626709
1047.7625088,-52.9799995422363
1047.7781338,-50.6599998474121
1047.7937588,-47.5200004577637
1047.8093838,-43.310001373291
1047.8250088,-38.0
1047.8406338,-32.0999984741211
1047.8562588,-26.3099994659424
1047.8718838,-21.0
1047.8875088,-16.0400009155273
1047.9031338,-11.1499996185303
1047.9187588,-6.40999984741211
1047.9343838,-2.3199999332428
1047.9500088,0.550000011920929
1047.9656338,2.13000011444092
1047.9812588,2.73000001907349
1047.9968838,2.60999989509583
1048.0125088,1.9099999666214
1048.0281338,0.660000026226044
1048.0437588,-0.980000019073486
1048.0593838,-2.82999992370605
1048.0750088,-4.65999984741211
1048.0906338,-6.3600001335144
1048.1062588,-7.90000009536743
1048.1218838,-9.30000019073486
1048.1375088,-10.6099996566772
1048.1531338,-11.8699998855591
1048.1687588,-13.0900001525879
1048.1843838,-14.3000001907349
1048.2000088,-15.6700000762939
1048.2156338,-17.5200004577637
1048.2312588,-20.1700000762939
1048.2468838,-23.6900005340576
1048.2625088,-27.8999996185303
1048.2781338,-32.5699996948242
1048.2937588,-37.5400009155273
1048.3093838,-42.6100006103516
1048.3250088,-47.5
1048.3406338,-51.8699989318848
1048.3562588,-55.3699989318848
1048.3718838,-57.7700004577637
1048.3875088,-59.0
1048.4031338,-58.9199981689453
1048.4187588,-56.9099998474121
1048.4343838,-51.7799987792969
1048.4500088,-42.5299987792969
1048.4656338,-29.3700008392334
1048.4812588,-13.8400001525879
1048.4968838,2.10999989509583
1048.5125088,17.4200000762939
1048.5281338,32.4900016784668
1048.5437588,47.9300003051758
1048.5593838,63.0200004577637
1048.5750088,75.9700012207031
1048.5906338,85.3399963378906
1048.6062588,91.0199966430664
1048.6218838,94.0699996948242
1048.6375088,95.9199981689453
1048.6531338,97.6399993896484
1048.6687588,99.6600036621094
1048.6843838,101.919998168945
1048.7000088,104.339996337891
1048.7156338,107.110000610352
1048.7312588,110.569999694824
1048.7468838,114.669998168945
1048.7625088,118.480003356934
1048.7781338,120.23999786377
1048.7937588,118.470001220703
1048.8093838,113.069999694824
1048.8250088,105.120002746582
1048.8406338,95.9400024414063
1048.8562588,86.3499984741211
1048.8718838,76.7399978637695
1048.8875088,67.2300033569336
1048.9031338,57.9300003051758
1048.9187588,49.0400009155273
1048.9343838,40.8600006103516
1048.9500088,33.6599998474121
1048.9656338,27.5300006866455
1048.9812588,22.4200000762939
1048.9968838,18.3999996185303
1049.0125088,15.5100002288818
1049.0281338,13.5799999237061
1049.0437588,12.0100002288818
1049.0593838,9.85999965667725
1049.0750088,6.55999994277954
1049.0906338,2.36999988555908
1049.1062588,-1.92999994754791
1049.1218838,-5.90000009536743
1049.1375088,-9.60000038146973
1049.1531338,-13.3800001144409
1049.1687588,-17.4699993133545
1049.1843838,-21.7199993133545
1049.2000088,-25.3299999237061
1049.2156338,-26.8500003814697
1049.2312588,-25.0300006866455
1049.2468838,-19.5799999237061
1049.2625088,-10.960000038147
1049.2781338,0.449999988079071
1049.2937588,14.4399995803833
1049.3093838,30.2399997711182
1049.3250088,45.8699989318848
1049.3406338,58.4700012207031
1049.3562588,65.9700012207031
1049.3718838,68.5800018310547
1049.3875088,68.0699996948242
1049.4031338,65.8000030517578
1049.4187588,62.060001373291
1049.4343838,56.6800003051758
1049.4500088,49.7799987792969
1049.4656338,41.9599990844727
1049.4812588,34.1100006103516
1049.4968838,27.1299991607666
1049.5125088,21.5799999237061
1049.5281338,17.5599994659424
1049.5437588,15.0600004196167
1049.5593838,14.4099998474121
1049.5750088,15.9700002670288
1049.5906338,19.5
1049.6062588,23.6100006103516
1049.6218838,26.1299991607666
1049.6375088,25.4500007629395
1049.6531338,21.7999992370605
1049.6687588,16.5499992370605
1049.6843838,10.7399997711182
1049.7000088,4.48999977111816
1049.7156338,-2.50999999046326
1049.7312588,-10.3599996566772
1049.7468838,-18.7399997711182
1049.7625088,-26.9799995422363
1049.7781338,-34.2999992370605
1049.7937588,-40.1800003051758
1049.8093838,-44.4799995422363
1049.8250088,-47.189998626709
1049.8406338,-48.0800018310547
1049.8562588,-46.8300018310547
1049.8718838,-43.7299995422363
1049.8875088,-40.0299987792969
1049.9031338,-37.6800003051758
1049.9187588,-37.7299995422363
1049.9343838,-39.1699981689453
1049.9500088,-39.9700012207031
1049.9656338,-39.0800018310547
1049.9812588,-37.060001373291
1049.9968838,-35.2200012207031
1050.0125088,-34.5499992370605
1050.0281338,-35.189998626709
1050.0437588,-36.3699989318848
1050.0593838,-36.7700004577637
1050.0750088,-35.2799987792969
1050.0906338,-31.5300006866455
1050.1062588,-25.6399993896484
1050.1218838,-17.5799999237061
1050.1375088,-7.28999996185303
1050.1531338,4.65000009536743
1050.1687588,16.2000007629395
1050.1843838,24.0200004577637
1050.2000088,25.3799991607666
1050.2156338,19.9799995422363
1050.2312588,9.64000034332275
1050.2468838,-3.51999998092651
1050.2625088,-18.3600006103516
1050.2781338,-34.6300010681152
1050.2937588,-52.2900009155273
1050.3093838,-71.0299987792969
1050.3250088,-90.2399978637695
1050.3406338,-109.540000915527
1050.3562588,-129.0
1050.3718838,-149.009994506836
1050.3875088,-169.639999389648
1050.4031338,-190.089996337891
1050.4187588,-209.080001831055
1050.4343838,-225.619995117188
1050.4500088,-239.479995727539
1050.4656338,-250.929992675781
1050.4812588,-259.869995117188
1050.4968838,-265.299987792969
1050.5125088,-265.019989013672
1050.5281338,-259.720001220703
1050.5437588,-249.190002441406
1050.5593838,-232.5
1050.5750088,-208.729995727539
1050.5906338,-178.679992675781
1050.6062588,-145.369995117188
1050.6218838,-113.050003051758
1050.6375088,-85.2399978637695
1050.6531338,-63.7099990844727
1050.6687588,-49.1300010681152
1050.6843838,-42.3400001525879
1050.7000088,-43.9099998474121
1050.7156338,-52.8199996948242
1050.7312588,-66.3399963378906
1050.7468838,-81.6100006103516
1050.7625088,-98.3099975585938
1050.7781338,-119.690002441406
1050.7937588,-149.860000610352
1050.8093838,-190.25
1050.8250088,-239.330001831055
1050.8406338,-294.790008544922
1050.8562588,-327.679992675781
1050.8718838,-327.679992675781
1050.8875088,-327.679992675781
1050.9031338,-327.679992675781
1050.9187588,-327.679992675781
1050.9343838,-327.679992675781
1050.9500088,-327.679992675781
1050.9656338,-327.679992675781
1050.9812588,-327.679992675781
1050.9968838,-327.679992675781
1051.0125088,-327.679992675781
1051.0281338,-327.679992675781
1051.0437588,-327.679992675781
1051.0593838,-327.679992675781
1051.0750088,-327.679992675781
1051.0906338,-327.679992675781
1051.1062588,-327.679992675781
1051.1218838,-327.679992675781
1051.1375088,-327.679992675781
1051.1531338,-327.679992675781
1051.1687588,-327.679992675781
1051.1843838,-327.679992675781
1051.2000088,-327.679992675781
1051.2156338,-327.679992675781
1051.2312588,-327.679992675781
1051.2468838,-327.679992675781
1051.2625088,-327.679992675781
1051.2781338,-327.679992675781
1051.2937588,-296.739990234375
1051.3093838,-253.600006103516
1051.3250088,-211.059997558594
1051.3406338,-167.919998168945
1051.3562588,-123.050003051758
1051.3718838,-76.2399978637695
1051.3875088,-28.0200004577637
1051.4031338,20.9599990844727
1051.4187588,70.2799987792969
1051.4343838,119.279998779297
1051.4500088,166.759994506836
1051.4656338,211.199996948242
1051.4812588,251.789993286133
1051.4968838,289.109985351563
1051.5125088,319.209991455078
1051.5281338,327.670013427734
1051.5437588,327.670013427734
1051.5593838,327.670013427734
1051.5750088,327.670013427734
1051.5906338,327.670013427734
1051.6062588,327.670013427734
1051.6218838,327.670013427734
1051.6375088,327.670013427734
1051.6531338,327.670013427734
1051.6687588,327.670013427734
1051.6843838,327.670013427734
1051.7000088,327.670013427734
1051.7156338,327.670013427734
1051.7312588,327.670013427734
1051.7468838,327.670013427734
1051.7625088,327.670013427734
1051.7781338,327.670013427734
1051.7937588,327.670013427734
1051.8093838,327.670013427734
1051.8250088,327.670013427734
1051.8406338,327.670013427734
1051.8562588,327.670013427734
1051.8718838,327.670013427734
1051.8875088,327.670013427734
1051.9031338,327.670013427734
1051.9187588,327.670013427734
1051.9343838,327.670013427734
1051.9500088,327.670013427734
1051.9656338,327.670013427734
1051.9812588,327.670013427734
1051.9968838,327.670013427734
1052.0125088,327.670013427734
1052.0281338,327.670013427734
1052.0437588,327.670013427734
1052.0593838,327.670013427734
1052.0750088,327.670013427734
1052.0906338,327.670013427734
1052.1062588,327.670013427734
1052.1218838,327.670013427734
1052.1375088,327.670013427734
1052.1531338,327.670013427734
1052.1687588,327.670013427734
1052.1843838,327.670013427734
1052.2000088,327.670013427734
1052.2156338,319.679992675781
1052.2312588,309.600006103516
1052.2468838,318.690002441406
1052.2625088,327.670013427734
1052.2781338,327.670013427734
1052.2937588,327.670013427734
1052.3093838,327.670013427734
1052.3250088,327.670013427734
1052.3406338,327.670013427734
1052.3562588,327.670013427734
1052.3718838,327.670013427734
1052.3875088,327.670013427734
1052.4031338,327.670013427734
1052.4187588,327.670013427734
1052.4343838,327.670013427734
1052.4500088,-327.679992675781
1052.4656338,-327.679992675781
1052.4812588,-327.679992675781
1052.4968838,-327.679992675781
1052.5125088,-327.679992675781
1052.5281338,-327.679992675781
1052.5437588,-327.679992675781
1052.5593838,-327.679992675781
1052.5750088,-327.679992675781
1052.5906338,-327.679992675781
1052.6062588,-327.679992675781
1052.6218838,-327.679992675781
1052.6375088,-327.679992675781
1052.6531338,-327.679992675781
1052.6687588,-327.679992675781
1052.6843838,-327.679992675781
1052.7000088,-327.679992675781
1052.7156338,-327.679992675781
1052.7312588,-327.679992675781
1052.7468838,-327.679992675781
1052.7625088,-327.679992675781
1052.7781338,-327.679992675781
1052.7937588,-327.679992675781
1052.8093838,-327.679992675781
1052.8250088,-327.679992675781
1052.8406338,-327.679992675781
1052.8562588,-327.679992675781
1052.8718838,-327.679992675781
1052.8875088,-327.679992675781
1052.9031338,-327.679992675781
1052.9187588,-327.679992675781
1052.9343838,-327.679992675781
1052.9500088,-327.679992675781
1052.9656338,-327.679992675781
1052.9812588,-327.679992675781
1052.9968838,-327.679992675781
1053.0125088,-327.679992675781
1053.0281338,-327.679992675781
1053.0437588,-327.679992675781
1053.0593838,-301.579986572266
1053.0750088,-243.279998779297
1053.0906338,-186.669998168945
1053.1062588,-132.729995727539
1053.1218838,-82.8099975585938
1053.1375088,-37.4900016784668
1053.1531338,3.69000005722046
1053.1687588,41.689998626709
1053.1843838,77.2600021362305
1053.2000088,110.709999084473
1053.2156338,142.149993896484
1053.2312588,171.630004882813
1053.2468838,199.300003051758
1053.2625088,225.350006103516
1053.2781338,249.779998779297
1053.2937588,271.929992675781
1053.3093838,290.209991455078
1053.3250088,302.760009765625
1053.3406338,308.519989013672
1053.3562588,307.929992675781
1053.3718838,302.859985351563
1053.3875088,295.790008544922
1053.4031338,288.820007324219
1053.4187588,283.040008544922
1053.4343838,278.420013427734
1053.4500088,273.720001220703
1053.4656338,266.829986572266
1053.4812588,255.970001220703
1053.4968838,240.649993896484
1053.5125088,222.259994506836
1053.5281338,198.940002441406
1053.5437588,170.199996948242
1053.5593838,136.929992675781
1053.5750088,102.529998779297
1053.5906338,71.9400024414063
1053.6062588,47.9500007629395
1053.6218838,28.6399993896484
1053.6375088,9.81999969482422
1053.6531338,-10.25
1053.6687588,-29.7299995422363
1053.6843838,-45.5900001525879
1053.7000088,-56.189998626709
1053.7156338,-61.6100006103516
1053.7312588,-61.8199996948242
1053.7468838,-55.2000007629395
1053.7625088,-39.6699981689453
1053.7781338,-15.0699996948242
1053.7937588,16.2000007629395
1053.8093838,50.6699981689453
1053.8250088,85.2600021362305
1053.8406338,118.129997253418
1053.8562588,148.710006713867
1053.8718838,177.330001831055
1053.8875088,204.839996337891
1053.9031338,232.190002441406
1053.9187588,259.709991455078
1053.9343838,286.739990234375
1053.9500088,312.019989013672
1053.9656338,327.670013427734
1053.9812588,327.670013427734
1053.9968838,327.670013427734
1054.0125088,327.670013427734
1054.0281338,327.670013427734
1054.0437588,327.670013427734
1054.0593838,327.670013427734
1054.0750088,327.670013427734
1054.0906338,327.670013427734
1054.1062588,327.670013427734
1054.1218838,327.670013427734
1054.1375088,327.670013427734
1054.1531338,327.670013427734
1054.1687588,327.670013427734
1054.1843838,327.670013427734
1054.2000088,327.670013427734
1054.2156338,327.670013427734
1054.2312588,327.670013427734
1054.2468838,327.670013427734
1054.2625088,327.670013427734
1054.2781338,327.670013427734
1054.2937588,327.670013427734
1054.3093838,327.670013427734
1054.3250088,327.670013427734
1054.3406338,327.670013427734
1054.3562588,327.670013427734
1054.3718838,327.670013427734
1054.3875088,327.670013427734
1054.4031338,327.670013427734
1054.4187588,327.670013427734
1054.4343838,327.670013427734
1054.4500088,327.670013427734
1054.4656338,327.670013427734
1054.4812588,327.670013427734
1054.4968838,327.670013427734
1054.5125088,327.670013427734
1054.5281338,327.670013427734
1054.5437588,327.670013427734
1054.5593838,327.670013427734
1054.5750088,327.670013427734
1054.5906338,327.670013427734
1054.6062588,327.670013427734
1054.6218838,327.670013427734
1054.6375088,327.670013427734
1054.6531338,323.640014648438
1054.6687588,302.850006103516
1054.6843838,281.220001220703
1054.7000088,259.269989013672
1054.7156338,237.729995727539
1054.7312588,217.589996337891
1054.7468838,199.949996948242
1054.7625088,185.669998168945
1054.7781338,174.529998779297
1054.7937588,163.880004882813
1054.8093838,148.520004272461
1054.8250088,123.419998168945
1054.8406338,87.0999984741211
1054.8562588,42.0499992370605
1054.8718838,-7.42000007629395
1054.8875088,-57.689998626709
1054.9031338,-106.370002746582
1054.9187588,-150.919998168945
1054.9343838,-187.330001831055
1054.9500088,-211.850006103516
1054.9656338,-223.759994506836
1054.9812588,-226.139999389648
1054.9968838,-223.059997558594
1055.0125088,-214.639999389648
1055.0281338,-194.699996948242
1055.0437588,-155.589996337891
1055.0593838,-94.120002746582
1055.0750088,-10.0200004577637
1055.0906338,98.7900009155273
1055.1062588,234.360000610352
1055.1218838,327.670013427734
1055.1375088,327.670013427734
1055.1531338,327.670013427734
1055.1687588,327.670013427734
1055.1843838,327.670013427734
1055.2000088,327.670013427734
1055.2156338,327.670013427734
1055.2312588,327.670013427734
1055.2468838,327.670013427734
1055.2625088,327.670013427734
1055.2781338,327.670013427734
1055.2937588,327.670013427734
1055.3093838,327.670013427734
1055.3250088,327.670013427734
1055.3406338,327.670013427734
1055.3562588,327.670013427734
1055.3718838,327.670013427734
1055.3875088,327.670013427734
1055.4031338,327.670013427734
1055.4187588,327.670013427734
1055.4343838,327.670013427734
1055.4500088,327.670013427734
1055.4656338,327.670013427734
1055.4812588,257.220001220703
1055.4968838,117.900001525879
1055.5125088,-16.2199993133545
1055.5281338,-138.880004882813
1055.5437588,-248.529998779297
1055.5593838,-327.679992675781
1055.5750088,-327.679992675781
1055.5906338,-327.679992675781
1055.6062588,-327.679992675781
1055.6218838,-327.679992675781
1055.6375088,-327.679992675781
1055.6531338,-327.679992675781
1055.6687588,-327.679992675781
1055.6843838,-327.679992675781
1055.7000088,-327.679992675781
1055.7156338,-327.679992675781
1055.7312588,-327.679992675781
1055.7468838,-327.679992675781
1055.7625088,-327.679992675781
1055.7781338,-327.679992675781
1055.7937588,-327.679992675781
1055.8093838,-327.679992675781
1055.8250088,-327.679992675781
1055.8406338,-327.679992675781
1055.8562588,-327.679992675781
1055.8718838,-327.679992675781
1055.8875088,-327.679992675781
1055.9031338,-327.679992675781
1055.9187588,-327.679992675781
1055.9343838,-327.679992675781
1055.9500088,-327.679992675781
1055.9656338,-327.679992675781
1055.9812588,-327.679992675781
1055.9968838,-327.679992675781
1056.0125088,-327.679992675781
1056.0281338,-327.679992675781
1056.0437588,-327.679992675781
1056.0593838,-327.679992675781
1056.0750088,-327.679992675781
1056.0906338,-327.679992675781
1056.1062588,-327.679992675781
1056.1218838,-327.679992675781
1056.1375088,-327.679992675781
1056.1531338,-327.679992675781
1056.1687588,-327.679992675781
1056.1843838,-327.679992675781
1056.2000088,-327.679992675781
1056.2156338,-327.679992675781
1056.2312588,-327.679992675781
1056.2468838,-327.679992675781
1056.2625088,-327.679992675781
1056.2781338,-327.679992675781
1056.2937588,-327.679992675781
1056.3093838,-327.679992675781
1056.3250088,-327.679992675781
1056.3406338,-327.679992675781
1056.3562588,-327.679992675781
1056.3718838,-327.679992675781
1056.3875088,-327.679992675781
1056.4031338,-327.679992675781
1056.4187588,-327.679992675781
1056.4343838,-327.679992675781
1056.4500088,-327.679992675781
1056.4656338,-327.679992675781
1056.4812588,-327.679992675781
1056.4968838,-285.720001220703
1056.5125088,-210.330001831055
1056.5281338,-139.460006713867
1056.5437588,-72.4000015258789
1056.5593838,-8.15999984741211
1056.5750088,54.0499992370605
1056.5906338,114.519996643066
1056.6062588,173.320007324219
1056.6218838,230.720001220703
1056.6375088,287.089996337891
1056.6531338,327.670013427734
1056.6687588,327.670013427734
1056.6843838,327.670013427734
1056.7000088,327.670013427734
1056.7156338,327.670013427734
1056.7312588,327.670013427734
1056.7468838,327.670013427734
1056.7625088,327.670013427734
1056.7781338,327.670013427734
1056.7937588,327.670013427734
1056.8093838,327.670013427734
1056.8250088,327.670013427734
1056.8406338,327.670013427734
1056.8562588,327.670013427734
1056.8718838,327.670013427734
1056.8875088,327.670013427734
1056.9031338,327.670013427734
1056.9187588,327.670013427734
1056.9343838,327.670013427734
1056.9500088,327.670013427734
1056.9656338,327.670013427734
1056.9812588,327.670013427734
1056.9968838,327.670013427734
1057.0125088,327.670013427734
1057.0281338,327.670013427734
1057.0437588,327.670013427734
1057.0593838,327.670013427734
1057.0750088,327.670013427734
1057.0906338,327.670013427734
1057.1062588,327.670013427734
1057.1218838,327.670013427734
1057.1375088,327.670013427734
1057.1531338,327.670013427734
1057.1687588,327.670013427734
1057.1843838,327.670013427734
1057.2000088,327.670013427734
1057.2156338,327.670013427734
1057.2312588,327.670013427734
1057.2468838,327.670013427734
1057.2625088,327.670013427734
1057.2781338,327.670013427734
1057.2937588,327.670013427734
1057.3093838,327.670013427734
