Time(s),Value(%)
1748.0087215,-25.9899997711182
1748.0243465,-24.3600006103516
1748.0399715,-22.3500003814697
1748.0555965,-20.2000007629395
1748.0712215,-18.1499996185303
1748.0868465,-16.2700004577637
1748.1024715,-14.7700004577637
1748.1180965,-13.8599996566772
1748.1337215,-13.3699998855591
1748.1493465,-12.6899995803833
1748.1649715,-11.1099996566772
1748.1805965,-8.30000019073486
1748.1962215,-3.86999988555908
1748.2118465,3.19000005722046
1748.2274715,14.1300001144409
1748.2430965,29.0
1748.2587215,45.6800003051758
1748.2743465,60.4300003051758
1748.2899715,69.6399993896484
1748.3055965,71.6100006103516
1748.3212215,67.3300018310547
1748.3368465,59.7599983215332
1748.3524715,52.060001373291
1748.3680965,46.2000007629395
1748.3837215,42.7900009155273
1748.3993465,41.4500007629395
1748.4149715,41.2299995422363
1748.4305965,40.8300018310547
1748.4462215,38.8699989318848
1748.4618465,34.3499984741211
1748.4774715,27.2399997711182
1748.4930965,18.6000003814697
1748.5087215,10.0
1748.5243465,2.55999994277954
1748.5399715,-3.50999999046326
1748.5555965,-8.52000045776367
1748.5712215,-12.5500001907349
1748.5868465,-15.4200000762939
1748.6024715,-17.1200008392334
1748.6180965,-18.2199993133545
1748.6337215,-19.75
1748.6493465,-22.6100006103516
1748.6649715,-26.8999996185303
1748.6805965,-31.5799999237061
1748.6962215,-35.3199996948242
1748.7118465,-37.6300010681152
1748.7274715,-38.9599990844727
1748.7430965,-39.8300018310547
1748.7587215,-40.3199996948242
1748.7743465,-40.1399993896484
1748.7899715,-38.7700004577637
1748.8055965,-35.7200012207031
1748.8212215,-31.0799999237061
1748.8368465,-25.8500003814697
1748.8524715,-21.4200000762939
1748.8680965,-18.6000003814697
1748.8837215,-17.3299999237061
1748.8993465,-16.9699993133545
1748.9149715,-17.0300006866455
1748.9305965,-17.3299999237061
1748.9462215,-17.8899993896484
1748.9618465,-18.7999992370605
1748.9774715,-20.0200004577637
1748.9930965,-21.1399993896484
1749.0087215,-21.3299999237061
1749.0243465,-19.8400001525879
1749.0399715,-16.6399993896484
1749.0555965,-12.6099996566772
1749.0712215,-8.89999961853027
1749.0868465,-5.98000001907349
1749.1024715,-2.9300000667572
1749.1180965,2.28999996185303
1749.1337215,11.4499998092651
1749.1493465,24.4400005340576
1749.1649715,39.2299995422363
1749.1805965,52.9099998474121
1749.1962215,63.1199989318848
1749.2118465,68.6999969482422
1749.2274715,69.5500030517578
1749.2430965,66.2099990844727
1749.2587215,59.810001373291
1749.2743465,52.060001373291
1749.2899715,44.6500015258789
1749.3055965,38.6399993896484
1749.3212215,33.9500007629395
1749.3368465,29.5499992370605
1749.3524715,24.0400009155273
1749.3680965,16.4200000762939
1749.3837215,6.80999994277954
1749.3993465,-3.16000008583069
1749.4149715,-11.0799999237061
1749.4305965,-15.1999998092651
1749.4462215,-15.6000003814697
1749.4618465,-13.9700002670288
1749.4774715,-12.2799997329712
1749.4930965,-11.4899997711182
1749.5087215,-11.3999996185303
1749.5243465,-11.4799995422363
1749.5399715,-11.6999998092651
1749.5555965,-12.6999998092651
1749.5712215,-15.1000003814697
1749.5868465,-18.9500007629395
1749.6024715,-23.7299995422363
1749.6180965,-28.6700000762939
1749.6337215,-32.8600006103516
1749.6493465,-35.5800018310547
1749.6649715,-36.689998626709
1749.6805965,-36.7700004577637
1749.6962215,-36.4500007629395
1749.7118465,-35.7700004577637
1749.7274715,-34.2200012207031
1749.7430965,-31.5799999237061
1749.7587215,-28.5499992370605
1749.7743465,-26.25
1749.7899715,-25.3600006103516
1749.8055965,-25.5400009155273
1749.8212215,-25.7399997711182
1749.8368465,-25.1200008392334
1749.8524715,-23.7099990844727
1749.8680965,-22.0300006866455
1749.8837215,-20.4300003051758
1749.8993465,-18.9599990844727
1749.9149715,-17.4699993133545
1749.9305965,-15.6800003051758
1749.9462215,-13.1400003433228
1749.9618465,-8.92000007629395
1749.9774715,-1.78999996185303
1749.9930965,9.0
1750.0087215,22.8500003814697
1750.0243465,37.6399993896484
1750.0399715,50.6800003051758
1750.0555965,59.9000015258789
1750.0712215,64.4400024414063
1750.0868465,64.620002746582
1750.1024715,61.4599990844727
1750.1180965,56.1399993896484
1750.1337215,49.7000007629395
1750.1493465,43.0999984741211
1750.1649715,37.1800003051758
1750.1805965,32.3899993896484
1750.1962215,28.2299995422363
1750.2118465,23.5799999237061
1750.2274715,17.7000007629395
1750.2430965,10.9899997711182
1750.2587215,4.59999990463257
1750.2743465,-0.360000014305115
1750.2899715,-3.26999998092651
1750.3055965,-3.83999991416931
1750.3212215,-1.92999994754791
1750.3368465,2.16000008583069
1750.3524715,7.44999980926514
1750.3680965,12.289999961853
1750.3837215,15.1700000762939
1750.3993465,15.5100002288818
1750.4149715,13.9099998474121
1750.4305965,11.6099996566772
1750.4462215,9.64000034332275
1750.4618465,8.40999984741211
1750.4774715,7.55999994277954
1750.4930965,6.19999980926514
1750.5087215,3.34999990463257
1750.5243465,-1.37999999523163
1750.5399715,-7.69999980926514
1750.5555965,-14.7799997329712
1750.5712215,-21.6399993896484
1750.5868465,-27.4300003051758
1750.6024715,-31.7600002288818
1750.6180965,-34.5200004577637
1750.6337215,-35.560001373291
1750.6493465,-34.7999992370605
1750.6649715,-32.8300018310547
1750.6805965,-30.9500007629395
1750.6962215,-30.3799991607666
1750.7118465,-31.4699993133545
1750.7274715,-33.7099990844727
1750.7430965,-36.1800003051758
1750.7587215,-38.0299987792969
1750.7743465,-38.6800003051758
1750.7899715,-37.4900016784668
1750.8055965,-33.3199996948242
1750.8212215,-25.0300006866455
1750.8368465,-12.5699996948242
1750.8524715,2.29999995231628
1750.8680965,16.5100002288818
1750.8837215,27.2299995422363
1750.8993465,33.5499992370605
1750.9149715,36.6599998474121
1750.9305965,38.560001373291
1750.9462215,40.560001373291
1750.9618465,42.4300003051758
1750.9774715,43.0099983215332
1750.9930965,41.3699989318848
1751.0087215,37.6300010681152
1751.0243465,32.689998626709
1751.0399715,27.2000007629395
1751.0555965,21.0300006866455
1751.0712215,13.9300003051758
1751.0868465,6.59999990463257
1751.1024715,0.670000016689301
1751.1180965,-2.3199999332428
1751.1337215,-2.17000007629395
1751.1493465,-0.209999993443489
1751.1649715,1.42999994754791
1751.1805965,0.949999988079071
1751.1962215,-2.25999999046326
1751.2118465,-7.53999996185303
1751.2274715,-13.4799995422363
1751.2430965,-18.7000007629395
1751.2587215,-22.4200000762939
1751.2743465,-24.6499996185303
1751.2899715,-26.0400009155273
1751.3055965,-27.3099994659424
1751.3212215,-28.5300006866455
1751.3368465,-29.0400009155273
1751.3524715,-28.2800006866455
1751.3680965,-26.8500003814697
1751.3837215,-26.4300003051758
1751.3993465,-28.4300003051758
1751.4149715,-32.4799995422363
1751.4305965,-36.2200012207031
1751.4462215,-36.8699989318848
1751.4618465,-33.0900001525879
1751.4774715,-25.8700008392334
1751.4930965,-17.8999996185303
1751.5087215,-11.9799995422363
1751.5243465,-9.40999984741211
1751.5399715,-9.39000034332275
1751.5555965,-9.72999954223633
1751.5712215,-7.92000007629395
1751.5868465,-1.98000001907349
1751.6024715,8.97000026702881
1751.6180965,24.1599998474121
1751.6337215,41.1500015258789
1751.6493465,56.689998626709
1751.6649715,68.0199966430664
1751.6805965,73.9199981689453
1751.6962215,75.0100021362305
1751.7118465,73.0800018310547
1751.7274715,69.9800033569336
1751.7430965,66.8099975585938
1751.7587215,63.6699981689453
1751.7743465,59.9099998474121
1751.7899715,54.6100006103516
1751.8055965,47.0699996948242
1751.8212215,37.2799987792969
1751.8368465,26.0400009155273
1751.8524715,14.8500003814697
1751.8680965,5.36999988555908
1751.8837215,-1.26999998092651
1751.8993465,-5.13000011444092
1751.9149715,-7.30000019073486
1751.9305965,-9.21000003814697
1751.9462215,-11.9799995422363
1751.9618465,-16.1100006103516
1751.9774715,-21.5499992370605
1751.9930965,-27.8099994659424
1752.0087215,-33.9599990844727
1752.0243465,-38.7599983215332
1752.0399715,-41.1699981689453
1752.0555965,-41.0200004577637
1752.0712215,-39.2200012207031
1752.0868465,-37.1300010681152
1752.1024715,-35.6399993896484
1752.1180965,-34.7799987792969
1752.1337215,-33.8699989318848
1752.1493465,-32.0200004577637
1752.1649715,-28.75
1752.1805965,-24.2099990844727
1752.1962215,-19.0900001525879
1752.2118465,-14.4099998474121
1752.2274715,-11.0799999237061
1752.2430965,-9.31999969482422
1752.2587215,-8.40999984741211
1752.2743465,-7.05999994277954
1752.2899715,-3.94000005722046
1752.3055965,2.08999991416931
1752.3212215,11.7799997329712
1752.3368465,24.8700008392334
1752.3524715,39.4300003051758
1752.3680965,52.3400001525879
1752.3837215,60.6399993896484
1752.3993465,62.8499984741211
1752.4149715,59.439998626709
1752.4305965,52.4099998474121
1752.4462215,43.939998626709
1752.4618465,35.2200012207031
1752.4774715,26.2800006866455
1752.4930965,16.7600002288818
1752.5087215,6.69999980926514
1752.5243465,-3.25
1752.5399715,-12.3100004196167
1752.5555965,-20.0200004577637
1752.5712215,-26.3899993896484
1752.5868465,-31.5200004577637
1752.6024715,-34.9799995422363
1752.6180965,-36.0400009155273
1752.6337215,-34.6699981689453
1752.6493465,-32.2900009155273
1752.6649715,-30.8899993896484
1752.6805965,-31.2900009155273
1752.6962215,-32.5900001525879
1752.7118465,-33.6100006103516
1752.7274715,-34.3400001525879
1752.7430965,-35.4300003051758
1752.7587215,-36.2700004577637
1752.7743465,-34.7000007629395
1752.7899715,-29.6299991607666
1752.8055965,-23.3799991607666
1752.8212215,-20.3099994659424
1752.8368465,-22.8600006103516
1752.8524715,-29.8500003814697
1752.8680965,-37.9300003051758
1752.8837215,-43.7700004577637
1752.8993465,-45.3699989318848
1752.9149715,-42.6699981689453
1752.9305965,-37.3600006103516
1752.9462215,-31.8400001525879
1752.9618465,-27.5599994659424
1752.9774715,-23.8099994659424
1752.9930965,-17.9699993133545
1753.0087215,-7.3899998664856
1753.0243465,8.36999988555908
1753.0399715,26.7199993133545
1753.0555965,43.2900009155273
1753.0712215,54.2900009155273
1753.0868465,58.1399993896484
1753.1024715,55.8300018310547
1753.1180965,50.0200004577637
1753.1337215,43.7099990844727
1753.1493465,39.0800018310547
1753.1649715,37.0400009155273
1753.1805965,37.3199996948242
1753.1962215,38.5099983215332
1753.2118465,38.189998626709
1753.2274715,33.8800010681152
1753.2430965,24.8099994659424
1753.2587215,12.8000001907349
1753.2743465,1.23000001907349
1753.2899715,-6.96000003814697
1753.3055965,-10.6199998855591
1753.3212215,-10.2399997711182
1753.3368465,-7.30000019073486
1753.3524715,-3.49000000953674
1753.3680965,-0.439999997615814
1753.3837215,0.370000004768372
1753.3993465,-1.82000005245209
1753.4149715,-6.53999996185303
1753.4305965,-12.5100002288818
1753.4462215,-18.6200008392334
1753.4618465,-24.2199993133545
1753.4774715,-28.6599998474121
1753.4930965,-30.9799995422363
1753.5087215,-30.4599990844727
1753.5243465,-27.4599990844727
1753.5399715,-23.5300006866455
1753.5555965,-20.3199996948242
1753.5712215,-18.3500003814697
1753.5868465,-17.1100006103516
1753.6024715,-16.0300006866455
1753.6180965,-14.960000038147
1753.6337215,-13.6899995803833
1753.6493465,-11.1499996185303
1753.6649715,-5.07999992370605
1753.6805965,6.61999988555908
1753.6962215,23.9200000762939
1753.7118465,43.8400001525879
1753.7274715,61.7799987792969
1753.7430965,73.879997253418
1753.7587215,78.4300003051758
1753.7743465,75.9400024414063
1753.7899715,68.4100036621094
1753.8055965,58.4799995422363
1753.8212215,48.6199989318848
1753.8368465,40.6300010681152
1753.8524715,35.2299995422363
1753.8680965,32.060001373291
1753.8837215,29.9599990844727
1753.8993465,27.5100002288818
1753.9149715,23.5300006866455
1753.9305965,17.5400009155273
1753.9462215,9.77999973297119
1753.9618465,1.13999998569489
1753.9774715,-6.98000001907349
1753.9930965,-13.1999998092651
1754.0087215,-16.7099990844727
1754.0243465,-17.7700004577637
1754.0399715,-17.6000003814697
1754.0555965,-17.8199996948242
1754.0712215,-19.75
1754.0868465,-23.8799991607666
1754.1024715,-29.6900005340576
1754.1180965,-35.9099998474121
1754.1337215,-41.1500015258789
1754.1493465,-44.3600006103516
1754.1649715,-45.060001373291
1754.1805965,-43.5400009155273
1754.1962215,-40.7599983215332
1754.2118465,-37.5800018310547
1754.2274715,-34.3600006103516
1754.2430965,-31.1900005340576
1754.2587215,-28.4099998474121
1754.2743465,-26.4599990844727
1754.2899715,-25.6299991607666
1754.3055965,-26.0799999237061
1754.3212215,-27.8899993896484
1754.3368465,-30.9799995422363
1754.3524715,-34.8800010681152
1754.3680965,-38.5099983215332
1754.3837215,-40.0499992370605
1754.3993465,-37.3600006103516
1754.4149715,-28.8500003814697
1754.4305965,-14.3500003814697
1754.4462215,4.5
1754.4618465,24.7800006866455
1754.4774715,43.3899993896484
1754.4930965,57.8199996948242
1754.5087215,66.4400024414063
1754.5243465,69.0100021362305
1754.5399715,66.8499984741211
1754.5555965,62.1399993896484
1754.5712215,57.060001373291
1754.5868465,53.1800003051758
1754.6024715,51.1399993896484
1754.6180965,50.5999984741211
1754.6337215,50.2999992370605
1754.6493465,48.3499984741211
1754.6649715,42.9300003051758
1754.6805965,33.2999992370605
1754.6962215,20.4200000762939
1754.7118465,6.6399998664856
1754.7274715,-5.46000003814697
1754.7430965,-14.3900003433228
1754.7587215,-19.8400001525879
1754.7743465,-22.1700000762939
1754.7899715,-22.1599998474121
1754.8055965,-21.2000007629395
1754.8212215,-20.8299999237061
1754.8368465,-22.0
1754.8524715,-24.6399993896484
1754.8680965,-27.9500007629395
1754.8837215,-30.8099994659424
1754.8993465,-31.9799995422363
1754.9149715,-30.7299995422363
1754.9305965,-27.2800006866455
1754.9462215,-22.6599998474121
1754.9618465,-17.9200000762939
1754.9774715,-13.6499996185303
1754.9930965,-10.0299997329712
1755.0087215,-7.21999979019165
1755.0243465,-5.38000011444092
1755.0399715,-4.59999990463257
1755.0555965,-4.84000015258789
1755.0712215,-5.86999988555908
1755.0868465,-7.46999979019165
1755.1024715,-9.53999996185303
1755.1180965,-12.0100002288818
1755.1337215,-14.7600002288818
1755.1493465,-17.3400001525879
1755.1649715,-18.3199996948242
1755.1805965,-15.4899997711182
1755.1962215,-7.09000015258789
1755.2118465,6.84000015258789
1755.2274715,24.1000003814697
1755.2430965,40.9599990844727
1755.2587215,53.6800003051758
1755.2743465,60.0299987792969
1755.2899715,60.1399993896484
1755.3055965,56.1100006103516
1755.3212215,50.5900001525879
1755.3368465,45.2400016784668
1755.3524715,40.3300018310547
1755.3680965,35.2900009155273
1755.3837215,29.4899997711182
1755.3993465,22.4599990844727
1755.4149715,14.0600004196167
1755.4305965,4.75
1755.4462215,-4.44000005722046
1755.4618465,-12.539999961853
1755.4774715,-19.1299991607666
1755.4930965,-24.3400001525879
1755.5087215,-28.3500003814697
1755.5243465,-31.25
1755.5399715,-33.2000007629395
1755.5555965,-34.4799995422363
1755.5712215,-35.5
1755.5868465,-36.8800010681152
1755.6024715,-39.2099990844727
1755.6180965,-42.4900016784668
1755.6337215,-46.1399993896484
1755.6493465,-49.3899993896484
1755.6649715,-51.560001373291
1755.6805965,-52.2799987792969
1755.6962215,-51.7200012207031
1755.7118465,-50.5499992370605
1755.7274715,-49.3199996948242
1755.7430965,-48.1500015258789
1755.7587215,-46.9599990844727
1755.7743465,-45.7200012207031
1755.7899715,-44.3499984741211
1755.8055965,-42.7099990844727
1755.8212215,-40.8300018310547
1755.8368465,-39.060001373291
1755.8524715,-37.7700004577637
1755.8680965,-36.8800010681152
1755.8837215,-35.4599990844727
1755.8993465,-31.9200000762939
1755.9149715,-24.3899993896484
1755.9305965,-11.289999961853
1755.9462215,7.63000011444092
1755.9618465,30.1900005340576
1755.9774715,51.7200012207031
1755.9930965,67.0199966430664
1756.0087215,73.2200012207031
1756.0243465,71.1600036621094
1756.0399715,64.5299987792969
1756.0555965,57.6199989318848
1756.0712215,53.2700004577637
1756.0868465,52.0400009155273
1756.1024715,52.7900009155273
1756.1180965,53.7099990844727
1756.1337215,53.1399993896484
1756.1493465,49.8800010681152
1756.1649715,43.4799995422363
1756.1805965,34.4300003051758
1756.1962215,24.2199993133545
1756.2118465,14.8199996948242
1756.2274715,7.6100001335144
1756.2430965,2.5699999332428
1756.2587215,-1.42999994754791
1756.2743465,-5.48999977111816
1756.2899715,-9.86999988555908
1756.3055965,-14.2600002288818
1756.3212215,-18.3500003814697
1756.3368465,-22.2999992370605
1756.3524715,-26.6900005340576
1756.3680965,-32.1599998474121
1756.3837215,-38.9900016784668
1756.3993465,-46.9599990844727
1756.4149715,-55.1399993896484
1756.4305965,-62.0200004577637
1756.4462215,-66.2099990844727
1756.4618465,-67.1500015258789
1756.4774715,-64.9700012207031
1756.4930965,-60.0200004577637
1756.5087215,-52.5900001525879
1756.5243465,-43.2700004577637
1756.5399715,-33.2099990844727
1756.5555965,-23.8500003814697
1756.5712215,-16.3999996185303
1756.5868465,-11.4799995422363
1756.6024715,-8.85999965667725
1756.6180965,-7.34999990463257
1756.6337215,-5.01000022888184
1756.6493465,0.389999985694885
1756.6649715,10.6199998855591
1756.6805965,26.1599998474121
1756.6962215,45.7799987792969
1756.7118465,66.7399978637695
1756.7274715,85.4000015258789
1756.7430965,98.4499969482422
1756.7587215,104.180000305176
1756.7743465,103.230003356934
1756.7899715,98.0199966430664
1756.8055965,91.4899978637695
1756.8212215,85.8600006103516
1756.8368465,81.9700012207031
1756.8524715,79.2399978637695
1756.8680965,76.3399963378906
1756.8837215,71.9899978637695
1756.8993465,65.2600021362305
1756.9149715,55.7099990844727
1756.9305965,43.7400016784668
1756.9462215,30.8700008392334
1756.9618465,19.3600006103516
1756.9774715,10.9399995803833
1756.9930965,5.63000011444092
1757.0087215,1.75
1757.0243465,-2.73000001907349
1757.0399715,-8.5600004196167
1757.0555965,-14.6800003051758
1757.0712215,-19.2299995422363
1757.0868465,-21.1000003814697
1757.1024715,-20.7700004577637
1757.1180965,-19.9300003051758
1757.1337215,-20.2700004577637
1757.1493465,-22.4799995422363
1757.1649715,-26.1700000762939
1757.1805965,-30.25
1757.1962215,-33.6500015258789
1757.2118465,-35.9000015258789
1757.2274715,-37.2700004577637
1757.2430965,-38.1699981689453
1757.2587215,-38.6100006103516
1757.2743465,-38.1800003051758
1757.2899715,-36.3899993896484
1757.3055965,-33.0800018310547
1757.3212215,-28.7999992370605
1757.3368465,-24.7700004577637
1757.3524715,-22.2000007629395
1757.3680965,-21.3999996185303
1757.3837215,-21.5799999237061
1757.3993465,-21.4500007629395
1757.4149715,-19.8099994659424
1757.4305965,-15.6800003051758
1757.4462215,-8.0
1757.4618465,4.09000015258789
1757.4774715,20.2999992370605
1757.4930965,38.5400009155273
1757.5087215,55.5499992370605
1757.5243465,68.4300003051758
1757.5399715,75.8399963378906
1757.5555965,77.9899978637695
1757.5712215,75.9800033569336
1757.5868465,71.129997253418
1757.6024715,64.6500015258789
1757.6180965,57.5699996948242
1757.6337215,50.7999992370605
1757.6493465,45.0999984741211
1757.6649715,40.6599998474121
1757.6805965,36.6100006103516
1757.6962215,31.3899993896484
1757.7118465,23.8400001525879
1757.7274715,14.1199998855591
1757.7430965,3.70000004768372
1757.7587215,-5.71000003814697
1757.7743465,-13.3400001525879
1757.7899715,-19.4300003051758
1757.8055965,-24.4400005340576
1757.8212215,-28.5300006866455
1757.8368465,-31.6900005340576
1757.8524715,-34.0
1757.8680965,-35.6399993896484
1757.8837215,-36.8600006103516
1757.8993465,-37.8300018310547
1757.9149715,-38.7400016784668
1757.9305965,-39.7400016784668
1757.9462215,-40.8800010681152
1757.9618465,-42.2099990844727
1757.9774715,-43.8400001525879
1757.9930965,-45.7999992370605
1758.0087215,-47.810001373291
1758.0243465,-49.3899993896484
1758.0399715,-50.1300010681152
1758.0555965,-49.9700012207031
1758.0712215,-49.2200012207031
1758.0868465,-48.3400001525879
1758.1024715,-47.6800003051758
1758.1180965,-47.3300018310547
1758.1337215,-47.0
1758.1493465,-45.7799987792969
1758.1649715,-42.5900001525879
1758.1805965,-36.7799987792969
1758.1962215,-28.1399993896484
1758.2118465,-16.4200000762939
1758.2274715,-1.61000001430511
1758.2430965,15.1199998855591
1758.2587215,31.1700000762939
1758.2743465,43.6399993896484
1758.2899715,50.8300018310547
1758.3055965,52.75
1758.3212215,50.6699981689453
