Time(s),Value(%)
1103.006776,64.1900024414063
1103.022401,70.5
1103.038026,74.9599990844727
1103.053651,77.6900024414063
1103.069276,79.2699966430664
1103.084901,80.2799987792969
1103.100526,80.879997253418
1103.116151,80.9300003051758
1103.131776,80.2900009155273
1103.147401,78.9599990844727
1103.163026,77.0999984741211
1103.178651,74.879997253418
1103.194276,72.4899978637695
1103.209901,70.0500030517578
1103.225526,67.5400009155273
1103.241151,64.7600021362305
1103.256776,61.3300018310547
1103.272401,57.0099983215332
1103.288026,51.9500007629395
1103.303651,46.6599998474121
1103.319276,41.6699981689453
1103.334901,37.2799987792969
1103.350526,33.5499992370605
1103.366151,30.3899993896484
1103.381776,27.7399997711182
1103.397401,25.5799999237061
1103.413026,23.8799991607666
1103.428651,22.5799999237061
1103.444276,21.6200008392334
1103.459901,20.9400005340576
1103.475526,20.5
1103.491151,20.3600006103516
1103.506776,20.8199996948242
1103.522401,21.9400005340576
1103.538026,23.7999992370605
1103.553651,26.1900005340576
1103.569276,28.7600002288818
1103.584901,31.1499996185303
1103.600526,33.1599998474121
1103.616151,34.7999992370605
1103.631776,36.1500015258789
1103.647401,37.2599983215332
1103.663026,38.0
1103.678651,38.2000007629395
1103.694276,37.7700004577637
1103.709901,36.689998626709
1103.725526,34.8699989318848
1103.741151,32.25
1103.756776,28.9400005340576
1103.772401,25.3199996948242
1103.788026,21.8899993896484
1103.803651,18.8600006103516
1103.819276,15.8900003433228
1103.834901,12.5299997329712
1103.850526,8.73999977111816
1103.866151,4.98000001907349
1103.881776,1.77999997138977
1103.897401,-0.579999983310699
1103.913026,-2.24000000953674
1103.928651,-3.64000010490417
1103.944276,-5.44999980926514
1103.959901,-8.15999984741211
1103.975526,-11.8400001525879
1103.991151,-16.0200004577637
1104.006776,-19.9799995422363
1104.022401,-23.0900001525879
1104.038026,-25.0300006866455
1104.053651,-25.5400009155273
1104.069276,-24.1000003814697
1104.084901,-20.2700004577637
1104.100526,-14.1599998474121
1104.116151,-6.65999984741211
1104.131776,1.0
1104.147401,7.78999996185303
1104.163026,13.2399997711182
1104.178651,17.5200004577637
1104.194276,21.0499992370605
1104.209901,24.0499992370605
1104.225526,26.2999992370605
1104.241151,27.4099998474121
1104.256776,27.1700000762939
1104.272401,25.7000007629395
1104.288026,23.1900005340576
1104.303651,19.8500003814697
1104.319276,16.0
1104.334901,12.2299995422363
1104.350526,9.3100004196167
1104.366151,7.65000009536743
1104.381776,6.98999977111816
1104.397401,6.61999988555908
1104.413026,6.13000011444092
1104.428651,5.61999988555908
1104.444276,5.3899998664856
1104.459901,5.63000011444092
1104.475526,6.28999996185303
1104.491151,7.01999998092651
1104.506776,7.32000017166138
1104.522401,6.73999977111816
1104.538026,5.23000001907349
1104.553651,3.1800000667572
1104.569276,1.22000002861023
1104.584901,-0.0599999986588955
1104.600526,-0.400000005960464
1104.616151,0.439999997615814
1104.631776,2.89000010490417
1104.647401,7.32000017166138
1104.663026,13.6000003814697
1104.678651,20.9200000762939
1104.694276,28.1499996185303
1104.709901,34.2299995422363
1104.725526,38.5099983215332
1104.741151,40.9199981689453
1104.756776,41.8899993896484
1104.772401,42.1199989318848
1104.788026,42.2099990844727
1104.803651,42.3600006103516
1104.819276,42.3800010681152
1104.834901,41.9700012207031
1104.850526,41.2200012207031
1104.866151,40.5
1104.881776,40.1199989318848
1104.897401,39.9900016784668
1104.913026,39.5499992370605
1104.928651,38.2700004577637
1104.944276,36.1399993896484
1104.959901,33.3899993896484
1104.975526,30.0499992370605
1104.991151,25.7600002288818
1105.006776,20.1800003051758
1105.022401,13.5
1105.038026,6.57000017166138
1105.053651,0.5
1105.069276,-3.95000004768372
1105.084901,-6.48000001907349
1105.100526,-6.90000009536743
1105.116151,-5.09000015258789
1105.131776,-1.16999995708466
1105.147401,4.40000009536743
1105.163026,10.8999996185303
1105.178651,17.5100002288818
1105.194276,23.6599998474121
1105.209901,29.1000003814697
1105.225526,33.8800010681152
1105.241151,38.189998626709
1105.256776,42.1699981689453
1105.272401,45.7999992370605
1105.288026,48.8199996948242
1105.303651,50.9500007629395
1105.319276,52.0999984741211
1105.334901,52.4099998474121
1105.350526,52.0800018310547
1105.366151,51.1699981689453
1105.381776,49.6199989318848
1105.397401,47.439998626709
1105.413026,44.9199981689453
1105.428651,42.5400009155273
1105.444276,40.6800003051758
1105.459901,39.3800010681152
1105.475526,38.4300003051758
1105.491151,37.3400001525879
1105.506776,35.560001373291
1105.522401,32.5900001525879
1105.538026,28.3999996185303
1105.553651,23.2700004577637
1105.569276,17.5
1105.584901,11.3400001525879
1105.600526,5.03000020980835
1105.616151,-0.879999995231628
1105.631776,-5.5
1105.647401,-7.82000017166138
1105.663026,-7.17000007629395
1105.678651,-3.5
1105.694276,2.60999989509583
1105.709901,10.210000038147
1105.725526,18.2299995422363
1105.741151,25.8400001525879
1105.756776,32.6100006103516
1105.772401,38.3499984741211
1105.788026,43.0400009155273
1105.803651,46.689998626709
1105.819276,49.4500007629395
1105.834901,51.5200004577637
1105.850526,53.1599998474121
1105.866151,54.5499992370605
1105.881776,55.7000007629395
1105.897401,56.3899993896484
1105.913026,56.1100006103516
1105.928651,54.4000015258789
1105.944276,51.1800003051758
1105.959901,46.7700004577637
1105.975526,41.6300010681152
1105.991151,36.1300010681152
1106.006776,30.5400009155273
1106.022401,25.1200008392334
1106.038026,20.0400009155273
1106.053651,15.2799997329712
1106.069276,10.4799995422363
1106.084901,5.19999980926514
1106.100526,-0.579999983310699
1106.116151,-6.59000015258789
1106.131776,-12.3800001144409
1106.147401,-17.7000007629395
1106.163026,-22.4899997711182
1106.178651,-26.6499996185303
1106.194276,-29.8600006103516
1106.209901,-31.5799999237061
1106.225526,-31.2199993133545
1106.241151,-28.5799999237061
1106.256776,-24.0300006866455
1106.272401,-18.4500007629395
1106.288026,-12.7799997329712
1106.303651,-7.67999982833862
1106.319276,-3.45000004768372
1106.334901,-0.180000007152557
1106.350526,2.00999999046326
1106.366151,3.04999995231628
1106.381776,2.99000000953674
1106.397401,2.11999988555908
1106.413026,0.769999980926514
1106.428651,-0.759999990463257
1106.444276,-2.35999989509583
1106.459901,-4.07999992370605
1106.475526,-6.1399998664856
1106.491151,-8.85000038146973
1106.506776,-12.3699998855591
1106.522401,-16.6299991607666
1106.538026,-21.2800006866455
1106.553651,-25.9099998474121
1106.569276,-30.2099990844727
1106.584901,-34.0499992370605
1106.600526,-37.5400009155273
1106.616151,-41.0
1106.631776,-44.9199981689453
1106.647401,-49.6800003051758
1106.663026,-55.2799987792969
1106.678651,-61.1500015258789
1106.694276,-66.379997253418
1106.709901,-70.1600036621094
1106.725526,-72.2099990844727
1106.741151,-72.620002746582
1106.756776,-71.5299987792969
1106.772401,-68.8199996948242
1106.788026,-64.3499984741211
1106.803651,-58.3300018310547
1106.819276,-51.6399993896484
1106.834901,-45.4500007629395
1106.850526,-40.5699996948242
1106.866151,-37.1500015258789
1106.881776,-34.8600006103516
1106.897401,-33.3300018310547
1106.913026,-32.5499992370605
1106.928651,-32.7400016784668
1106.944276,-33.9799995422363
1106.959901,-36.0800018310547
1106.975526,-38.6500015258789
1106.991151,-41.310001373291
1107.006776,-43.8300018310547
1107.022401,-46.1199989318848
1107.038026,-48.2700004577637
1107.053651,-50.5200004577637
1107.069276,-53.2099990844727
1107.084901,-56.5499992370605
1107.100526,-60.4799995422363
1107.116151,-64.6500015258789
1107.131776,-68.6600036621094
1107.147401,-72.2399978637695
1107.163026,-75.3600006103516
1107.178651,-78.2200012207031
1107.194276,-81.25
1107.209901,-84.8199996948242
1107.225526,-88.9800033569336
1107.241151,-93.3499984741211
1107.256776,-97.2699966430664
1107.272401,-100.180000305176
1107.288026,-101.830001831055
1107.303651,-102.139999389648
1107.319276,-100.919998168945
1107.334901,-97.8000030517578
1107.350526,-92.4800033569336
1107.366151,-85.1399993896484
1107.381776,-76.6500015258789
1107.397401,-68.25
1107.413026,-61.0099983215332
1107.428651,-55.4300003051758
1107.444276,-51.3699989318848
1107.459901,-48.5099983215332
1107.475526,-46.75
1107.491151,-46.2900009155273
1107.506776,-47.2799987792969
1107.522401,-49.5400009155273
1107.538026,-52.4500007629395
1107.553651,-55.2299995422363
1107.569276,-57.3300018310547
1107.584901,-58.5900001525879
1107.600526,-59.2599983215332
1107.616151,-59.939998626709
1107.631776,-61.4000015258789
1107.647401,-64.25
1107.663026,-68.5899963378906
1107.678651,-74.1800003051758
1107.694276,-80.8399963378906
1107.709901,-88.5
1107.725526,-96.8399963378906
1107.741151,-104.970001220703
1107.756776,-111.540000915527
1107.772401,-115.339996337891
1107.788026,-115.970001220703
1107.803651,-113.730003356934
1107.819276,-109.169998168945
1107.834901,-102.830001831055
1107.850526,-95.2799987792969
1107.866151,-87.1600036621094
1107.881776,-79.0299987792969
1107.897401,-71.1600036621094
1107.913026,-63.5200004577637
1107.928651,-55.9099998474121
1107.944276,-48.1800003051758
1107.959901,-40.4000015258789
1107.975526,-32.7700004577637
1107.991151,-25.5400009155273
1108.006776,-18.8500003814697
1108.022401,-12.8299999237061
1108.038026,-7.6100001335144
1108.053651,-3.29999995231628
1108.069276,0.129999995231628
1108.084901,2.97000002861023
1108.100526,5.55000019073486
1108.116151,8.18000030517578
1108.131776,10.9700002670288
1108.147401,13.8900003433228
1108.163026,16.7900009155273
1108.178651,19.3400001525879
1108.194276,21.1000003814697
1108.209901,21.7099990844727
1108.225526,21.1399993896484
1108.241151,19.5699996948242
1108.256776,17.1700000762939
1108.272401,14.0500001907349
1108.288026,10.4099998474121
1108.303651,6.75
1108.319276,3.82999992370605
1108.334901,2.50999999046326
1108.350526,3.45000004768372
1108.366151,6.8899998664856
1108.381776,12.6700000762939
1108.397401,20.1700000762939
1108.413026,28.5599994659424
1108.428651,37.0
1108.444276,44.8400001525879
1108.459901,51.6100006103516
1108.475526,56.9099998474121
1108.491151,60.5
1108.506776,62.5
1108.522401,63.2700004577637
1108.538026,63.189998626709
1108.553651,62.5200004577637
1108.569276,61.4500007629395
1108.584901,60.1399993896484
1108.600526,58.7099990844727
1108.616151,57.1399993896484
1108.631776,55.2700004577637
1108.647401,53.0
1108.663026,50.5299987792969
1108.678651,48.2799987792969
1108.694276,46.5400009155273
1108.709901,45.3800010681152
1108.725526,44.6100006103516
1108.741151,43.7700004577637
1108.756776,42.2700004577637
1108.772401,39.6500015258789
1108.788026,35.8899993896484
1108.803651,31.4400005340576
1108.819276,26.9400005340576
1108.834901,22.9400005340576
1108.850526,19.7199993133545
1108.866151,17.5300006866455
1108.881776,16.8400001525879
1108.897401,18.2399997711182
1108.913026,22.1499996185303
1108.928651,28.3999996185303
1108.944276,36.189998626709
1108.959901,44.4099998474121
1108.975526,52.0999984741211
1108.991151,58.7900009155273
1109.006776,64.4000015258789
1109.022401,68.8899993896484
1109.038026,71.9599990844727
1109.053651,73.2300033569336
1109.069276,72.6900024414063
1109.084901,70.7200012207031
1109.100526,67.8499984741211
1109.116151,64.5400009155273
1109.131776,61.1100006103516
1109.147401,57.8300018310547
1109.163026,54.8699989318848
1109.178651,52.2400016784668
1109.194276,49.7099990844727
1109.209901,47.0
1109.225526,44.0900001525879
1109.241151,41.2099990844727
1109.256776,38.6300010681152
1109.272401,36.4799995422363
1109.288026,34.6699981689453
1109.303651,32.8400001525879
1109.319276,30.4599990844727
1109.334901,27.0799999237061
1109.350526,22.7199993133545
1109.366151,18.0100002288818
1109.381776,14.0299997329712
1109.397401,11.7399997711182
1109.413026,11.4799995422363
1109.428651,13.0799999237061
1109.444276,16.3600006103516
1109.459901,21.2299995422363
1109.475526,27.3799991607666
1109.491151,34.0900001525879
1109.506776,40.1800003051758
1109.522401,44.5999984741211
1109.538026,46.939998626709
1109.553651,47.5900001525879
1109.569276,47.2599983215332
1109.584901,46.3899993896484
1109.600526,44.7999992370605
1109.616151,42.0
1109.631776,37.7299995422363
1109.647401,32.1300010681152
1109.663026,25.5100002288818
1109.678651,18.2000007629395
1109.694276,10.6199998855591
1109.709901,3.36999988555908
1109.725526,-2.75999999046326
1109.741151,-7.3600001335144
1109.756776,-10.7200002670288
1109.772401,-13.5200004577637
1109.788026,-16.1800003051758
1109.803651,-18.6800003051758
1109.819276,-20.7700004577637
1109.834901,-22.2999992370605
1109.850526,-23.3099994659424
1109.866151,-24.0499992370605
1109.881776,-24.7999992370605
1109.897401,-25.7999992370605
1109.913026,-27.0499992370605
1109.928651,-28.2800006866455
1109.944276,-28.9899997711182
1109.959901,-28.75
1109.975526,-27.4099998474121
1109.991151,-25.0100002288818
1110.006776,-21.5100002288818
1110.022401,-16.9599990844727
1110.038026,-11.8000001907349
1110.053651,-6.82000017166138
1110.069276,-2.95000004768372
1110.084901,-0.939999997615814
1110.100526,-1.13999998569489
1110.116151,-3.4300000667572
1110.131776,-7.1399998664856
1110.147401,-11.3100004196167
1110.163026,-15.0200004577637
1110.178651,-17.8400001525879
1110.194276,-20.0699996948242
1110.209901,-22.2399997711182
1110.225526,-24.4599990844727
1110.241151,-26.3600006103516
1110.256776,-27.5200004577637
1110.272401,-27.8299999237061
1110.288026,-27.5200004577637
1110.303651,-27.2299995422363
1110.319276,-27.8199996948242
1110.334901,-29.9500007629395
1110.350526,-33.689998626709
1110.366151,-38.6800003051758
1110.381776,-44.4599990844727
1110.397401,-50.689998626709
1110.413026,-56.9900016784668
1110.428651,-62.5800018310547
1110.444276,-66.1999969482422
1110.459901,-66.5599975585938
1110.475526,-63.1100006103516
1110.491151,-56.1699981689453
1110.506776,-46.689998626709
1110.522401,-35.8199996948242
1110.538026,-24.6299991607666
1110.553651,-13.8800001144409
1110.569276,-4.01999998092651
1110.584901,4.5
1110.600526,11.0799999237061
1110.616151,15.1800003051758
1110.631776,16.8199996948242
1110.647401,16.5200004577637
1110.663026,14.9300003051758
1110.678651,12.539999961853
1110.694276,9.77999973297119
1110.709901,7.13000011444092
1110.725526,5.15000009536743
1110.741151,4.09999990463257
1110.756776,3.67000007629395
1110.772401,3.30999994277954
1110.788026,2.77999997138977
1110.803651,2.28999996185303
1110.819276,2.16000008583069
1110.834901,2.55999994277954
1110.850526,3.39000010490417
1110.866151,4.30000019073486
1110.881776,4.82999992370605
1110.897401,4.65999984741211
1110.913026,3.78999996185303
1110.928651,2.78999996185303
1110.944276,2.64000010490417
1110.959901,4.19999980926514
1110.975526,7.73000001907349
1110.991151,13.0100002288818
1111.006776,19.8600006103516
1111.022401,28.3799991607666
1111.038026,38.7700004577637
1111.053651,50.7099990844727
1111.069276,62.9900016784668
1111.084901,74.0899963378906
1111.100526,82.9800033569336
1111.116151,89.5400009155273
1111.131776,94.3600006103516
1111.147401,98.0999984741211
1111.163026,100.98999786377
1111.178651,102.959999084473
1111.194276,103.889999389648
1111.209901,103.949996948242
1111.225526,103.580001831055
1111.241151,103.199996948242
1111.256776,103.040000915527
1111.272401,102.980003356934
1111.288026,102.580001831055
1111.303651,101.400001525879
1111.319276,99.2200012207031
1111.334901,96.0800018310547
1111.350526,92.1999969482422
1111.366151,87.8600006103516
1111.381776,83.2900009155273
1111.397401,78.6999969482422
1111.413026,74.2399978637695
1111.428651,70.120002746582
1111.444276,66.6800003051758
1111.459901,64.1800003051758
1111.475526,62.7200012207031
1111.491151,62.4099998474121
1111.506776,63.6300010681152
1111.522401,66.7699966430664
1111.538026,71.6900024414063
1111.553651,77.5500030517578
1111.569276,83.1500015258789
1111.584901,87.5999984741211
1111.600526,90.7300033569336
1111.616151,92.6600036621094
1111.631776,93.1900024414063
1111.647401,91.870002746582
1111.663026,88.5299987792969
1111.678651,83.5899963378906
1111.694276,77.8000030517578
1111.709901,71.8000030517578
1111.725526,65.9000015258789
1111.741151,60.0099983215332
1111.756776,54.0099983215332
1111.772401,47.810001373291
1111.788026,41.4700012207031
1111.803651,35.1199989318848
1111.819276,28.8700008392334
1111.834901,22.75
1111.850526,16.6100006103516
1111.866151,10.2399997711182
1111.881776,3.41000008583069
1111.897401,-3.94000005722046
1111.913026,-11.6599998474121
1111.928651,-19.3999996185303
1111.944276,-26.8500003814697
1111.959901,-33.7999992370605
1111.975526,-40.1100006103516
1111.991151,-45.2799987792969
1112.006776,-48.2799987792969
1112.022401,-48.1599998474121
1112.038026,-44.7900009155273
1112.053651,-38.9000015258789
1112.069276,-31.4599990844727
1112.084901,-23.2600002288818
1112.100526,-14.9700002670288
1112.116151,-7.51999998092651
1112.131776,-2.11999988555908
1112.147401,0.219999998807907
1112.163026,-0.569999992847443
1112.178651,-3.88000011444092
1112.194276,-8.85999965667725
1112.209901,-14.8699998855591
1112.225526,-21.4400005340576
1112.241151,-28.2000007629395
1112.256776,-34.8400001525879
1112.272401,-41.3199996948242
1112.288026,-47.7900009155273
1112.303651,-54.5099983215332
1112.319276,-61.5900001525879
1112.334901,-69.0400009155273
1112.350526,-76.9000015258789
1112.366151,-85.1900024414063
1112.381776,-93.7699966430664
1112.397401,-102.220001220703
1112.413026,-110.029998779297
1112.428651,-116.830001831055
1112.444276,-122.690002441406
1112.459901,-127.879997253418
1112.475526,-132.470001220703
1112.491151,-136.279998779297
1112.506776,-138.759994506836
1112.522401,-140.380004882813
1112.538026,-141.259994506836
1112.553651,-141.270004272461
1112.569276,-139.820007324219
1112.584901,-136.25
1112.600526,-130.5
1112.616151,-123.339996337891
1112.631776,-115.98999786377
1112.647401,-109.519996643066
1112.663026,-104.449996948242
1112.678651,-100.910003662109
1112.694276,-98.9800033569336
1112.709901,-98.8899993896484
1112.725526,-100.769996643066
1112.741151,-104.370002746582
1112.756776,-108.919998168945
1112.772401,-113.629997253418
1112.788026,-118.209999084473
1112.803651,-122.830001831055
1112.819276,-127.699996948242
1112.834901,-132.589996337891
1112.850526,-136.869995117188
1112.866151,-140.100006103516
1112.881776,-142.570007324219
1112.897401,-144.889999389648
1112.913026,-147.220001220703
1112.928651,-149.160003662109
1112.944276,-150.199996948242
1112.959901,-150.110000610352
1112.975526,-149.029998779297
1112.991151,-147.270004272461
1113.006776,-145.050003051758
1113.022401,-142.440002441406
1113.038026,-139.449996948242
1113.053651,-136.009994506836
1113.069276,-131.970001220703
1113.084901,-127.23999786377
1113.100526,-121.809997558594
1113.116151,-115.639999389648
1113.131776,-108.540000915527
1113.147401,-100.360000610352
1113.163026,-91.3300018310547
1113.178651,-82.1399993896484
1113.194276,-73.5999984741211
1113.209901,-66.2600021362305
1113.225526,-60.1800003051758
1113.241151,-55.0
1113.256776,-50.2599983215332
1113.272401,-45.7400016784668
1113.288026,-41.6300010681152
1113.303651,-38.2799987792969
1113.319276,-35.8499984741211
1113.334901,-34.1599998474121
1113.350526,-32.8199996948242
1113.366151,-31.4400005340576
1113.381776,-29.7999992370605
1113.397401,-27.8500003814697
1113.413026,-25.7099990844727
1113.428651,-23.5
1113.444276,-21.3799991607666
1113.459901,-19.6100006103516
1113.475526,-18.6599998474121
1113.491151,-18.9599990844727
1113.506776,-20.3700008392334
1113.522401,-22.2800006866455
1113.538026,-23.4599990844727
1113.553651,-22.7199993133545
1113.569276,-19.3199996948242
1113.584901,-13.1199998855591
1113.600526,-4.38000011444092
1113.616151,6.3600001335144
1113.631776,18.5
1113.647401,31.3700008392334
1113.663026,44.2700004577637
1113.678651,56.4599990844727
1113.694276,67.2099990844727
1113.709901,76.0199966430664
1113.725526,82.8600006103516
1113.741151,88.0400009155273
1113.756776,91.9300003051758
1113.772401,94.8399963378906
1113.788026,97.0199966430664
1113.803651,98.7300033569336
