Time(s),Value(℃)
1103.006776,147.889999389648
1103.022401,147.839996337891
1103.038026,147.800003051758
1103.053651,147.759994506836
1103.069276,147.710006713867
1103.084901,147.669998168945
1103.100526,147.630004882813
1103.116151,147.589996337891
1103.131776,147.539993286133
1103.147401,147.5
1103.163026,147.460006713867
1103.178651,147.419998168945
1103.194276,147.380004882813
1103.209901,147.339996337891
1103.225526,147.309997558594
1103.241151,147.270004272461
1103.256776,147.240005493164
1103.272401,147.210006713867
1103.288026,147.179992675781
1103.303651,147.149993896484
1103.319276,147.130004882813
1103.334901,147.110000610352
1103.350526,147.089996337891
1103.366151,147.070007324219
1103.381776,147.050003051758
1103.397401,147.039993286133
1103.413026,147.020004272461
1103.428651,147.009994506836
1103.444276,147.0
1103.459901,146.990005493164
1103.475526,146.979995727539
1103.491151,146.970001220703
1103.506776,146.960006713867
1103.522401,146.949996948242
1103.538026,146.940002441406
1103.553651,146.929992675781
1103.569276,146.919998168945
1103.584901,146.919998168945
1103.600526,146.910003662109
1103.616151,146.899993896484
1103.631776,146.889999389648
1103.647401,146.889999389648
1103.663026,146.880004882813
1103.678651,146.869995117188
1103.694276,146.860000610352
1103.709901,146.850006103516
1103.725526,146.850006103516
1103.741151,146.839996337891
1103.756776,146.830001831055
1103.772401,146.830001831055
1103.788026,146.820007324219
1103.803651,146.809997558594
1103.819276,146.809997558594
1103.834901,146.800003051758
1103.850526,146.800003051758
1103.866151,146.789993286133
1103.881776,146.779998779297
1103.897401,146.779998779297
1103.913026,146.770004272461
1103.928651,146.770004272461
1103.944276,146.759994506836
1103.959901,146.75
1103.975526,146.740005493164
1103.991151,146.740005493164
1104.006776,146.729995727539
1104.022401,146.720001220703
1104.038026,146.720001220703
1104.053651,146.710006713867
1104.069276,146.710006713867
1104.084901,146.710006713867
1104.100526,146.710006713867
1104.116151,146.710006713867
1104.131776,146.699996948242
1104.147401,146.699996948242
1104.163026,146.699996948242
1104.178651,146.699996948242
1104.194276,146.699996948242
1104.209901,146.699996948242
1104.225526,146.699996948242
1104.241151,146.699996948242
1104.256776,146.690002441406
1104.272401,146.690002441406
1104.288026,146.690002441406
1104.303651,146.690002441406
1104.319276,146.690002441406
1104.334901,146.690002441406
1104.350526,146.679992675781
1104.366151,146.679992675781
1104.381776,146.679992675781
1104.397401,146.679992675781
1104.413026,146.679992675781
1104.428651,146.669998168945
1104.444276,146.669998168945
1104.459901,146.669998168945
1104.475526,146.669998168945
1104.491151,146.669998168945
1104.506776,146.669998168945
1104.522401,146.660003662109
1104.538026,146.660003662109
1104.553651,146.660003662109
1104.569276,146.660003662109
1104.584901,146.660003662109
1104.600526,146.660003662109
1104.616151,146.660003662109
1104.631776,146.660003662109
1104.647401,146.660003662109
1104.663026,146.660003662109
1104.678651,146.660003662109
1104.694276,146.660003662109
1104.709901,146.660003662109
1104.725526,146.660003662109
1104.741151,146.660003662109
1104.756776,146.660003662109
1104.772401,146.660003662109
1104.788026,146.660003662109
1104.803651,146.660003662109
1104.819276,146.660003662109
1104.834901,146.660003662109
1104.850526,146.660003662109
1104.866151,146.660003662109
1104.881776,146.660003662109
1104.897401,146.660003662109
1104.913026,146.660003662109
1104.928651,146.669998168945
1104.944276,146.669998168945
1104.959901,146.669998168945
1104.975526,146.669998168945
1104.991151,146.669998168945
1105.006776,146.669998168945
1105.022401,146.679992675781
1105.038026,146.679992675781
1105.053651,146.679992675781
1105.069276,146.679992675781
1105.084901,146.679992675781
1105.100526,146.679992675781
1105.116151,146.690002441406
1105.131776,146.690002441406
1105.147401,146.690002441406
1105.163026,146.690002441406
1105.178651,146.690002441406
1105.194276,146.690002441406
1105.209901,146.690002441406
1105.225526,146.690002441406
1105.241151,146.679992675781
1105.256776,146.679992675781
1105.272401,146.679992675781
1105.288026,146.679992675781
1105.303651,146.669998168945
1105.319276,146.669998168945
1105.334901,146.669998168945
1105.350526,146.660003662109
1105.366151,146.660003662109
1105.381776,146.660003662109
1105.397401,146.649993896484
1105.413026,146.649993896484
1105.428651,146.639999389648
1105.444276,146.639999389648
1105.459901,146.630004882813
1105.475526,146.630004882813
1105.491151,146.619995117188
1105.506776,146.610000610352
1105.522401,146.600006103516
1105.538026,146.589996337891
1105.553651,146.589996337891
1105.569276,146.580001831055
1105.584901,146.570007324219
1105.600526,146.559997558594
1105.616151,146.550003051758
1105.631776,146.539993286133
1105.647401,146.529998779297
1105.663026,146.529998779297
1105.678651,146.520004272461
1105.694276,146.520004272461
1105.709901,146.509994506836
1105.725526,146.509994506836
1105.741151,146.5
1105.756776,146.5
1105.772401,146.5
1105.788026,146.490005493164
1105.803651,146.490005493164
1105.819276,146.490005493164
1105.834901,146.490005493164
1105.850526,146.490005493164
1105.866151,146.490005493164
1105.881776,146.479995727539
1105.897401,146.479995727539
1105.913026,146.479995727539
1105.928651,146.479995727539
1105.944276,146.479995727539
1105.959901,146.479995727539
1105.975526,146.470001220703
1105.991151,146.470001220703
1106.006776,146.470001220703
1106.022401,146.470001220703
1106.038026,146.470001220703
1106.053651,146.470001220703
1106.069276,146.470001220703
1106.084901,146.470001220703
1106.100526,146.470001220703
1106.116151,146.470001220703
1106.131776,146.470001220703
1106.147401,146.470001220703
1106.163026,146.470001220703
1106.178651,146.470001220703
1106.194276,146.470001220703
1106.209901,146.479995727539
1106.225526,146.479995727539
1106.241151,146.479995727539
1106.256776,146.479995727539
1106.272401,146.479995727539
1106.288026,146.479995727539
1106.303651,146.479995727539
1106.319276,146.479995727539
1106.334901,146.479995727539
1106.350526,146.490005493164
1106.366151,146.490005493164
1106.381776,146.490005493164
1106.397401,146.490005493164
1106.413026,146.490005493164
1106.428651,146.5
1106.444276,146.5
1106.459901,146.5
1106.475526,146.5
1106.491151,146.5
1106.506776,146.509994506836
1106.522401,146.509994506836
1106.538026,146.509994506836
1106.553651,146.509994506836
1106.569276,146.520004272461
1106.584901,146.520004272461
1106.600526,146.520004272461
1106.616151,146.520004272461
1106.631776,146.529998779297
1106.647401,146.529998779297
1106.663026,146.529998779297
1106.678651,146.529998779297
1106.694276,146.539993286133
1106.709901,146.539993286133
1106.725526,146.539993286133
1106.741151,146.539993286133
1106.756776,146.539993286133
1106.772401,146.550003051758
1106.788026,146.550003051758
1106.803651,146.550003051758
1106.819276,146.550003051758
1106.834901,146.559997558594
1106.850526,146.559997558594
1106.866151,146.559997558594
1106.881776,146.570007324219
1106.897401,146.570007324219
1106.913026,146.570007324219
1106.928651,146.580001831055
1106.944276,146.580001831055
1106.959901,146.589996337891
1106.975526,146.589996337891
1106.991151,146.600006103516
1107.006776,146.600006103516
1107.022401,146.610000610352
1107.038026,146.610000610352
1107.053651,146.619995117188
1107.069276,146.619995117188
1107.084901,146.630004882813
1107.100526,146.630004882813
1107.116151,146.639999389648
1107.131776,146.639999389648
1107.147401,146.649993896484
1107.163026,146.649993896484
1107.178651,146.660003662109
1107.194276,146.660003662109
1107.209901,146.660003662109
1107.225526,146.669998168945
1107.241151,146.669998168945
1107.256776,146.669998168945
1107.272401,146.679992675781
1107.288026,146.679992675781
1107.303651,146.679992675781
1107.319276,146.690002441406
1107.334901,146.690002441406
1107.350526,146.699996948242
1107.366151,146.699996948242
1107.381776,146.710006713867
1107.397401,146.710006713867
1107.413026,146.720001220703
1107.428651,146.729995727539
1107.444276,146.729995727539
1107.459901,146.740005493164
1107.475526,146.740005493164
1107.491151,146.75
1107.506776,146.75
1107.522401,146.75
1107.538026,146.759994506836
1107.553651,146.759994506836
1107.569276,146.759994506836
1107.584901,146.759994506836
1107.600526,146.770004272461
1107.616151,146.770004272461
1107.631776,146.770004272461
1107.647401,146.770004272461
1107.663026,146.770004272461
1107.678651,146.759994506836
1107.694276,146.759994506836
1107.709901,146.759994506836
1107.725526,146.759994506836
1107.741151,146.759994506836
1107.756776,146.759994506836
1107.772401,146.759994506836
1107.788026,146.759994506836
1107.803651,146.759994506836
1107.819276,146.75
1107.834901,146.759994506836
1107.850526,146.759994506836
1107.866151,146.759994506836
1107.881776,146.759994506836
1107.897401,146.759994506836
1107.913026,146.759994506836
1107.928651,146.759994506836
1107.944276,146.770004272461
1107.959901,146.770004272461
1107.975526,146.770004272461
1107.991151,146.779998779297
1108.006776,146.779998779297
1108.022401,146.779998779297
1108.038026,146.789993286133
1108.053651,146.789993286133
1108.069276,146.800003051758
1108.084901,146.809997558594
1108.100526,146.809997558594
1108.116151,146.820007324219
1108.131776,146.830001831055
1108.147401,146.839996337891
1108.163026,146.839996337891
1108.178651,146.850006103516
1108.194276,146.860000610352
1108.209901,146.869995117188
1108.225526,146.880004882813
1108.241151,146.889999389648
1108.256776,146.889999389648
1108.272401,146.899993896484
1108.288026,146.910003662109
1108.303651,146.919998168945
1108.319276,146.929992675781
1108.334901,146.940002441406
1108.350526,146.949996948242
1108.366151,146.960006713867
1108.381776,146.970001220703
1108.397401,146.979995727539
1108.413026,147.0
1108.428651,147.009994506836
1108.444276,147.020004272461
1108.459901,147.029998779297
1108.475526,147.039993286133
1108.491151,147.059997558594
1108.506776,147.070007324219
1108.522401,147.080001831055
1108.538026,147.100006103516
1108.553651,147.110000610352
1108.569276,147.130004882813
1108.584901,147.139999389648
1108.600526,147.160003662109
1108.616151,147.179992675781
1108.631776,147.190002441406
1108.647401,147.210006713867
1108.663026,147.229995727539
1108.678651,147.240005493164
1108.694276,147.259994506836
1108.709901,147.279998779297
1108.725526,147.289993286133
1108.741151,147.309997558594
1108.756776,147.320007324219
1108.772401,147.339996337891
1108.788026,147.350006103516
1108.803651,147.360000610352
1108.819276,147.369995117188
1108.834901,147.380004882813
1108.850526,147.399993896484
1108.866151,147.410003662109
1108.881776,147.410003662109
1108.897401,147.419998168945
1108.913026,147.429992675781
1108.928651,147.440002441406
1108.944276,147.449996948242
1108.959901,147.449996948242
1108.975526,147.460006713867
1108.991151,147.460006713867
1109.006776,147.470001220703
1109.022401,147.470001220703
1109.038026,147.470001220703
1109.053651,147.479995727539
1109.069276,147.479995727539
1109.084901,147.490005493164
1109.100526,147.490005493164
1109.116151,147.490005493164
1109.131776,147.5
1109.147401,147.5
1109.163026,147.509994506836
1109.178651,147.509994506836
1109.194276,147.520004272461
1109.209901,147.520004272461
1109.225526,147.529998779297
1109.241151,147.529998779297
1109.256776,147.539993286133
1109.272401,147.539993286133
1109.288026,147.539993286133
1109.303651,147.539993286133
1109.319276,147.539993286133
1109.334901,147.550003051758
1109.350526,147.550003051758
1109.366151,147.550003051758
1109.381776,147.550003051758
1109.397401,147.559997558594
1109.413026,147.559997558594
1109.428651,147.559997558594
1109.444276,147.559997558594
1109.459901,147.559997558594
1109.475526,147.559997558594
1109.491151,147.550003051758
1109.506776,147.550003051758
1109.522401,147.550003051758
1109.538026,147.550003051758
1109.553651,147.539993286133
1109.569276,147.539993286133
1109.584901,147.539993286133
1109.600526,147.529998779297
1109.616151,147.529998779297
1109.631776,147.529998779297
1109.647401,147.520004272461
1109.663026,147.520004272461
1109.678651,147.520004272461
1109.694276,147.520004272461
1109.709901,147.520004272461
1109.725526,147.509994506836
1109.741151,147.509994506836
1109.756776,147.509994506836
1109.772401,147.509994506836
1109.788026,147.509994506836
1109.803651,147.509994506836
1109.819276,147.509994506836
1109.834901,147.509994506836
1109.850526,147.509994506836
1109.866151,147.509994506836
1109.881776,147.520004272461
1109.897401,147.520004272461
1109.913026,147.520004272461
1109.928651,147.520004272461
1109.944276,147.529998779297
1109.959901,147.529998779297
1109.975526,147.539993286133
1109.991151,147.539993286133
1110.006776,147.539993286133
1110.022401,147.550003051758
1110.038026,147.550003051758
1110.053651,147.559997558594
1110.069276,147.559997558594
1110.084901,147.559997558594
1110.100526,147.570007324219
1110.116151,147.570007324219
1110.131776,147.580001831055
1110.147401,147.580001831055
1110.163026,147.589996337891
1110.178651,147.600006103516
1110.194276,147.600006103516
1110.209901,147.610000610352
1110.225526,147.619995117188
1110.241151,147.619995117188
1110.256776,147.630004882813
1110.272401,147.630004882813
1110.288026,147.639999389648
1110.303651,147.639999389648
1110.319276,147.649993896484
1110.334901,147.649993896484
1110.350526,147.649993896484
1110.366151,147.660003662109
1110.381776,147.660003662109
1110.397401,147.660003662109
1110.413026,147.669998168945
1110.428651,147.669998168945
1110.444276,147.679992675781
1110.459901,147.679992675781
1110.475526,147.690002441406
1110.491151,147.690002441406
1110.506776,147.699996948242
1110.522401,147.699996948242
1110.538026,147.699996948242
1110.553651,147.710006713867
1110.569276,147.710006713867
1110.584901,147.710006713867
1110.600526,147.720001220703
1110.616151,147.720001220703
1110.631776,147.720001220703
1110.647401,147.729995727539
1110.663026,147.729995727539
1110.678651,147.729995727539
1110.694276,147.740005493164
1110.709901,147.740005493164
1110.725526,147.75
1110.741151,147.75
1110.756776,147.759994506836
1110.772401,147.770004272461
1110.788026,147.779998779297
1110.803651,147.779998779297
1110.819276,147.789993286133
1110.834901,147.800003051758
1110.850526,147.809997558594
1110.866151,147.820007324219
1110.881776,147.830001831055
1110.897401,147.839996337891
1110.913026,147.860000610352
1110.928651,147.869995117188
1110.944276,147.880004882813
1110.959901,147.889999389648
1110.975526,147.910003662109
1110.991151,147.919998168945
1111.006776,147.929992675781
1111.022401,147.949996948242
1111.038026,147.960006713867
1111.053651,147.970001220703
1111.069276,147.979995727539
1111.084901,147.990005493164
1111.100526,148.0
1111.116151,148.0
1111.131776,148.009994506836
1111.147401,148.020004272461
1111.163026,148.029998779297
1111.178651,148.029998779297
1111.194276,148.039993286133
1111.209901,148.050003051758
1111.225526,148.050003051758
1111.241151,148.059997558594
1111.256776,148.070007324219
1111.272401,148.070007324219
1111.288026,148.080001831055
1111.303651,148.080001831055
1111.319276,148.080001831055
1111.334901,148.089996337891
1111.350526,148.089996337891
1111.366151,148.089996337891
1111.381776,148.089996337891
1111.397401,148.089996337891
1111.413026,148.100006103516
1111.428651,148.100006103516
1111.444276,148.100006103516
1111.459901,148.110000610352
1111.475526,148.110000610352
1111.491151,148.110000610352
1111.506776,148.119995117188
1111.522401,148.119995117188
1111.538026,148.119995117188
1111.553651,148.119995117188
1111.569276,148.130004882813
1111.584901,148.130004882813
1111.600526,148.130004882813
1111.616151,148.130004882813
1111.631776,148.119995117188
1111.647401,148.119995117188
1111.663026,148.119995117188
1111.678651,148.110000610352
1111.694276,148.110000610352
1111.709901,148.100006103516
1111.725526,148.100006103516
1111.741151,148.089996337891
1111.756776,148.089996337891
1111.772401,148.080001831055
1111.788026,148.080001831055
1111.803651,148.070007324219
1111.819276,148.059997558594
1111.834901,148.059997558594
1111.850526,148.050003051758
1111.866151,148.039993286133
1111.881776,148.029998779297
1111.897401,148.020004272461
1111.913026,148.009994506836
1111.928651,148.0
1111.944276,147.990005493164
1111.959901,147.979995727539
1111.975526,147.970001220703
1111.991151,147.960006713867
1112.006776,147.949996948242
1112.022401,147.940002441406
1112.038026,147.929992675781
1112.053651,147.929992675781
1112.069276,147.919998168945
1112.084901,147.910003662109
1112.100526,147.910003662109
1112.116151,147.899993896484
1112.131776,147.899993896484
1112.147401,147.889999389648
1112.163026,147.889999389648
1112.178651,147.880004882813
1112.194276,147.880004882813
1112.209901,147.880004882813
1112.225526,147.880004882813
1112.241151,147.880004882813
1112.256776,147.880004882813
1112.272401,147.880004882813
1112.288026,147.880004882813
1112.303651,147.889999389648
1112.319276,147.889999389648
1112.334901,147.889999389648
1112.350526,147.899993896484
1112.366151,147.899993896484
1112.381776,147.899993896484
1112.397401,147.910003662109
1112.413026,147.910003662109
1112.428651,147.919998168945
1112.444276,147.929992675781
1112.459901,147.929992675781
1112.475526,147.940002441406
1112.491151,147.940002441406
1112.506776,147.949996948242
1112.522401,147.960006713867
1112.538026,147.960006713867
1112.553651,147.970001220703
1112.569276,147.970001220703
1112.584901,147.979995727539
1112.600526,147.979995727539
1112.616151,147.979995727539
1112.631776,147.990005493164
1112.647401,147.990005493164
1112.663026,147.990005493164
1112.678651,147.990005493164
1112.694276,148.0
1112.709901,148.0
1112.725526,148.0
1112.741151,148.0
1112.756776,148.0
1112.772401,148.009994506836
1112.788026,148.009994506836
1112.803651,148.009994506836
1112.819276,148.009994506836
1112.834901,148.009994506836
1112.850526,148.009994506836
1112.866151,148.009994506836
1112.881776,148.009994506836
1112.897401,148.020004272461
1112.913026,148.020004272461
1112.928651,148.020004272461
1112.944276,148.020004272461
1112.959901,148.029998779297
1112.975526,148.029998779297
1112.991151,148.029998779297
1113.006776,148.039993286133
1113.022401,148.039993286133
1113.038026,148.039993286133
1113.053651,148.050003051758
1113.069276,148.050003051758
1113.084901,148.050003051758
1113.100526,148.059997558594
1113.116151,148.059997558594
1113.131776,148.059997558594
1113.147401,148.059997558594
1113.163026,148.059997558594
1113.178651,148.070007324219
1113.194276,148.070007324219
1113.209901,148.070007324219
1113.225526,148.080001831055
1113.241151,148.080001831055
1113.256776,148.080001831055
1113.272401,148.089996337891
1113.288026,148.089996337891
1113.303651,148.100006103516
1113.319276,148.100006103516
1113.334901,148.110000610352
1113.350526,148.110000610352
1113.366151,148.119995117188
1113.381776,148.119995117188
1113.397401,148.130004882813
1113.413026,148.130004882813
1113.428651,148.139999389648
1113.444276,148.149993896484
1113.459901,148.160003662109
1113.475526,148.160003662109
1113.491151,148.169998168945
1113.506776,148.179992675781
1113.522401,148.190002441406
1113.538026,148.199996948242
1113.553651,148.210006713867
1113.569276,148.210006713867
1113.584901,148.220001220703
1113.600526,148.229995727539
1113.616151,148.240005493164
1113.631776,148.25
1113.647401,148.25
1113.663026,148.259994506836
1113.678651,148.270004272461
1113.694276,148.279998779297
1113.709901,148.289993286133
1113.725526,148.300003051758
1113.741151,148.309997558594
1113.756776,148.309997558594
1113.772401,148.320007324219
1113.788026,148.330001831055
1113.803651,148.330001831055
1113.819276,148.339996337891
1113.834901,148.339996337891
1113.850526,148.350006103516
1113.866151,148.350006103516
1113.881776,148.350006103516
1113.897401,148.360000610352
1113.913026,148.360000610352
1113.928651,148.360000610352
