Time(s),Value(%)
1249.0066864,-30.5499992370605
1249.0223114,-29.5900001525879
1249.0379364,-28.5200004577637
1249.0535614,-27.3199996948242
1249.0691864,-25.7199993133545
1249.0848114,-23.6399993896484
1249.1004364,-21.3700008392334
1249.1160614,-18.9099998474121
1249.1316864,-15.0200004577637
1249.1473114,-7.34999990463257
1249.1629364,5.65999984741211
1249.1785614,23.1700000762939
1249.1941864,42.1100006103516
1249.2098114,59.0
1249.2254364,71.1999969482422
1249.2410614,77.3499984741211
1249.2566864,77.3499984741211
1249.2723114,72.5400009155273
1249.2879364,65.4800033569336
1249.3035614,58.6100006103516
1249.3191864,52.5099983215332
1249.3348114,45.6500015258789
1249.3504364,36.2000007629395
1249.3660614,24.0300006866455
1249.3816864,10.9399995803833
1249.3973114,-0.589999973773956
1249.4129364,-8.80000019073486
1249.4285614,-13.3100004196167
1249.4441864,-15.0500001907349
1249.4598114,-15.8500003814697
1249.4754364,-17.5499992370605
1249.4910614,-20.8899993896484
1249.5066864,-25.1299991607666
1249.5223114,-28.8999996185303
1249.5379364,-31.2199993133545
1249.5535614,-32.0999984741211
1249.5691864,-32.4099998474121
1249.5848114,-33.1800003051758
1249.6004364,-35.0800018310547
1249.6160614,-38.2200012207031
1249.6316864,-41.9300003051758
1249.6473114,-44.7299995422363
1249.6629364,-44.9900016784668
1249.6785614,-42.1300010681152
1249.6941864,-37.0499992370605
1249.7098114,-31.4599990844727
1249.7254364,-26.8099994659424
1249.7410614,-23.6000003814697
1249.7566864,-21.1499996185303
1249.7723114,-17.8299999237061
1249.7879364,-11.4899997711182
1249.8035614,-0.0700000002980232
1249.8191864,17.1599998474121
1249.8348114,38.6500015258789
1249.8504364,60.3499984741211
1249.8660614,77.2799987792969
1249.8816864,85.8899993896484
1249.8973114,85.6999969482422
1249.9129364,78.9700012207031
1249.9285614,69.2399978637695
1249.9441864,59.6300010681152
1249.9598114,51.7900009155273
1249.9754364,45.6500015258789
1249.9910614,40.0800018310547
1250.0066864,33.6300010681152
1250.0223114,25.2399997711182
1250.0379364,14.9799995422363
1250.0535614,4.19999980926514
1250.0691864,-5.19000005722046
1250.0848114,-11.6700000762939
1250.1004364,-15.0600004196167
1250.1160614,-16.6399993896484
1250.1316864,-18.0699996948242
1250.1473114,-20.3700008392334
1250.1629364,-23.6399993896484
1250.1785614,-27.4500007629395
1250.1941864,-31.2700004577637
1250.2098114,-34.7799987792969
1250.2254364,-37.8300018310547
1250.2410614,-40.4199981689453
1250.2566864,-42.4300003051758
1250.2723114,-43.5299987792969
1250.2879364,-43.4199981689453
1250.3035614,-42.2900009155273
1250.3191864,-40.9199981689453
1250.3348114,-40.0800018310547
1250.3504364,-39.8699989318848
1250.3660614,-39.939998626709
1250.3816864,-39.9700012207031
1250.3973114,-39.7000007629395
1250.4129364,-38.4199981689453
1250.4285614,-35.1300010681152
1250.4441864,-29.1800003051758
1250.4598114,-20.2600002288818
1250.4754364,-7.92000007629395
1250.4910614,8.21000003814697
1250.5066864,27.5699996948242
1250.5223114,47.8400001525879
1250.5379364,65.4199981689453
1250.5535614,76.8099975585938
1250.5691864,80.0800018310547
1250.5848114,75.8300018310547
1250.6004364,66.7200012207031
1250.6160614,56.189998626709
1250.6316864,46.939998626709
1250.6473114,39.9799995422363
1250.6629364,34.4099998474121
1250.6785614,28.2600002288818
1250.6941864,20.0100002288818
1250.7098114,9.97999954223633
1250.7254364,0.0299999993294477
1250.7410614,-7.90000009536743
1250.7566864,-12.960000038147
1250.7723114,-15.4799995422363
1250.7879364,-16.6900005340576
1250.8035614,-17.9699993133545
1250.8191864,-20.1700000762939
1250.8348114,-23.4400005340576
1250.8504364,-27.4099998474121
1250.8660614,-31.4400005340576
1250.8816864,-34.8699989318848
1250.8973114,-37.2999992370605
1250.9129364,-38.7099990844727
1250.9285614,-39.2299995422363
1250.9441864,-39.0900001525879
1250.9598114,-38.7299995422363
1250.9754364,-38.5800018310547
1250.9910614,-38.8199996948242
1251.0066864,-39.0299987792969
1251.0223114,-38.4500007629395
1251.0379364,-36.6399993896484
1251.0535614,-33.9500007629395
1251.0691864,-31.1100006103516
1251.0848114,-28.4400005340576
1251.1004364,-25.2700004577637
1251.1160614,-19.8999996185303
1251.1316864,-10.2799997329712
1251.1473114,4.59999990463257
1251.1629364,23.5200004577637
1251.1785614,42.9700012207031
1251.1941864,58.7200012207031
1251.2098114,67.8399963378906
1251.2254364,69.6600036621094
1251.2410614,65.4100036621094
1251.2566864,57.3699989318848
1251.2723114,48.0499992370605
1251.2879364,39.3199996948242
1251.3035614,31.6299991607666
1251.3191864,24.1000003814697
1251.3348114,15.5600004196167
1251.3504364,5.84999990463257
1251.3660614,-3.92000007629395
1251.3816864,-12.0299997329712
1251.3973114,-17.0599994659424
1251.4129364,-18.6000003814697
1251.4285614,-17.3899993896484
1251.4441864,-15.0799999237061
1251.4598114,-13.6800003051758
1251.4754364,-14.3999996185303
1251.4910614,-17.1700000762939
1251.5066864,-21.0
1251.5223114,-24.8199996948242
1251.5379364,-27.8700008392334
1251.5535614,-29.5900001525879
1251.5691864,-29.7600002288818
1251.5848114,-28.7199993133545
1251.6004364,-27.3199996948242
1251.6160614,-26.3299999237061
1251.6316864,-25.7900009155273
1251.6473114,-25.1499996185303
1251.6629364,-24.0499992370605
1251.6785614,-22.8299999237061
1251.6941864,-22.1200008392334
1251.7098114,-22.1599998474121
1251.7254364,-22.6000003814697
1251.7410614,-22.3600006103516
1251.7566864,-19.5599994659424
1251.7723114,-11.9200000762939
1251.7879364,2.29999995231628
1251.8035614,22.7600002288818
1251.8191864,46.2599983215332
1251.8348114,67.8199996948242
1251.8504364,82.8499984741211
1251.8660614,89.0400009155273
1251.8816864,86.879997253418
1251.8973114,79.0599975585938
1251.9129364,69.0100021362305
1251.9285614,59.3899993896484
1251.9441864,50.9900016784668
1251.9598114,43.0299987792969
1251.9754364,34.439998626709
1251.9910614,24.9400005340576
1252.0066864,15.1199998855591
1252.0223114,6.0
1252.0379364,-1.6599999666214
1252.0535614,-7.57999992370605
1252.0691864,-11.6700000762939
1252.0848114,-13.9099998474121
1252.1004364,-14.5600004196167
1252.1160614,-14.2799997329712
1252.1316864,-14.0200004577637
1252.1473114,-14.8500003814697
1252.1629364,-17.5200004577637
1252.1785614,-22.1299991607666
1252.1941864,-27.7999992370605
1252.2098114,-32.8800010681152
1252.2254364,-35.75
1252.2410614,-35.9599990844727
1252.2566864,-34.4000015258789
1252.2723114,-32.560001373291
1252.2879364,-31.7099990844727
1252.3035614,-32.5299987792969
1252.3191864,-35.189998626709
1252.3348114,-39.0099983215332
1252.3504364,-42.3800010681152
1252.3660614,-43.310001373291
1252.3816864,-40.2700004577637
1252.3973114,-32.5200004577637
1252.4129364,-19.7299995422363
1252.4285614,-1.9099999666214
1252.4441864,19.8199996948242
1252.4598114,42.6699981689453
1252.4754364,62.689998626709
1252.4910614,76.3199996948242
1252.5066864,81.8300018310547
1252.5223114,80.0199966430664
1252.5379364,73.5100021362305
1252.5535614,65.1800003051758
1252.5691864,56.8899993896484
1252.5848114,49.2400016784668
1252.6004364,41.8600006103516
1252.6160614,33.9000015258789
1252.6316864,24.5699996948242
1252.6473114,13.8000001907349
1252.6629364,2.40000009536743
1252.6785614,-8.30000019073486
1252.6941864,-17.0699996948242
1252.7098114,-23.0300006866455
1252.7254364,-25.9500007629395
1252.7410614,-26.5699996948242
1252.7566864,-26.5200004577637
1252.7723114,-27.4699993133545
1252.7879364,-30.0799999237061
1252.8035614,-33.8800010681152
1252.8191864,-37.9799995422363
1252.8348114,-41.5699996948242
1252.8504364,-43.7700004577637
1252.8660614,-43.8600006103516
1252.8816864,-41.9500007629395
1252.8973114,-39.1199989318848
1252.9129364,-36.7400016784668
1252.9285614,-35.7000007629395
1252.9441864,-36.1199989318848
1252.9598114,-37.4599990844727
1252.9754364,-38.6300010681152
1252.9910614,-38.4799995422363
1253.0066864,-36.5900001525879
1253.0223114,-33.5800018310547
1253.0379364,-30.1900005340576
1253.0535614,-26.0100002288818
1253.0691864,-19.1599998474121
1253.0848114,-7.21999979019165
1253.1004364,11.039999961853
1253.1160614,34.4199981689453
1253.1316864,59.0800018310547
1253.1473114,79.879997253418
1253.1629364,92.7300033569336
1253.1785614,96.2099990844727
1253.1941864,91.6999969482422
1253.2098114,82.2600021362305
1253.2254364,71.3600006103516
1253.2410614,61.3600006103516
1253.2566864,52.5299987792969
1253.2723114,43.3300018310547
1253.2879364,31.8899993896484
1253.3035614,17.75
1253.3191864,2.5699999332428
1253.3348114,-10.6499996185303
1253.3504364,-19.4200000762939
1253.3660614,-23.1599998474121
1253.3816864,-23.4400005340576
1253.3973114,-22.7800006866455
1253.4129364,-23.1100006103516
1253.4285614,-24.8299999237061
1253.4441864,-27.2000007629395
1253.4598114,-29.4799995422363
1253.4754364,-31.5100002288818
1253.4910614,-33.5999984741211
1253.5066864,-36.1199989318848
1253.5223114,-39.0200004577637
1253.5379364,-41.8300018310547
1253.5535614,-43.9599990844727
1253.5691864,-44.8499984741211
1253.5848114,-44.2999992370605
1253.6004364,-43.0
1253.6160614,-42.4799995422363
1253.6316864,-43.810001373291
1253.6473114,-46.3300018310547
1253.6629364,-47.939998626709
1253.6785614,-46.5099983215332
1253.6941864,-41.0200004577637
1253.7098114,-31.4599990844727
1253.7254364,-18.0499992370605
1253.7410614,-1.04999995231628
1253.7566864,18.7000007629395
1253.7723114,39.2599983215332
1253.7879364,57.7000007629395
1253.8035614,70.9000015258789
1253.8191864,76.6900024414063
1253.8348114,75.0199966430664
1253.8504364,68.2099990844727
1253.8660614,59.7799987792969
1253.8816864,52.5
1253.8973114,47.0099983215332
1253.9129364,41.810001373291
1253.9285614,34.6800003051758
1253.9441864,24.5100002288818
1253.9598114,12.2600002288818
1253.9754364,0.310000002384186
1253.9910614,-9.10000038146973
1254.0066864,-14.8800001144409
1254.0223114,-17.2399997711182
1254.0379364,-17.3500003814697
1254.0535614,-16.5799999237061
1254.0691864,-15.9499998092651
1254.0848114,-16.2000007629395
1254.1004364,-18.0100002288818
1254.1160614,-21.6700000762939
1254.1316864,-26.5499992370605
1254.1473114,-31.2900009155273
1254.1629364,-34.7200012207031
1254.1785614,-36.6399993896484
1254.1941864,-37.6100006103516
1254.2098114,-38.3199996948242
1254.2254364,-39.1800003051758
1254.2410614,-40.3800010681152
1254.2566864,-41.7099990844727
1254.2723114,-42.3800010681152
1254.2879364,-41.4599990844727
1254.3035614,-38.6500015258789
1254.3191864,-34.4199981689453
1254.3348114,-29.0900001525879
1254.3504364,-21.7299995422363
1254.3660614,-10.3599996566772
1254.3816864,6.40000009536743
1254.3973114,27.6100006103516
1254.4129364,49.75
1254.4285614,68.4800033569336
1254.4441864,80.6900024414063
1254.4598114,85.7099990844727
1254.4754364,85.0199966430664
1254.4910614,81.0599975585938
1254.5066864,75.7699966430664
1254.5223114,69.7399978637695
1254.5379364,62.4900016784668
1254.5535614,53.4300003051758
1254.5691864,42.5999984741211
1254.5848114,30.8700008392334
1254.6004364,19.3999996185303
1254.6160614,9.19999980926514
1254.6316864,0.829999983310699
1254.6473114,-5.46999979019165
1254.6629364,-9.8100004196167
1254.6785614,-12.6700000762939
1254.6941864,-14.7799997329712
1254.7098114,-16.6499996185303
1254.7254364,-18.4799995422363
1254.7410614,-20.4400005340576
1254.7566864,-23.1700000762939
1254.7723114,-27.1900005340576
1254.7879364,-32.1599998474121
1254.8035614,-37.0299987792969
1254.8191864,-40.7999992370605
1254.8348114,-42.689998626709
1254.8504364,-42.1399993896484
1254.8660614,-39.2799987792969
1254.8816864,-35.4099998474121
1254.8973114,-32.560001373291
1254.9129364,-32.0699996948242
1254.9285614,-33.7200012207031
1254.9441864,-36.1399993896484
1254.9598114,-37.5800018310547
1254.9754364,-36.1399993896484
1254.9910614,-29.5499992370605
1255.0066864,-15.789999961853
1255.0223114,5.34000015258789
1255.0379364,30.9699993133545
1255.0535614,55.939998626709
1255.0691864,75.3099975585938
1255.0848114,86.4599990844727
1255.1004364,89.4800033569336
1255.1160614,86.3099975585938
1255.1316864,79.8600006103516
1255.1473114,72.9000015258789
1255.1629364,66.879997253418
1255.1785614,61.2599983215332
1255.1941864,54.189998626709
1255.2098114,44.189998626709
1255.2254364,31.2900009155273
1255.2410614,16.8600006103516
1255.2566864,2.96000003814697
1255.2723114,-8.3100004196167
1255.2879364,-15.6400003433228
1255.3035614,-19.2000007629395
1255.3191864,-20.7999992370605
1255.3348114,-22.7800006866455
1255.3504364,-26.4200000762939
1255.3660614,-31.2999992370605
1255.3816864,-36.3300018310547
1255.3973114,-40.939998626709
1255.4129364,-45.0900001525879
1255.4285614,-48.8199996948242
1255.4441864,-51.939998626709
1255.4598114,-53.9300003051758
1255.4754364,-54.2200012207031
1255.4910614,-52.7900009155273
1255.5066864,-50.2799987792969
1255.5223114,-47.5299987792969
1255.5379364,-45.0499992370605
1255.5535614,-42.8600006103516
1255.5691864,-40.689998626709
1255.5848114,-38.2000007629395
1255.6004364,-35.2000007629395
1255.6160614,-31.3999996185303
1255.6316864,-25.7800006866455
1255.6473114,-16.3899993896484
1255.6629364,-1.51999998092651
1255.6785614,18.2999992370605
1255.6941864,39.75
1255.7098114,58.3600006103516
1255.7254364,70.8899993896484
1255.7410614,76.4199981689453
1255.7566864,75.9100036621094
1255.7723114,71.2699966430664
1255.7879364,64.370002746582
1255.8035614,56.3699989318848
1255.8191864,47.5499992370605
1255.8348114,37.5099983215332
1255.8504364,26.0300006866455
1255.8660614,13.7399997711182
1255.8816864,2.1800000667572
1255.8973114,-6.90000009536743
1255.9129364,-12.25
1255.9285614,-13.75
1255.9441864,-12.8000001907349
1255.9598114,-11.6599998474121
1255.9754364,-12.1700000762939
1255.9910614,-14.8699998855591
1256.0066864,-19.2000007629395
1256.0223114,-24.1800003051758
1256.0379364,-28.9200000762939
1256.0535614,-32.6300010681152
1256.0691864,-34.6199989318848
1256.0848114,-34.6199989318848
1256.1004364,-33.2999992370605
1256.1160614,-32.1300010681152
1256.1316864,-32.5699996948242
1256.1473114,-35.2599983215332
1256.1629364,-39.8199996948242
1256.1785614,-45.0099983215332
1256.1941864,-49.0200004577637
1256.2098114,-50.1199989318848
1256.2254364,-47.7900009155273
1256.2410614,-43.0
1256.2566864,-37.0299987792969
1256.2723114,-29.7999992370605
1256.2879364,-19.6100006103516
1256.3035614,-4.84000015258789
1256.3191864,14.1899995803833
1256.3348114,34.8600006103516
1256.3504364,53.2799987792969
1256.3660614,65.8499984741211
1256.3816864,70.620002746582
1256.3973114,67.9599990844727
1256.4129364,60.4599990844727
1256.4285614,51.8499984741211
1256.4441864,45.2400016784668
1256.4598114,41.4099998474121
1256.4754364,38.5699996948242
1256.4910614,33.7200012207031
1256.5066864,24.8999996185303
1256.5223114,12.8199996948242
1256.5379364,0.540000021457672
1256.5535614,-8.72999954223633
1256.5691864,-13.5699996948242
1256.5848114,-14.6300001144409
1256.6004364,-13.7200002670288
1256.6160614,-12.6899995803833
1256.6316864,-12.6199998855591
1256.6473114,-13.6599998474121
1256.6629364,-15.6199998855591
1256.6785614,-18.4300003051758
1256.6941864,-22.0200004577637
1256.7098114,-26.1000003814697
1256.7254364,-30.1599998474121
1256.7410614,-33.7000007629395
1256.7566864,-36.4199981689453
1256.7723114,-38.1500015258789
1256.7879364,-38.7200012207031
1256.8035614,-38.189998626709
1256.8191864,-36.9300003051758
1256.8348114,-35.4000015258789
1256.8504364,-33.9000015258789
1256.8660614,-32.310001373291
1256.8816864,-29.9200000762939
1256.8973114,-25.7199993133545
1256.9129364,-18.8500003814697
1256.9285614,-8.42000007629395
1256.9441864,6.3600001335144
1256.9598114,25.5300006866455
1256.9754364,47.4799995422363
1256.9910614,68.8499984741211
1257.0066864,85.4599990844727
1257.0223114,93.8899993896484
1257.0379364,93.0
1257.0535614,84.6699981689453
1257.0691864,72.9300003051758
1257.0848114,61.9099998474121
1257.1004364,54.0099983215332
1257.1160614,49.1599998474121
1257.1316864,45.4300003051758
1257.1473114,40.2000007629395
1257.1629364,31.6599998474121
1257.1785614,19.8299999237061
1257.1941864,6.65000009536743
1257.2098114,-5.23999977111816
1257.2254364,-14.0600004196167
1257.2410614,-19.6599998474121
1257.2566864,-22.9899997711182
1257.2723114,-25.0900001525879
1257.2879364,-26.6100006103516
1257.3035614,-28.2000007629395
1257.3191864,-30.5900001525879
1257.3348114,-33.9900016784668
1257.3504364,-37.6300010681152
1257.3660614,-40.1800003051758
1257.3816864,-40.7099990844727
1257.3973114,-39.2000007629395
1257.4129364,-36.5299987792969
1257.4285614,-33.939998626709
1257.4441864,-32.560001373291
1257.4598114,-32.8400001525879
1257.4754364,-34.4300003051758
1257.4910614,-36.4700012207031
1257.5066864,-38.0800018310547
1257.5223114,-38.7599983215332
1257.5379364,-38.6399993896484
1257.5535614,-38.2000007629395
1257.5691864,-37.8300018310547
1257.5848114,-37.4500007629395
1257.6004364,-36.2799987792969
1257.6160614,-32.4300003051758
1257.6316864,-23.1000003814697
1257.6473114,-6.03000020980835
1257.6629364,18.3299999237061
1257.6785614,46.2900009155273
1257.6941864,72.2399978637695
1257.7098114,91.25
1257.7254364,100.849998474121
1257.7410614,101.370002746582
1257.7566864,95.2099990844727
1257.7723114,85.8199996948242
1257.7879364,76.2099990844727
1257.8035614,67.6900024414063
1257.8191864,59.6399993896484
1257.8348114,50.4199981689453
1257.8504364,38.6500015258789
1257.8660614,24.5200004577637
1257.8816864,9.90999984741211
1257.8973114,-2.51999998092651
1257.9129364,-10.789999961853
1257.9285614,-14.539999961853
1257.9441864,-15.2299995422363
1257.9598114,-15.3100004196167
1257.9754364,-16.8500003814697
1257.9910614,-20.4400005340576
1258.0066864,-25.3199996948242
1258.0223114,-30.2999992370605
1258.0379364,-34.6100006103516
1258.0535614,-38.0800018310547
1258.0691864,-40.8300018310547
1258.0848114,-43.0299987792969
1258.1004364,-44.7799987792969
1258.1160614,-46.060001373291
1258.1316864,-46.5999984741211
1258.1473114,-46.0499992370605
1258.1629364,-44.4099998474121
1258.1785614,-42.2999992370605
1258.1941864,-40.689998626709
1258.2098114,-40.1699981689453
1258.2254364,-40.5499992370605
1258.2410614,-41.1199989318848
1258.2566864,-41.2000007629395
1258.2723114,-40.5999984741211
1258.2879364,-39.5800018310547
1258.3035614,-38.4300003051758
1258.3191864,-36.939998626709
1258.3348114,-34.3400001525879
1258.3504364,-29.1000003814697
1258.3660614,-19.2099990844727
1258.3816864,-3.20000004768372
1258.3973114,18.4200000762939
1258.4129364,42.8300018310547
1258.4285614,65.879997253418
1258.4441864,83.879997253418
1258.4598114,94.7699966430664
1258.4754364,98.5599975585938
1258.4910614,96.9100036621094
1258.5066864,92.1999969482422
1258.5223114,86.2600021362305
1258.5379364,79.6100006103516
1258.5535614,71.8199996948242
1258.5691864,62.0999984741211
1258.5848114,49.6500015258789
1258.6004364,34.3499984741211
1258.6160614,17.6800003051758
1258.6316864,2.32999992370605
1258.6473114,-9.46000003814697
1258.6629364,-17.2700004577637
1258.6785614,-22.1499996185303
1258.6941864,-25.3400001525879
1258.7098114,-27.5499992370605
1258.7254364,-29.1299991607666
1258.7410614,-30.4099998474121
1258.7566864,-31.7399997711182
1258.7723114,-33.3600006103516
1258.7879364,-35.3400001525879
1258.8035614,-37.5400009155273
1258.8191864,-39.7599983215332
1258.8348114,-41.939998626709
1258.8504364,-43.9099998474121
1258.8660614,-45.0499992370605
1258.8816864,-44.6699981689453
1258.8973114,-42.5299987792969
1258.9129364,-38.9900016784668
1258.9285614,-34.7000007629395
1258.9441864,-30.4599990844727
1258.9598114,-27.0599994659424
1258.9754364,-24.9899997711182
1258.9910614,-24.3099994659424
1259.0066864,-24.8400001525879
1259.0223114,-26.3700008392334
1259.0379364,-28.3799991607666
1259.0535614,-29.4799995422363
1259.0691864,-27.3400001525879
1259.0848114,-19.5200004577637
1259.1004364,-4.90000009536743
1259.1160614,15.289999961853
1259.1316864,37.6699981689453
1259.1473114,57.8400001525879
1259.1629364,71.9899978637695
1259.1785614,78.25
1259.1941864,77.2600021362305
1259.2098114,71.6900024414063
1259.2254364,64.8000030517578
1259.2410614,58.7000007629395
1259.2566864,53.4099998474121
1259.2723114,47.2400016784668
1259.2879364,38.5299987792969
