Time(s),Value(%)
352.0034025,-21.1499996185303
352.0190275,-19.7700004577637
352.0346525,-16.8600006103516
352.0502775,-12.6899995803833
352.0659025,-7.57999992370605
352.0815275,-1.5900000333786
352.0971525,5.42000007629395
352.1127775,13.3500003814697
352.1284025,21.4699993133545
352.1440275,28.7700004577637
352.1596525,34.5299987792969
352.1752775,38.7000007629395
352.1909025,41.6800003051758
352.2065275,43.9000015258789
352.2221525,45.4599990844727
352.2377775,46.2099990844727
352.2534025,46.060001373291
352.2690275,45.1699981689453
352.2846525,43.8600006103516
352.3002775,42.4700012207031
352.3159025,41.1599998474121
352.3315275,39.7599983215332
352.3471525,37.7599983215332
352.3627775,34.6599998474121
352.3784025,30.3199996948242
352.3940275,24.9500007629395
352.4096525,18.8799991607666
352.4252775,12.3500003814697
352.4409025,5.65999984741211
352.4565275,-0.740000009536743
352.4721525,-6.32000017166138
352.4877775,-10.789999961853
352.5034025,-14.3699998855591
352.5190275,-17.5599994659424
352.5346525,-20.6499996185303
352.5502775,-23.6599998474121
352.5659025,-26.6000003814697
352.5815275,-29.6000003814697
352.5971525,-32.7099990844727
352.6127775,-35.7299995422363
352.6284025,-38.2000007629395
352.6440275,-39.7900009155273
352.6596525,-40.6199989318848
352.6752775,-41.1100006103516
352.6909025,-41.5
352.7065275,-41.75
352.7221525,-41.7299995422363
352.7377775,-41.4099998474121
352.7534025,-40.8400001525879
352.7690275,-39.9599990844727
352.7846525,-38.4799995422363
352.8002775,-35.8300018310547
352.8159025,-31.2900009155273
352.8315275,-24.4699993133545
352.8471525,-15.6300001144409
352.8627775,-5.65000009536743
352.8784025,4.59999990463257
352.8940275,14.3299999237061
352.9096525,23.0900001525879
352.9252775,30.7199993133545
352.9409025,37.0699996948242
352.9565275,42.0200004577637
352.9721525,45.6500015258789
352.9877775,48.2599983215332
353.0034025,50.1500015258789
353.0190275,51.560001373291
353.0346525,52.6399993896484
353.0502775,53.310001373291
353.0659025,53.310001373291
353.0815275,52.3199996948242
353.0971525,50.2000007629395
353.1127775,47.189998626709
353.1284025,43.7999992370605
353.1440275,40.5800018310547
353.1596525,37.8800010681152
353.1752775,35.7200012207031
353.1909025,33.9199981689453
353.2065275,32.1399993896484
353.2221525,30.0300006866455
353.2377775,27.3899993896484
353.2534025,24.2199993133545
353.2690275,20.75
353.2846525,17.2700004577637
353.3002775,14.0
353.3159025,11.039999961853
353.3315275,8.35999965667725
353.3471525,5.8899998664856
353.3627775,3.55999994277954
353.3784025,1.30999994277954
353.3940275,-0.959999978542328
353.4096525,-3.4300000667572
353.4252775,-6.23000001907349
353.4409025,-9.34000015258789
353.4565275,-12.460000038147
353.4721525,-15.0799999237061
353.4877775,-16.7299995422363
353.5034025,-17.3199996948242
353.5190275,-17.0300006866455
353.5346525,-16.0599994659424
353.5502775,-14.1700000762939
353.5659025,-10.6999998092651
353.5815275,-5.03000020980835
353.5971525,2.77999997138977
353.6127775,11.9899997711182
353.6284025,21.5499992370605
353.6440275,30.7999992370605
353.6596525,39.6100006103516
353.6752775,47.9500007629395
353.6909025,55.2400016784668
353.7065275,60.6500015258789
353.7221525,63.7400016784668
353.7377775,64.8000030517578
353.7534025,64.6100006103516
353.7690275,63.8300018310547
353.7846525,62.6699981689453
353.8002775,60.9799995422363
353.8159025,58.5699996948242
353.8315275,55.4500007629395
353.8471525,51.7099990844727
353.8627775,48.0200004577637
353.8784025,43.9900016784668
353.8940275,39.7999992370605
353.9096525,35.5200004577637
353.9252775,31.0900001525879
353.9409025,26.3700008392334
353.9565275,21.3099994659424
353.9721525,16.1100006103516
353.9877775,11.1099996566772
354.0034025,6.59000015258789
354.0190275,2.60999989509583
354.0346525,-0.930000007152557
354.0502775,-4.3600001335144
354.0659025,-8.0
354.0815275,-12.1199998855591
354.0971525,-16.75
354.1127775,-21.7900009155273
354.1284025,-27.1399993896484
354.1440275,-32.7700004577637
354.1596525,-38.5400009155273
354.1752775,-44.0800018310547
354.1909025,-48.8400001525879
354.2065275,-52.4099998474121
354.2221525,-54.939998626709
354.2377775,-56.8899993896484
354.2534025,-58.6100006103516
354.2690275,-60.1300010681152
354.2846525,-61.3499984741211
354.3002775,-62.1699981689453
354.3159025,-62.5400009155273
354.3315275,-62.1699981689453
354.3471525,-60.4300003051758
354.3627775,-56.6699981689453
354.3784025,-50.7999992370605
354.3940275,-43.1500015258789
354.4096525,-34.0900001525879
354.4252775,-23.8799991607666
354.4409025,-12.9499998092651
354.4565275,-2.09999990463257
354.4721525,7.65000009536743
354.4877775,15.5500001907349
354.5034025,21.5599994659424
354.5190275,26.0699996948242
354.5346525,29.2800006866455
354.5502775,31.1100006103516
354.5659025,31.5599994659424
354.5815275,30.8999996185303
354.5971525,29.5599994659424
354.6127775,27.75
354.6284025,25.2199993133545
354.6440275,21.5699996948242
354.6596525,16.6499996185303
354.6752775,10.6700000762939
354.6909025,4.01000022888184
354.7065275,-2.95000004768372
354.7221525,-9.92000007629395
354.7377775,-16.5
354.7534025,-22.2700004577637
354.7690275,-27.0499992370605
354.7846525,-31.0799999237061
354.8002775,-34.810001373291
354.8159025,-38.4900016784668
354.8315275,-42.1699981689453
354.8471525,-45.9599990844727
354.8627775,-50.4500007629395
354.8784025,-55.2999992370605
354.8940275,-60.2099990844727
354.9096525,-64.6399993896484
354.9252775,-68.2099990844727
354.9409025,-70.9899978637695
354.9565275,-73.3499984741211
354.9721525,-75.4400024414063
354.9877775,-77.0899963378906
355.0034025,-78.0699996948242
355.0190275,-78.3199996948242
355.0346525,-78.0199966430664
355.0502775,-77.5400009155273
355.0659025,-77.3399963378906
355.0815275,-77.7399978637695
355.0971525,-78.7600021362305
355.1127775,-80.0299987792969
355.1284025,-80.9800033569336
355.1440275,-81.120002746582
355.1596525,-80.25
355.1752775,-78.2600021362305
355.1909025,-74.8300018310547
355.2065275,-69.3600006103516
355.2221525,-61.2400016784668
355.2377775,-50.3800010681152
355.2534025,-37.6100006103516
355.2690275,-24.3299999237061
355.2846525,-11.8199996948242
355.3002775,-0.759999990463257
355.3159025,8.78999996185303
355.3315275,17.0400009155273
355.3471525,24.0100002288818
355.3627775,29.5799999237061
355.3784025,33.7700004577637
355.3940275,36.7200012207031
355.4096525,38.5800018310547
355.4252775,39.5
355.4409025,39.6300010681152
355.4565275,39.0699996948242
355.4721525,37.7400016784668
355.4877775,35.4099998474121
355.5034025,31.9300003051758
355.5190275,27.5
355.5346525,22.7700004577637
355.5502775,18.5
355.5659025,15.210000038147
355.5815275,12.8999996185303
355.5971525,11.25
355.6127775,9.73999977111816
355.6284025,7.88000011444092
355.6440275,5.36999988555908
355.6596525,2.22000002861023
355.6752775,-1.44000005722046
355.6909025,-5.57999992370605
355.7065275,-10.210000038147
355.7221525,-15.2200002670288
355.7377775,-20.1299991607666
355.7534025,-24.2399997711182
355.7690275,-27.0400009155273
355.7846525,-28.6700000762939
355.8002775,-29.6499996185303
355.8159025,-30.3500003814697
355.8315275,-30.7700004577637
355.8471525,-30.7700004577637
355.8627775,-30.3700008392334
355.8784025,-29.5699996948242
355.8940275,-28.5799999237061
355.9096525,-27.6299991607666
355.9252775,-26.8600006103516
355.9409025,-26.2299995422363
355.9565275,-25.1900005340576
355.9721525,-22.7199993133545
355.9877775,-17.9200000762939
356.0034025,-10.6199998855591
356.0190275,-1.37999999523163
356.0346525,9.02999973297119
356.0502775,20.1800003051758
356.0659025,31.8799991607666
356.0815275,43.6699981689453
356.0971525,54.4799995422363
356.1127775,63.0299987792969
356.1284025,68.6999969482422
356.1440275,71.870002746582
356.1596525,73.5199966430664
356.1752775,74.5999984741211
356.1909025,75.5400009155273
356.2065275,76.3300018310547
356.2221525,76.75
356.2377775,76.629997253418
356.2534025,75.9100036621094
356.2690275,74.629997253418
356.2846525,72.9400024414063
356.3002775,70.9199981689453
356.3159025,68.5299987792969
356.3315275,65.5800018310547
356.3471525,61.8800010681152
356.3627775,57.4500007629395
356.3784025,52.5900001525879
356.3940275,47.7700004577637
356.4096525,43.3499984741211
356.4252775,39.4599990844727
356.4409025,35.9900016784668
356.4565275,32.5900001525879
356.4721525,28.7299995422363
356.4877775,24.0
356.5034025,18.3600006103516
356.5190275,11.9799995422363
356.5346525,5.07999992370605
356.5502775,-2.19000005722046
356.5659025,-9.61999988555908
356.5815275,-16.6700000762939
356.5971525,-22.5599994659424
356.6127775,-26.7399997711182
356.6284025,-29.3199996948242
356.6440275,-30.8999996185303
356.6596525,-32.0
356.6752775,-32.7799987792969
356.6909025,-33.2099990844727
356.7065275,-33.25
356.7221525,-32.9199981689453
356.7377775,-32.1300010681152
356.7534025,-30.5599994659424
356.7690275,-27.9099998474121
356.7846525,-24.0400009155273
356.8002775,-18.7600002288818
356.8159025,-11.539999961853
356.8315275,-1.85000002384186
356.8471525,10.1400003433228
356.8627775,23.4300003051758
356.8784025,36.6399993896484
356.8940275,48.7400016784668
356.9096525,59.4199981689453
356.9252775,68.5599975585938
356.9409025,75.6500015258789
356.9565275,79.9700012207031
356.9721525,81.379997253418
356.9877775,80.5599975585938
357.0034025,78.5899963378906
357.0190275,76.3300018310547
357.0346525,73.9599990844727
357.0502775,71.0999984741211
357.0659025,67.1699981689453
357.0815275,61.8400001525879
357.0971525,55.25
357.1127775,47.9099998474121
357.1284025,40.4599990844727
357.1440275,33.3899993896484
357.1596525,26.8500003814697
357.1752775,20.5900001525879
357.1909025,14.0100002288818
357.2065275,6.53000020980835
357.2221525,-2.0
357.2377775,-11.460000038147
357.2534025,-21.6599998474121
357.2690275,-32.4599990844727
357.2846525,-43.5400009155273
357.3002775,-54.1300010681152
357.3159025,-63.0200004577637
357.3315275,-69.1600036621094
357.3471525,-72.2600021362305
357.3627775,-72.6999969482422
357.3784025,-71.1600036621094
357.3940275,-68.2300033569336
357.4096525,-64.4499969482422
357.4252775,-60.310001373291
357.4409025,-56.25
357.4565275,-52.810001373291
357.4721525,-50.6500015258789
357.4877775,-50.2799987792969
357.5034025,-51.6399993896484
357.5190275,-53.9599990844727
357.5346525,-56.0400009155273
357.5502775,-56.8899993896484
357.5659025,-56.0900001525879
357.5815275,-53.7000007629395
357.5971525,-49.7200012207031
357.6127775,-43.6500015258789
357.6284025,-34.6199989318848
357.6440275,-22.2299995422363
357.6596525,-7.28999996185303
357.6752775,8.40999984741211
357.6909025,23.1200008392334
357.7065275,35.8400001525879
357.7221525,46.4500007629395
357.7377775,55.1599998474121
357.7534025,62.0
357.7690275,66.8000030517578
357.7846525,69.6399993896484
357.8002775,70.9100036621094
357.8159025,71.1600036621094
357.8315275,70.879997253418
357.8471525,70.3199996948242
357.8627775,69.3499984741211
357.8784025,67.4199981689453
357.8940275,63.9500007629395
357.9096525,58.7400016784668
357.9252775,52.2200012207031
357.9409025,45.2000007629395
357.9565275,38.5099983215332
357.9721525,32.6399993896484
357.9877775,27.6200008392334
358.0034025,23.1700000762939
358.0190275,18.8700008392334
358.0346525,14.2399997711182
358.0502775,8.98999977111816
358.0659025,3.10999989509583
358.0815275,-3.22000002861023
358.0971525,-9.88000011444092
358.1127775,-16.8199996948242
358.1284025,-23.8999996185303
358.1440275,-30.7399997711182
358.1596525,-36.7700004577637
358.1752775,-41.560001373291
358.1909025,-45.1599998474121
358.2065275,-47.9199981689453
358.2221525,-50.1199989318848
358.2377775,-51.810001373291
358.2534025,-52.9799995422363
358.2690275,-53.6699981689453
358.2846525,-53.9599990844727
358.3002775,-53.7900009155273
358.3159025,-52.8699989318848
358.3315275,-50.8600006103516
358.3471525,-47.5900001525879
358.3627775,-42.8300018310547
358.3784025,-36.0099983215332
358.3940275,-26.5499992370605
358.4096525,-14.6199998855591
358.4252775,-1.32000005245209
358.4409025,11.8199996948242
358.4565275,23.6700000762939
358.4721525,33.9500007629395
358.4877775,42.6399993896484
358.5034025,49.2900009155273
358.5190275,53.2000007629395
358.5346525,54.1500015258789
358.5502775,52.7400016784668
358.5659025,50.060001373291
358.5815275,46.9599990844727
358.5971525,43.6500015258789
358.6127775,39.8899993896484
358.6284025,35.4300003051758
358.6440275,30.2299995422363
358.6596525,24.4400005340576
358.6752775,18.3199996948242
358.6909025,12.1199998855591
358.7065275,6.09999990463257
358.7221525,0.439999997615814
358.7377775,-4.90000009536743
358.7534025,-10.1800003051758
358.7690275,-15.6499996185303
358.7846525,-21.2800006866455
358.8002775,-26.7600002288818
358.8159025,-31.7600002288818
358.8315275,-36.1100006103516
358.8471525,-39.9000015258789
358.8627775,-43.4199981689453
358.8784025,-47.1300010681152
358.8940275,-51.4199981689453
358.9096525,-56.3400001525879
358.9252775,-61.7799987792969
358.9409025,-67.5899963378906
358.9565275,-73.6699981689453
358.9721525,-79.8300018310547
358.9877775,-85.5599975585938
359.0034025,-90.0599975585938
359.0190275,-92.6699981689453
359.0346525,-93.3300018310547
359.0502775,-92.4899978637695
359.0659025,-90.5899963378906
359.0815275,-87.620002746582
359.0971525,-83.0
359.1127775,-76.2099990844727
359.1284025,-67.2900009155273
359.1440275,-56.9799995422363
359.1596525,-46.1500015258789
359.1752775,-35.2099990844727
359.1909025,-23.9099998474121
359.2065275,-12.0200004577637
359.2221525,-0.119999997317791
359.2377775,10.6300001144409
359.2534025,19.3299999237061
359.2690275,25.8600006103516
359.2846525,30.7299995422363
359.3002775,34.5499992370605
359.3159025,37.5400009155273
359.3315275,39.5999984741211
359.3471525,40.6100006103516
359.3627775,40.5499992370605
359.3784025,39.4300003051758
359.3940275,37.3199996948242
359.4096525,34.4000015258789
359.4252775,30.8400001525879
359.4409025,26.6700000762939
359.4565275,21.6900005340576
359.4721525,15.7299995422363
359.4877775,8.93000030517578
359.5034025,1.94000005722046
359.5190275,-4.40999984741211
359.5346525,-9.60000038146973
359.5502775,-13.5600004196167
359.5659025,-16.6700000762939
359.5815275,-19.4699993133545
359.5971525,-22.5300006866455
359.6127775,-26.1399993896484
359.6284025,-30.3400001525879
359.6440275,-34.9700012207031
359.6596525,-40.0
359.6752775,-45.439998626709
359.6909025,-51.1800003051758
359.7065275,-56.7099990844727
359.7221525,-61.25
359.7377775,-64.2300033569336
359.7534025,-65.7900009155273
359.7690275,-66.5299987792969
359.7846525,-66.879997253418
359.8002775,-66.8899993896484
359.8159025,-66.4599990844727
359.8315275,-65.5100021362305
359.8471525,-64.0999984741211
359.8627775,-62.3300018310547
359.8784025,-60.2400016784668
359.8940275,-57.7900009155273
359.9096525,-54.9099998474121
359.9252775,-51.25
359.9409025,-46.1100006103516
359.9565275,-38.8300018310547
359.9721525,-29.3999996185303
359.9877775,-18.4599990844727
360.0034025,-6.8600001335144
360.0190275,4.78999996185303
360.0346525,16.3199996948242
360.0502775,27.3799991607666
360.0659025,37.1500015258789
360.0815275,44.6599998474121
360.0971525,49.5200004577637
360.1127775,52.1699981689453
360.1284025,53.4900016784668
360.1440275,54.060001373291
360.1596525,53.7799987792969
360.1752775,52.1100006103516
360.1909025,48.7999992370605
360.2065275,43.9700012207031
360.2221525,37.9599990844727
360.2377775,31.1100006103516
360.2534025,23.8799991607666
360.2690275,16.8700008392334
360.2846525,10.8000001907349
360.3002775,6.15999984741211
360.3159025,2.94000005722046
360.3315275,0.829999983310699
360.3471525,-0.389999985694885
360.3627775,-0.800000011920929
360.3784025,-0.419999986886978
360.3940275,0.540000021457672
360.4096525,1.79999995231628
360.4252775,2.92000007629395
360.4409025,3.45000004768372
360.4565275,3.08999991416931
360.4721525,1.82000005245209
360.4877775,-0.230000004172325
360.5034025,-3.01999998092651
360.5190275,-6.55999994277954
360.5346525,-10.6800003051758
360.5502775,-14.8699998855591
360.5659025,-18.3600006103516
360.5815275,-20.5699996948242
360.5971525,-21.5300006866455
360.6127775,-21.6499996185303
360.6284025,-21.2199993133545
360.6440275,-20.2399997711182
360.6596525,-18.6499996185303
360.6752775,-16.5200004577637
360.6909025,-13.9200000762939
360.7065275,-10.3999996185303
360.7221525,-4.76000022888184
360.7377775,4.19999980926514
360.7534025,16.6599998474121
360.7690275,31.5699996948242
360.7846525,47.3899993896484
360.8002775,62.7799987792969
360.8159025,76.879997253418
360.8315275,88.9100036621094
360.8471525,97.870002746582
360.8627775,102.900001525879
360.8784025,103.879997253418
360.8940275,101.599998474121
360.9096525,97.3099975585938
360.9252775,92.1999969482422
360.9409025,87.1100006103516
360.9565275,82.4100036621094
360.9721525,78.129997253418
360.9877775,74.0699996948242
361.0034025,69.9199981689453
361.0190275,65.4700012207031
361.0346525,60.6699981689453
361.0502775,55.5900001525879
361.0659025,50.2700004577637
361.0815275,44.7099990844727
361.0971525,39.0099983215332
361.1127775,33.4900016784668
361.1284025,28.5799999237061
361.1440275,24.3799991607666
361.1596525,20.3299999237061
361.1752775,15.6000003814697
361.1909025,9.81999969482422
361.2065275,3.13000011444092
361.2221525,-4.19999980926514
361.2377775,-11.9499998092651
361.2534025,-19.8600006103516
361.2690275,-27.3199996948242
361.2846525,-33.4000015258789
361.3002775,-37.4700012207031
361.3159025,-39.75
361.3315275,-41.0
361.3471525,-41.7999992370605
361.3627775,-42.2700004577637
361.3784025,-42.2799987792969
361.3940275,-41.75
361.4096525,-40.7400016784668
361.4252775,-39.3199996948242
361.4409025,-37.4500007629395
361.4565275,-35.0299987792969
361.4721525,-32.0099983215332
361.4877775,-28.2999992370605
361.5034025,-23.6800003051758
361.5190275,-17.9300003051758
361.5346525,-11.1000003814697
361.5502775,-3.54999995231628
361.5659025,4.30000019073486
361.5815275,12.2200002670288
361.5971525,20.0900001525879
361.6127775,27.6900005340576
361.6284025,34.4500007629395
361.6440275,39.7700004577637
361.6596525,43.4000015258789
361.6752775,45.6100006103516
361.6909025,46.9199981689453
361.7065275,47.5699996948242
361.7221525,47.2200012207031
361.7377775,45.3600006103516
361.7534025,41.7599983215332
361.7690275,36.7099990844727
361.7846525,30.6299991607666
361.8002775,23.9599990844727
361.8159025,17.1299991607666
361.8315275,10.6999998092651
361.8471525,5.36999988555908
361.8627775,1.48000001907349
361.8784025,-1.30999994277954
361.8940275,-3.78999996185303
361.9096525,-6.3899998664856
361.9252775,-9.0600004196167
361.9409025,-11.4499998092651
361.9565275,-13.3199996948242
361.9721525,-14.6599998474121
361.9877775,-15.7299995422363
362.0034025,-16.9099998474121
362.0190275,-18.5200004577637
362.0346525,-20.6700000762939
362.0502775,-23.3999996185303
362.0659025,-26.8799991607666
362.0815275,-31.2600002288818
362.0971525,-36.4000015258789
362.1127775,-41.5800018310547
362.1284025,-45.689998626709
362.1440275,-47.8899993896484
362.1596525,-48.1399993896484
362.1752775,-47.0499992370605
362.1909025,-45.1500015258789
362.2065275,-42.6599998474121
362.2221525,-39.6199989318848
362.2377775,-36.1500015258789
362.2534025,-32.310001373291
362.2690275,-27.6900005340576
362.2846525,-21.2000007629395
362.3002775,-11.7399997711182
362.3159025,0.829999983310699
362.3315275,15.5900001525879
362.3471525,31.1299991607666
362.3627775,46.2599983215332
362.3784025,60.1800003051758
362.3940275,72.1999969482422
362.4096525,81.4400024414063
362.4252775,87.1699981689453
362.4409025,89.3899993896484
362.4565275,88.8600006103516
362.4721525,86.6699981689453
362.4877775,83.7699966430664
362.5034025,80.7699966430664
362.5190275,77.9400024414063
362.5346525,75.2699966430664
362.5502775,72.5199966430664
362.5659025,69.3099975585938
362.5815275,65.3399963378906
362.5971525,60.560001373291
362.6127775,55.1100006103516
362.6284025,49.0999984741211
362.6440275,42.6199989318848
362.6596525,35.8300018310547
362.6752775,29.1599998474121
362.6909025,23.1900005340576
362.7065275,18.3099994659424
362.7221525,14.4200000762939
362.7377775,11.0600004196167
362.7534025,7.96999979019165
