Time(s),Value(%)
352.0034025,128.5
352.0190275,114.129997253418
352.0346525,104.440002441406
352.0502775,99.1999969482422
352.0659025,95.4100036621094
352.0815275,89.4800033569336
352.0971525,78.8899993896484
352.1127775,62.7200012207031
352.1284025,41.7700004577637
352.1440275,18.4799995422363
352.1596525,-3.74000000953674
352.1752775,-21.9699993133545
352.1909025,-34.8699989318848
352.2065275,-43.0
352.2221525,-48.2999992370605
352.2377775,-53.1500015258789
352.2534025,-59.1399993896484
352.2690275,-66.5100021362305
352.2846525,-74.5100021362305
352.3002775,-82.0500030517578
352.3159025,-87.9599990844727
352.3315275,-91.3000030517578
352.3471525,-91.6999969482422
352.3627775,-89.7699966430664
352.3784025,-87.0299987792969
352.3940275,-85.0599975585938
352.4096525,-84.4100036621094
352.4252775,-84.5
352.4409025,-84.4000015258789
352.4565275,-83.3600006103516
352.4721525,-80.9300003051758
352.4877775,-77.0400009155273
352.5034025,-72.2799987792969
352.5190275,-67.5999984741211
352.5346525,-63.4900016784668
352.5502775,-59.7200012207031
352.5659025,-55.8600006103516
352.5815275,-51.7400016784668
352.5971525,-46.9900016784668
352.6127775,-40.0900001525879
352.6284025,-27.3799991607666
352.6440275,-4.01999998092651
352.6596525,32.3300018310547
352.6752775,77.870002746582
352.6909025,122.730003356934
352.7065275,155.589996337891
352.7221525,169.399993896484
352.7377775,164.660003662109
352.7534025,148.160003662109
352.7690275,128.539993286133
352.7846525,112.220001220703
352.8002775,101.669998168945
352.8159025,95.9300003051758
352.8315275,91.8899993896484
352.8471525,85.8199996948242
352.8627775,74.8600006103516
352.8784025,58.2400016784668
352.8940275,37.7200012207031
352.9096525,16.7600002288818
352.9252775,-1.16999995708466
352.9409025,-14.1400003433228
352.9565275,-22.2600002288818
352.9721525,-27.3400001525879
352.9877775,-31.8999996185303
353.0034025,-37.8300018310547
353.0190275,-45.4599990844727
353.0346525,-53.8600006103516
353.0502775,-61.810001373291
353.0659025,-68.5299987792969
353.0815275,-73.6900024414063
353.0971525,-77.3099975585938
353.1127775,-79.4400024414063
353.1284025,-80.0
353.1440275,-79.0100021362305
353.1596525,-76.9499969482422
353.1752775,-74.5999984741211
353.1909025,-72.6100006103516
353.2065275,-71.1999969482422
353.2221525,-70.0299987792969
353.2377775,-68.4300003051758
353.2534025,-65.9000015258789
353.2690275,-62.5
353.2846525,-58.810001373291
353.3002775,-55.5900001525879
353.3159025,-53.3600006103516
353.3315275,-52.1800003051758
353.3471525,-51.8199996948242
353.3627775,-51.7200012207031
353.3784025,-50.1699981689453
353.3940275,-43.1300010681152
353.4096525,-24.7199993133545
353.4252775,9.11999988555908
353.4409025,55.9799995422363
353.4565275,105.919998168945
353.4721525,146.080001831055
353.4877775,167.399993896484
353.5034025,168.880004882813
353.5190275,156.949996948242
353.5346525,141.110000610352
353.5502775,128.789993286133
353.5659025,122.470001220703
353.5815275,120.099998474121
353.5971525,117.629997253418
353.6127775,111.610000610352
353.6284025,100.019996643066
353.6440275,82.3000030517578
353.6596525,59.3699989318848
353.6752775,33.939998626709
353.6909025,9.80000019073486
353.7065275,-9.71000003814697
353.7221525,-23.0200004577637
353.7377775,-30.6800003051758
353.7534025,-34.8899993896484
353.7690275,-38.1500015258789
353.7846525,-42.2200012207031
353.8002775,-47.7099990844727
353.8159025,-54.1800003051758
353.8315275,-60.6699981689453
353.8471525,-66.2600021362305
353.8627775,-70.6999969482422
353.8784025,-74.3199996948242
353.8940275,-77.4599990844727
353.9096525,-79.9100036621094
353.9252775,-81.2200012207031
353.9409025,-81.0800018310547
353.9565275,-79.4599990844727
353.9721525,-76.379997253418
353.9877775,-72.0
354.0034025,-66.7900009155273
354.0190275,-61.3400001525879
354.0346525,-56.2200012207031
354.0502775,-51.8800010681152
354.0659025,-48.8600006103516
354.0815275,-47.560001373291
354.0971525,-47.8800010681152
354.1127775,-49.060001373291
354.1284025,-49.9099998474121
354.1440275,-49.2999992370605
354.1596525,-46.1599998474121
354.1752775,-38.6699981689453
354.1909025,-23.5
354.2065275,3.08999991416931
354.2221525,41.9000015258789
354.2377775,87.9000015258789
354.2534025,131.289993286133
354.2690275,162.100006103516
354.2846525,175.020004272461
354.3002775,171.5
354.3159025,158.100006103516
354.3315275,142.639999389648
354.3471525,130.550003051758
354.3627775,123.379997253418
354.3784025,119.540000915527
354.3940275,116.029998779297
354.4096525,109.800003051758
354.4252775,98.3499984741211
354.4409025,80.4100036621094
354.4565275,56.8499984741211
354.4721525,30.9599990844727
354.4877775,7.28000020980835
354.5034025,-10.4799995422363
354.5190275,-21.1299991607666
354.5346525,-26.1100006103516
354.5502775,-28.4500007629395
354.5659025,-31.1800003051758
354.5815275,-36.1199989318848
354.5971525,-43.4000015258789
354.6127775,-51.9099998474121
354.6284025,-60.1399993896484
354.6440275,-67.1800003051758
354.6596525,-72.8600006103516
354.6752775,-77.2200012207031
354.6909025,-80.0699996948242
354.7065275,-81.3199996948242
354.7221525,-81.5899963378906
354.7377775,-81.870002746582
354.7534025,-82.8099975585938
354.7690275,-84.1699981689453
354.7846525,-85.0800018310547
354.8002775,-84.5500030517578
354.8159025,-81.9199981689453
354.8315275,-77.1399993896484
354.8471525,-70.8899993896484
354.8627775,-64.4000015258789
354.8784025,-58.8600006103516
354.8940275,-54.7900009155273
354.9096525,-51.9500007629395
354.9252775,-49.7299995422363
354.9409025,-47.5999984741211
354.9565275,-45.0400009155273
354.9721525,-41.3400001525879
354.9877775,-35.6100006103516
355.0034025,-26.1700000762939
355.0190275,-9.85999965667725
355.0346525,16.9699993133545
355.0502775,55.1699981689453
355.0659025,99.7799987792969
355.0815275,140.910003662109
355.0971525,168.389999389648
355.1127775,176.979995727539
355.1284025,168.639999389648
355.1440275,150.789993286133
355.1596525,132.080001831055
355.1752775,118.269996643066
355.1909025,110.5
355.2065275,106.23999786377
355.2221525,101.610000610352
355.2377775,93.370002746582
355.2534025,79.8300018310547
355.2690275,61.0200004577637
355.2846525,38.6599998474121
355.3002775,15.9799995422363
355.3159025,-3.41000008583069
355.3315275,-16.9599990844727
355.3471525,-24.1800003051758
355.3627775,-26.6100006103516
355.3784025,-26.8500003814697
355.3940275,-27.3299999237061
355.4096525,-29.6200008392334
355.4252775,-34.0999984741211
355.4409025,-40.0999984741211
355.4565275,-46.4599990844727
355.4721525,-52.1599998474121
355.4877775,-56.6800003051758
355.5034025,-59.9199981689453
355.5190275,-61.9199981689453
355.5346525,-62.6699981689453
355.5502775,-62.2700004577637
355.5659025,-61.0999984741211
355.5815275,-59.6399993896484
355.5971525,-58.2400016784668
355.6127775,-56.8899993896484
355.6284025,-55.25
355.6440275,-52.8699989318848
355.6596525,-49.4300003051758
355.6752775,-44.9799995422363
355.6909025,-40.0
355.7065275,-35.25
355.7221525,-31.4400005340576
355.7377775,-28.8899993896484
355.7534025,-27.5599994659424
355.7690275,-27.1399993896484
355.7846525,-26.8500003814697
355.8002775,-24.8099994659424
355.8159025,-17.3500003814697
355.8315275,-0.0199999995529652
355.8471525,29.2900009155273
355.8627775,67.4300003051758
355.8784025,106.220001220703
355.8940275,136.190002441406
355.9096525,151.229995727539
355.9252775,151.149993896484
355.9409025,140.839996337891
355.9565275,127.0
355.9721525,114.769996643066
355.9877775,106.050003051758
356.0034025,100.089996337891
356.0190275,94.879997253418
356.0346525,88.0
356.0502775,77.0899963378906
356.0659025,60.6300010681152
356.0815275,39.0
356.0971525,14.8400001525879
356.1127775,-7.80000019073486
356.1284025,-25.3999996185303
356.1440275,-36.6300010681152
356.1596525,-42.7099990844727
356.1752775,-46.3400001525879
356.1909025,-50.2599983215332
356.2065275,-56.1800003051758
356.2221525,-64.0699996948242
356.2377775,-72.370002746582
356.2534025,-79.0599975585938
356.2690275,-82.7600021362305
356.2846525,-83.3000030517578
356.3002775,-81.5199966430664
356.3159025,-78.5199966430664
356.3315275,-74.8600006103516
356.3471525,-70.5899963378906
356.3627775,-65.8300018310547
356.3784025,-61.1100006103516
356.3940275,-57.2700004577637
356.4096525,-54.7299995422363
356.4252775,-53.3400001525879
356.4409025,-52.6399993896484
356.4565275,-52.0999984741211
356.4721525,-51.2200012207031
356.4877775,-49.6300010681152
356.5034025,-47.4799995422363
356.5190275,-45.2099990844727
356.5346525,-42.9500007629395
356.5502775,-40.5800018310547
356.5659025,-38.1199989318848
356.5815275,-35.7700004577637
356.5971525,-33.3400001525879
356.6127775,-28.9300003051758
356.6284025,-18.2299995422363
356.6440275,3.76999998092651
356.6596525,38.6300010681152
356.6752775,81.3300018310547
356.6909025,121.720001220703
356.7065275,149.679992675781
356.7221525,160.149993896484
356.7377775,154.779998779297
356.7534025,140.190002441406
356.7690275,124.120002746582
356.7846525,111.73999786377
356.8002775,103.480003356934
356.8159025,96.0999984741211
356.8315275,86.1500015258789
356.8471525,72.4000015258789
356.8627775,54.9300003051758
356.8784025,33.8800010681152
356.8940275,10.4700002670288
356.9096525,-12.3299999237061
356.9252775,-31.2800006866455
356.9409025,-44.7200012207031
356.9565275,-52.8600006103516
356.9721525,-57.0400009155273
356.9877775,-59.1699981689453
357.0034025,-61.25
357.0190275,-64.5400009155273
357.0346525,-68.6900024414063
357.0502775,-72.0899963378906
357.0659025,-73.1399993896484
357.0815275,-71.1699981689453
357.0971525,-66.6900024414063
357.1127775,-61.2599983215332
357.1284025,-56.5099983215332
357.1440275,-53.1500015258789
357.1596525,-50.7700004577637
357.1752775,-48.75
357.1909025,-46.8800010681152
357.2065275,-45.4300003051758
357.2221525,-45.2400016784668
357.2377775,-47.2999992370605
357.2534025,-51.8300018310547
357.2690275,-57.9900016784668
357.2846525,-64.4700012207031
357.3002775,-70.3000030517578
357.3159025,-74.9599990844727
357.3315275,-78.0
357.3471525,-79.0800018310547
357.3627775,-78.2900009155273
357.3784025,-76.1800003051758
357.3940275,-72.8399963378906
357.4096525,-66.8899993896484
357.4252775,-55.1300010681152
357.4409025,-33.8499984741211
357.4565275,-1.77999997138977
357.4721525,37.3699989318848
357.4877775,75.6399993896484
357.5034025,104.480003356934
357.5190275,119.089996337891
357.5346525,120.209999084473
357.5502775,112.919998168945
357.5659025,103.5
357.5815275,96.370002746582
357.5971525,92.6600036621094
357.6127775,90.75
357.6284025,88.0400009155273
357.6440275,82.379997253418
357.6596525,72.6500015258789
357.6752775,58.8699989318848
357.6909025,42.3899993896484
357.7065275,25.6399993896484
357.7221525,11.0299997329712
357.7377775,0.0900000035762787
357.7534025,-6.8899998664856
357.7690275,-10.8800001144409
357.7846525,-13.6700000762939
357.8002775,-17.0100002288818
357.8159025,-21.7800006866455
357.8315275,-27.7099990844727
357.8471525,-33.939998626709
357.8627775,-39.7599983215332
357.8784025,-44.8199996948242
357.8940275,-48.9700012207031
357.9096525,-52.0400009155273
357.9252775,-53.7099990844727
357.9409025,-53.4700012207031
357.9565275,-51.060001373291
357.9721525,-47.1100006103516
357.9877775,-43.0800018310547
358.0034025,-40.4099998474121
358.0190275,-39.560001373291
358.0346525,-39.9199981689453
358.0502775,-40.4300003051758
358.0659025,-40.439998626709
358.0815275,-39.8199996948242
358.0971525,-38.5900001525879
358.1127775,-36.7799987792969
358.1284025,-34.6100006103516
358.1440275,-32.2799987792969
358.1596525,-29.4300003051758
358.1752775,-24.25
358.1909025,-13.1999998092651
358.2065275,7.5
358.2221525,38.8899993896484
358.2377775,76.8499984741211
358.2534025,113.089996337891
358.2690275,139.089996337891
358.2846525,150.309997558594
358.3002775,147.830001831055
358.3159025,136.899993896484
358.3315275,123.860000610352
358.3471525,113.26000213623
358.3627775,106.569999694824
358.3784025,102.550003051758
358.3940275,98.5800018310547
358.4096525,91.9800033569336
358.4252775,80.7600021362305
358.4409025,64.0800018310547
358.4565275,42.9099998474121
358.4721525,20.2900009155273
358.4877775,0.180000007152557
358.5034025,-14.5500001907349
358.5190275,-23.2099990844727
358.5346525,-27.1000003814697
358.5502775,-28.7000007629395
358.5659025,-30.6900005340576
358.5815275,-34.9300003051758
358.5971525,-41.7599983215332
358.6127775,-49.9900016784668
358.6284025,-57.6699981689453
358.6440275,-63.25
358.6596525,-66.2200012207031
358.6752775,-67.0800018310547
358.6909025,-66.620002746582
358.7065275,-65.3600006103516
358.7221525,-63.5999984741211
358.7377775,-61.5200004577637
358.7534025,-59.1599998474121
358.7690275,-56.4799995422363
358.7846525,-53.3800010681152
358.8002775,-49.9099998474121
358.8159025,-46.3699989318848
358.8315275,-43.2799987792969
358.8471525,-41.0900001525879
358.8627775,-39.939998626709
358.8784025,-39.6399993896484
358.8940275,-39.75
358.9096525,-39.7700004577637
358.9252775,-39.1300010681152
358.9409025,-36.8699989318848
358.9565275,-30.6700000762939
358.9721525,-16.5900001525879
358.9877775,8.86999988555908
359.0034025,45.2400016784668
359.0190275,86.3300018310547
359.0346525,122.610000610352
359.0502775,145.940002441406
359.0659025,153.110000610352
359.0815275,146.440002441406
359.0971525,131.779998779297
359.1127775,115.470001220703
359.1284025,101.879997253418
359.1440275,92.6100006103516
359.1596525,86.9100036621094
359.1752775,82.5999984741211
359.1909025,76.75
359.2065275,66.4599990844727
359.2221525,50.0999984741211
359.2377775,28.3799991607666
359.2534025,4.51999998092651
359.2690275,-17.0300006866455
359.2846525,-32.7200012207031
359.3002775,-41.4799995422363
359.3159025,-45.0200004577637
359.3315275,-46.3899993896484
359.3471525,-47.9700012207031
359.3627775,-50.5699996948242
359.3784025,-53.9199981689453
359.3940275,-57.5
359.4096525,-60.9300003051758
359.4252775,-63.7999992370605
359.4409025,-65.6800003051758
359.4565275,-66.4199981689453
359.4721525,-66.5199966430664
359.4877775,-66.8499984741211
359.5034025,-67.9599990844727
359.5190275,-69.6999969482422
359.5346525,-71.25
359.5502775,-71.7200012207031
359.5659025,-70.6100006103516
359.5815275,-68.1500015258789
359.5971525,-64.9800033569336
359.6127775,-61.5699996948242
359.6284025,-57.9700012207031
359.6440275,-53.9700012207031
359.6596525,-49.2099990844727
359.6752775,-43.5299987792969
359.6909025,-37.2299995422363
359.7065275,-31.0900001525879
359.7221525,-25.3999996185303
359.7377775,-18.7800006866455
359.7534025,-8.23999977111816
359.7690275,8.96000003814697
359.7846525,33.7400016784668
359.8002775,64.2900009155273
359.8159025,95.3199996948242
359.8315275,119.26000213623
359.8471525,130.550003051758
359.8627775,128.970001220703
359.8784025,118.910003662109
359.8940275,106.110000610352
359.9096525,94.9100036621094
359.9252775,87.1800003051758
359.9409025,82.4100036621094
359.9565275,78.2600021362305
359.9721525,71.5400009155273
359.9877775,59.6100006103516
360.0034025,42.0299987792969
360.0190275,21.2099990844727
360.0346525,1.50999999046326
360.0502775,-13.039999961853
360.0659025,-21.1499996185303
360.0815275,-24.6299991607666
360.0971525,-26.7700004577637
360.1127775,-30.1499996185303
360.1284025,-35.5800018310547
360.1440275,-42.2900009155273
360.1596525,-48.8600006103516
360.1752775,-54.1800003051758
360.1909025,-58.1199989318848
360.2065275,-61.4799995422363
360.2221525,-65.1900024414063
360.2377775,-69.629997253418
360.2534025,-74.5800018310547
360.2690275,-79.3899993896484
360.2846525,-83.370002746582
360.3002775,-85.8499984741211
360.3159025,-86.379997253418
360.3315275,-84.870002746582
360.3471525,-81.5999984741211
360.3627775,-77.0299987792969
360.3784025,-71.5100021362305
360.3940275,-65.1800003051758
360.4096525,-58.2799987792969
360.4252775,-51.439998626709
360.4409025,-45.6100006103516
360.4565275,-41.5699996948242
360.4721525,-39.3199996948242
360.4877775,-37.8899993896484
360.5034025,-35.060001373291
360.5190275,-27.2099990844727
360.5346525,-10.210000038147
360.5502775,17.8999996185303
360.5659025,54.0999984741211
360.5815275,90.4000015258789
360.5971525,117.790000915527
360.6127775,130.949996948242
360.6284025,130.360000610352
360.6440275,120.910003662109
360.6596525,108.769996643066
360.6752775,98.5699996948242
360.6909025,91.9400024414063
360.7065275,87.6600036621094
360.7221525,83.2699966430664
360.7377775,76.6100006103516
360.7534025,66.2600021362305
360.7690275,51.5200004577637
360.7846525,32.7999992370605
360.8002775,12.2600002288818
360.8159025,-6.11999988555908
360.8315275,-18.2700004577637
360.8471525,-22.5499992370605
360.8627775,-21.1200008392334
360.8784025,-18.3400001525879
360.8940275,-18.0300006866455
360.9096525,-21.8899993896484
360.9252775,-29.4699993133545
360.9409025,-39.2099990844727
360.9565275,-49.4300003051758
360.9721525,-58.9599990844727
360.9877775,-67.0400009155273
361.0034025,-72.9300003051758
361.0190275,-75.9400024414063
361.0346525,-75.9000015258789
361.0502775,-73.5699996948242
361.0659025,-70.3099975585938
361.0815275,-67.1999969482422
361.0971525,-64.4599990844727
361.1127775,-61.5699996948242
361.1284025,-57.8400001525879
361.1440275,-52.9799995422363
361.1596525,-47.1199989318848
361.1752775,-40.8300018310547
361.1909025,-35.0
361.2065275,-30.4699993133545
361.2221525,-27.5699996948242
361.2377775,-25.8899993896484
361.2534025,-24.5599994659424
361.2690275,-22.8500003814697
361.2846525,-19.8899993896484
361.3002775,-13.3999996185303
361.3159025,1.21000003814697
361.3315275,28.6299991607666
361.3471525,68.9400024414063
361.3627775,115.01000213623
361.3784025,155.309997558594
361.3940275,180.009994506836
361.4096525,185.729995727539
361.4252775,176.229995727539
361.4409025,159.419998168945
361.4565275,142.979995727539
361.4721525,131.360000610352
361.4877775,124.860000610352
361.5034025,120.930000305176
361.5190275,116.080001831055
361.5346525,107.540000915527
361.5502775,93.8600006103516
361.5659025,74.9300003051758
361.5815275,52.310001373291
361.5971525,29.3299999237061
361.6127775,9.93000030517578
361.6284025,-3.4300000667572
361.6440275,-11.1300001144409
361.6596525,-15.4899997711182
361.6752775,-18.8600006103516
361.6909025,-22.5799999237061
361.7065275,-27.1599998474121
361.7221525,-32.5999984741211
361.7377775,-38.3699989318848
361.7534025,-43.5999984741211
361.7690275,-47.7200012207031
361.7846525,-50.8199996948242
361.8002775,-53.3699989318848
361.8159025,-55.7700004577637
361.8315275,-58.2999992370605
361.8471525,-61.3699989318848
361.8627775,-65.1399993896484
361.8784025,-68.7399978637695
361.8940275,-70.3300018310547
361.9096525,-68.4400024414063
361.9252775,-63.3600006103516
361.9409025,-57.060001373291
361.9565275,-51.5800018310547
361.9721525,-47.7200012207031
361.9877775,-45.1599998474121
362.0034025,-43.2700004577637
362.0190275,-41.5400009155273
362.0346525,-39.439998626709
362.0502775,-36.1699981689453
362.0659025,-30.1100006103516
362.0815275,-18.3199996948242
362.0971525,2.67000007629395
362.1127775,34.0699996948242
362.1284025,72.0
362.1440275,107.930000305176
362.1596525,132.860000610352
362.1752775,141.960006713867
362.1909025,136.449996948242
362.2065275,121.930000305176
362.2221525,104.930000305176
362.2377775,90.1500015258789
362.2534025,79.4499969482422
362.2690275,72.3499984741211
362.2846525,66.9400024414063
362.3002775,60.7299995422363
362.3159025,51.3699989318848
362.3315275,37.3600006103516
362.3471525,18.9799995422363
362.3627775,-1.53999996185303
362.3784025,-20.7199993133545
362.3940275,-35.4500007629395
362.4096525,-44.7099990844727
362.4252775,-49.810001373291
362.4409025,-53.0800018310547
362.4565275,-56.310001373291
362.4721525,-60.1300010681152
362.4877775,-64.4700012207031
362.5034025,-69.2200012207031
362.5190275,-74.3300018310547
362.5346525,-79.5400009155273
362.5502775,-84.1900024414063
362.5659025,-87.5199966430664
362.5815275,-88.9899978637695
362.5971525,-88.4100036621094
362.6127775,-85.879997253418
362.6284025,-81.9599990844727
362.6440275,-77.5699996948242
362.6596525,-73.5699996948242
362.6752775,-70.4700012207031
362.6909025,-68.2900009155273
362.7065275,-66.629997253418
