Time(s),Value(%)
1503.0062101,-16.1100006103516
1503.0218351,-18.2299995422363
1503.0374601,-20.1100006103516
1503.0530851,-21.5799999237061
1503.0687101,-22.5799999237061
1503.0843351,-23.1200008392334
1503.0999601,-23.1000003814697
1503.1155851,-22.1599998474121
1503.1312101,-19.8999996185303
1503.1468351,-16.2299995422363
1503.1624601,-11.3500003814697
1503.1780851,-5.44999980926514
1503.1937101,1.33000004291534
1503.2093351,8.72000026702881
1503.2249601,16.1900005340576
1503.2405851,23.1000003814697
1503.2562101,29.1100006103516
1503.2718351,34.4199981689453
1503.2874601,39.3899993896484
1503.3030851,44.0400009155273
1503.3187101,47.9700012207031
1503.3343351,50.8199996948242
1503.3499601,52.560001373291
1503.3655851,53.4700012207031
1503.3812101,53.939998626709
1503.3968351,54.2900009155273
1503.4124601,54.6500015258789
1503.4280851,55.0400009155273
1503.4437101,55.4799995422363
1503.4593351,56.1300010681152
1503.4749601,57.1500015258789
1503.4905851,58.5499992370605
1503.5062101,59.9500007629395
1503.5218351,60.689998626709
1503.5374601,60.2299995422363
1503.5530851,58.5200004577637
1503.5687101,55.8899993896484
1503.5843351,52.7000007629395
1503.5999601,49.1599998474121
1503.6155851,45.3600006103516
1503.6312101,41.4000015258789
1503.6468351,37.3600006103516
1503.6624601,33.310001373291
1503.6780851,29.2000007629395
1503.6937101,24.9699993133545
1503.7093351,20.6299991607666
1503.7249601,16.4300003051758
1503.7405851,12.8299999237061
1503.7562101,10.2399997711182
1503.7718351,8.76000022888184
1503.7874601,8.09000015258789
1503.8030851,7.78999996185303
1503.8187101,7.73999977111816
1503.8343351,8.27000045776367
1503.8499601,9.73999977111816
1503.8655851,12.0100002288818
1503.8812101,14.3999996185303
1503.8968351,16.2000007629395
1503.9124601,17.0799999237061
1503.9280851,17.1200008392334
1503.9437101,16.5900001525879
1503.9593351,15.6999998092651
1503.9749601,14.5200004577637
1503.9905851,13.0799999237061
1504.0062101,11.3199996948242
1504.0218351,9.14999961853027
1504.0374601,6.51999998092651
1504.0530851,3.40000009536743
1504.0687101,-0.239999994635582
1504.0843351,-4.71000003814697
1504.0999601,-10.460000038147
1504.1155851,-17.8099994659424
1504.1312101,-26.6399993896484
1504.1468351,-36.2900009155273
1504.1624601,-45.810001373291
1504.1780851,-54.4700012207031
1504.1937101,-61.9799995422363
1504.2093351,-68.5199966430664
1504.2249601,-74.6500015258789
1504.2405851,-81.1500015258789
1504.2562101,-88.5999984741211
1504.2718351,-97.120002746582
1504.2874601,-106.580001831055
1504.3030851,-116.910003662109
1504.3187101,-128.139999389648
1504.3343351,-139.990005493164
1504.3499601,-151.5
1504.3655851,-161.210006713867
1504.3812101,-168.050003051758
1504.3968351,-172.050003051758
1504.4124601,-174.050003051758
1504.4280851,-174.720001220703
1504.4437101,-174.25
1504.4593351,-172.630004882813
1504.4749601,-169.970001220703
1504.4905851,-166.509994506836
1504.5062101,-162.149993896484
1504.5218351,-156.220001220703
1504.5374601,-147.970001220703
1504.5530851,-137.289993286133
1504.5687101,-124.769996643066
1504.5843351,-111.360000610352
1504.5999601,-97.8399963378906
1504.6155851,-84.7799987792969
1504.6312101,-72.7099990844727
1504.6468351,-62.1599998474121
1504.6624601,-53.4900016784668
1504.6780851,-46.5099983215332
1504.6937101,-40.6800003051758
1504.7093351,-35.5099983215332
1504.7249601,-30.7800006866455
1504.7405851,-26.4400005340576
1504.7562101,-22.4899997711182
1504.7718351,-18.8799991607666
1504.7874601,-15.5699996948242
1504.8030851,-12.6000003814697
1504.8187101,-10.0100002288818
1504.8343351,-7.84000015258789
1504.8499601,-6.07000017166138
1504.8655851,-4.78000020980835
1504.8812101,-4.01000022888184
1504.8968351,-3.73000001907349
1504.9124601,-3.78999996185303
1504.9280851,-4.07000017166138
1504.9437101,-4.6100001335144
1504.9593351,-5.61999988555908
1504.9749601,-7.23000001907349
1504.9905851,-9.28999996185303
1505.0062101,-11.4499998092651
1505.0218351,-13.5
1505.0374601,-15.4499998092651
1505.0530851,-17.3600006103516
1505.0687101,-19.1100006103516
1505.0843351,-20.3400001525879
1505.0999601,-20.6399993896484
1505.1155851,-19.8199996948242
1505.1312101,-17.9500007629395
1505.1468351,-15.2200002670288
1505.1624601,-11.8800001144409
1505.1780851,-8.18000030517578
1505.1937101,-4.38000011444092
1505.2093351,-0.569999992847443
1505.2249601,3.65000009536743
1505.2405851,9.3100004196167
1505.2562101,17.3600006103516
1505.2718351,28.0300006866455
1505.2874601,40.810001373291
1505.3030851,55.0499992370605
1505.3187101,70.2300033569336
1505.3343351,85.7099990844727
1505.3499601,100.360000610352
1505.3655851,112.569999694824
1505.3812101,121.190002441406
1505.3968351,126.319999694824
1505.4124601,128.990005493164
1505.4280851,130.110000610352
1505.4437101,130.059997558594
1505.4593351,128.910003662109
1505.4749601,126.839996337891
1505.4905851,124.160003662109
1505.5062101,121.25
1505.5218351,118.410003662109
1505.5374601,115.800003051758
1505.5530851,113.410003662109
1505.5687101,111.220001220703
1505.5843351,109.23999786377
1505.5999601,107.540000915527
1505.6155851,106.069999694824
1505.6312101,104.48999786377
1505.6468351,102.209999084473
1505.6624601,98.6900024414063
1505.6780851,93.8499984741211
1505.6937101,88.0400009155273
1505.7093351,81.7399978637695
1505.7249601,75.3300018310547
1505.7405851,69.0
1505.7562101,62.8600006103516
1505.7718351,56.9500007629395
1505.7874601,51.3400001525879
1505.8030851,46.1599998474121
1505.8187101,41.5400009155273
1505.8343351,37.5400009155273
1505.8499601,34.2999992370605
1505.8655851,32.1800003051758
1505.8812101,31.5200004577637
1505.8968351,32.2700004577637
1505.9124601,33.8400001525879
1505.9280851,35.4599990844727
1505.9437101,36.6300010681152
1505.9593351,37.4099998474121
1505.9749601,38.060001373291
1505.9905851,38.4700012207031
1506.0062101,38.1800003051758
1506.0218351,36.8300018310547
1506.0374601,34.439998626709
1506.0530851,31.3700008392334
1506.0687101,28.0100002288818
1506.0843351,24.5
1506.0999601,20.8099994659424
1506.1155851,16.8600006103516
1506.1312101,12.6999998092651
1506.1468351,8.51000022888184
1506.1624601,4.44999980926514
1506.1780851,0.629999995231628
1506.1937101,-3.03999996185303
1506.2093351,-6.82000017166138
1506.2249601,-11.0200004577637
1506.2405851,-15.7700004577637
1506.2562101,-21.0200004577637
1506.2718351,-26.5100002288818
1506.2874601,-31.9300003051758
1506.3030851,-37.0499992370605
1506.3187101,-41.75
1506.3343351,-46.0499992370605
1506.3499601,-50.0999984741211
1506.3655851,-54.1199989318848
1506.3812101,-58.3199996948242
1506.3968351,-62.7299995422363
1506.4124601,-67.2900009155273
1506.4280851,-71.9599990844727
1506.4437101,-76.7099990844727
1506.4593351,-81.4400024414063
1506.4749601,-85.8899993896484
1506.4905851,-89.629997253418
1506.5062101,-92.1100006103516
1506.5218351,-92.8300018310547
1506.5374601,-91.5500030517578
1506.5530851,-88.4400024414063
1506.5687101,-84.0100021362305
1506.5843351,-78.9400024414063
1506.5999601,-73.8499984741211
1506.6155851,-69.0899963378906
1506.6312101,-64.6500015258789
1506.6468351,-60.2200012207031
1506.6624601,-55.4700012207031
1506.6780851,-50.2200012207031
1506.6937101,-44.5699996948242
1506.7093351,-38.6399993896484
1506.7249601,-32.5699996948242
1506.7405851,-26.5900001525879
1506.7562101,-21.1399993896484
1506.7718351,-16.9799995422363
1506.7874601,-14.8000001907349
1506.8030851,-14.75
1506.8187101,-16.4300003051758
1506.8343351,-19.1399993896484
1506.8499601,-22.3299999237061
1506.8655851,-25.7399997711182
1506.8812101,-29.2999992370605
1506.8968351,-32.9900016784668
1506.9124601,-36.5800018310547
1506.9280851,-39.9599990844727
1506.9437101,-43.060001373291
1506.9593351,-46.0400009155273
1506.9749601,-49.1199989318848
1506.9905851,-52.2700004577637
1507.0062101,-55.2299995422363
1507.0218351,-57.7099990844727
1507.0374601,-59.5999984741211
1507.0530851,-60.9500007629395
1507.0687101,-62.0200004577637
1507.0843351,-63.1100006103516
1507.0999601,-64.4499969482422
1507.1155851,-66.0400009155273
1507.1312101,-67.6600036621094
1507.1468351,-68.9199981689453
1507.1624601,-69.4599990844727
1507.1780851,-69.1600036621094
1507.1937101,-67.9700012207031
1507.2093351,-65.7200012207031
1507.2249601,-62.0299987792969
1507.2405851,-56.5499992370605
1507.2562101,-49.2900009155273
1507.2718351,-40.8499984741211
1507.2874601,-32.1699981689453
1507.3030851,-24.0300006866455
1507.3187101,-16.5799999237061
1507.3343351,-9.35000038146973
1507.3499601,-1.87000000476837
1507.3655851,5.73999977111816
1507.3812101,12.9300003051758
1507.3968351,19.2399997711182
1507.4124601,24.6299991607666
1507.4280851,29.3600006103516
1507.4437101,33.560001373291
1507.4593351,36.939998626709
1507.4749601,39.1199989318848
1507.4905851,39.9199981689453
1507.5062101,39.5299987792969
1507.5218351,38.2700004577637
1507.5374601,36.4900016784668
1507.5530851,34.4300003051758
1507.5687101,32.3199996948242
1507.5843351,30.2800006866455
1507.5999601,28.3899993896484
1507.6155851,26.6399993896484
1507.6312101,24.9500007629395
1507.6468351,23.1599998474121
1507.6624601,21.1499996185303
1507.6780851,18.9099998474121
1507.6937101,16.7199993133545
1507.7093351,15.039999961853
1507.7249601,14.289999961853
1507.7405851,14.6000003814697
1507.7562101,15.7700004577637
1507.7718351,17.6200008392334
1507.7874601,20.4300003051758
1507.8030851,24.9699993133545
1507.8187101,31.8600006103516
1507.8343351,40.7700004577637
1507.8499601,50.5
1507.8655851,59.7299995422363
1507.8812101,67.6100006103516
1507.8968351,74.1500015258789
1507.9124601,80.3199996948242
1507.9280851,88.0199966430664
1507.9437101,98.8199996948242
1507.9593351,113.059997558594
1507.9749601,130.029998779297
1507.9905851,148.839996337891
1508.0062101,168.800003051758
1508.0218351,188.979995727539
1508.0374601,207.369995117188
1508.0530851,220.910003662109
1508.0687101,227.070007324219
1508.0843351,225.720001220703
1508.0999601,218.740005493164
1508.1155851,208.449996948242
1508.1312101,196.460006713867
1508.1468351,183.660003662109
1508.1624601,170.580001831055
1508.1780851,157.539993286133
1508.1937101,144.619995117188
1508.2093351,131.600006103516
1508.2249601,118.220001220703
1508.2405851,104.419998168945
1508.2562101,90.4300003051758
1508.2718351,76.6600036621094
1508.2874601,63.4500007629395
1508.3030851,50.939998626709
1508.3187101,38.9300003051758
1508.3343351,26.8299999237061
1508.3499601,14.1300001144409
1508.3655851,0.649999976158142
1508.3812101,-13.5299997329712
1508.3968351,-28.3299999237061
1508.4124601,-43.7200012207031
1508.4280851,-59.4199981689453
1508.4437101,-74.75
1508.4593351,-88.7600021362305
1508.4749601,-100.709999084473
1508.4905851,-110.540000915527
1508.5062101,-118.550003051758
1508.5218351,-124.970001220703
1508.5374601,-129.710006713867
1508.5530851,-132.649993896484
1508.5687101,-133.929992675781
1508.5843351,-133.929992675781
1508.5999601,-133.130004882813
1508.6155851,-131.830001831055
1508.6312101,-130.039993286133
1508.6468351,-127.660003662109
1508.6624601,-124.709999084473
1508.6780851,-121.459999084473
1508.6937101,-118.339996337891
1508.7093351,-115.629997253418
1508.7249601,-113.400001525879
1508.7405851,-111.470001220703
1508.7562101,-109.650001525879
1508.7718351,-107.839996337891
1508.7874601,-106.069999694824
1508.8030851,-104.349998474121
1508.8187101,-102.769996643066
1508.8343351,-101.370002746582
1508.8499601,-100.209999084473
1508.8655851,-99.2600021362305
1508.8812101,-98.4400024414063
1508.8968351,-97.7399978637695
1508.9124601,-96.5100021362305
1508.9280851,-95.8399963378906
1508.9437101,-95.9000015258789
1508.9593351,-96.5500030517578
1508.9749601,-97.3600006103516
1508.9905851,-97.9100036621094
1509.0062101,-97.9599990844727
1509.0218351,-97.5100021362305
1509.0374601,-96.7600021362305
1509.0530851,-95.9899978637695
1509.0687101,-95.4300003051758
1509.0843351,-95.0800018310547
1509.0999601,-94.6699981689453
1509.1155851,-93.6800003051758
1509.1312101,-91.6500015258789
1509.1468351,-88.4499969482422
1509.1624601,-84.1699981689453
1509.1780851,-78.8199996948242
1509.1937101,-72.120002746582
1509.2093351,-63.6500015258789
1509.2249601,-53.3699989318848
1509.2405851,-41.9900016784668
1509.2562101,-30.6399993896484
1509.2718351,-20.3299999237061
1509.2874601,-11.4499998092651
1509.3030851,-3.85999989509583
1509.3187101,2.75
1509.3343351,8.56999969482422
1509.3499601,13.6000003814697
1509.3655851,17.8299999237061
1509.3812101,21.3899993896484
1509.3968351,24.4899997711182
1509.4124601,27.3299999237061
1509.4280851,30.0100002288818
1509.4437101,32.4000015258789
1509.4593351,34.1100006103516
1509.4749601,34.689998626709
1509.4905851,33.8899993896484
1509.5062101,31.8600006103516
1509.5218351,29.0300006866455
1509.5374601,25.8099994659424
1509.5530851,22.3400001525879
1509.5687101,18.5400009155273
1509.5843351,14.3699998855591
1509.5999601,10.0500001907349
1509.6155851,6.0
1509.6312101,2.48000001907349
1509.6468351,-0.600000023841858
1509.6624601,-3.49000000953674
1509.6780851,-6.19000005722046
1509.6937101,-8.4399995803833
1509.7093351,-9.98999977111816
1509.7249601,-10.8000001907349
1509.7405851,-10.9899997711182
1509.7562101,-10.3699998855591
1509.7718351,-8.32999992370605
1509.7874601,-4.19999980926514
1509.8030851,2.14000010490417
1509.8187101,10.2200002670288
1509.8343351,19.3799991607666
1509.8499601,29.0699996948242
1509.8655851,38.7900009155273
1509.8812101,47.9300003051758
1509.8968351,55.7099990844727
1509.9124601,61.0900001525879
1509.9280851,64.5599975585938
1509.9437101,66.6100006103516
1509.9593351,67.6500015258789
1509.9749601,67.9000015258789
1509.9905851,67.4800033569336
1510.0062101,66.5500030517578
1510.0218351,65.3399963378906
1510.0374601,63.9099998474121
1510.0530851,62.1500015258789
1510.0687101,59.8600006103516
1510.0843351,56.9799995422363
1510.0999601,53.7000007629395
1510.1155851,50.2999992370605
1510.1312101,47.0499992370605
1510.1468351,44.1100006103516
1510.1624601,41.5499992370605
1510.1780851,39.4300003051758
1510.1937101,37.7900009155273
1510.2093351,36.6500015258789
1510.2249601,35.939998626709
1510.2405851,35.5299987792969
1510.2562101,35.25
1510.2718351,34.9599990844727
1510.2874601,34.5900001525879
1510.3030851,34.189998626709
1510.3187101,33.9799995422363
1510.3343351,34.4099998474121
1510.3499601,35.8499984741211
1510.3655851,38.4099998474121
1510.3812101,42.0400009155273
1510.3968351,46.8199996948242
1510.4124601,52.8300018310547
1510.4280851,59.8600006103516
1510.4437101,67.1699981689453
1510.4593351,73.6699981689453
1510.4749601,78.6500015258789
1510.4905851,82.1699981689453
1510.5062101,84.7399978637695
1510.5218351,86.5500030517578
1510.5374601,87.370002746582
1510.5530851,86.9899978637695
1510.5687101,85.5
1510.5843351,83.25
1510.5999601,80.620002746582
1510.6155851,77.7799987792969
1510.6312101,74.6800003051758
1510.6468351,71.2699966430664
1510.6624601,67.620002746582
1510.6780851,63.9300003051758
1510.6937101,60.3899993896484
1510.7093351,57.0999984741211
1510.7249601,53.9199981689453
1510.7405851,50.5499992370605
1510.7562101,46.6699981689453
1510.7718351,42.2000007629395
1510.7874601,37.3300018310547
1510.8030851,32.310001373291
1510.8187101,27.3600006103516
1510.8343351,22.6100006103516
1510.8499601,18.0900001525879
1510.8655851,13.7700004577637
1510.8812101,9.52999973297119
1510.8968351,5.19000005722046
1510.9124601,0.560000002384186
1510.9280851,-4.23999977111816
1510.9437101,-8.98999977111816
1510.9593351,-13.3100004196167
1510.9749601,-16.8899993896484
1510.9905851,-19.6200008392334
1511.0062101,-21.6000003814697
1511.0218351,-22.9699993133545
1511.0374601,-23.7999992370605
1511.0530851,-24.1900005340576
1511.0687101,-24.2900009155273
1511.0843351,-24.3999996185303
1511.0999601,-24.7900009155273
1511.1155851,-25.6000003814697
1511.1312101,-26.7399997711182
1511.1468351,-28.0200004577637
1511.1624601,-29.25
1511.1780851,-30.2999992370605
1511.1937101,-31.1599998474121
1511.2093351,-31.8299999237061
1511.2249601,-32.1599998474121
1511.2405851,-31.7700004577637
1511.2562101,-30.2999992370605
1511.2718351,-27.7299995422363
1511.2874601,-24.4200000762939
1511.3030851,-20.9200000762939
1511.3187101,-17.4400005340576
1511.3343351,-13.710000038147
1511.3499601,-9.39999961853027
1511.3655851,-4.6399998664856
1511.3812101,0.109999999403954
1511.3968351,4.61999988555908
1511.4124601,9.0
1511.4280851,13.4099998474121
1511.4437101,17.6399993896484
1511.4593351,21.0400009155273
1511.4749601,22.9899997711182
1511.4905851,23.3899993896484
1511.5062101,22.5900001525879
1511.5218351,20.9599990844727
1511.5374601,18.6700000762939
1511.5530851,15.8299999237061
1511.5687101,12.6300001144409
1511.5843351,9.3100004196167
1511.5999601,6.17000007629395
1511.6155851,3.51999998092651
1511.6312101,1.55999994277954
1511.6468351,0.259999990463257
1511.6624601,-0.550000011920929
1511.6780851,-1.13999998569489
1511.6937101,-1.69000005722046
1511.7093351,-2.30999994277954
1511.7249601,-3.22000002861023
1511.7405851,-4.73000001907349
1511.7562101,-7.19999980926514
1511.7718351,-10.7399997711182
1511.7874601,-15.1300001144409
1511.8030851,-19.9599990844727
1511.8187101,-24.8099994659424
1511.8343351,-29.3700008392334
1511.8499601,-33.5
1511.8655851,-37.25
1511.8812101,-40.8499984741211
1511.8968351,-44.689998626709
1511.9124601,-49.6800003051758
1511.9280851,-55.3800010681152
1511.9437101,-61.6599998474121
1511.9593351,-68.4300003051758
1511.9749601,-75.629997253418
1511.9905851,-83.0699996948242
1512.0062101,-90.2799987792969
1512.0218351,-96.5699996948242
1512.0374601,-101.459999084473
1512.0530851,-105.089996337891
1512.0687101,-107.949996948242
1512.0843351,-110.370002746582
1512.0999601,-112.309997558594
1512.1155851,-113.599998474121
1512.1312101,-114.169998168945
1512.1468351,-114.099998474121
1512.1624601,-113.430000305176
1512.1780851,-112.050003051758
1512.1937101,-109.809997558594
1512.2093351,-106.660003662109
1512.2249601,-102.720001220703
1512.2405851,-98.1500015258789
1512.2562101,-93.0400009155273
1512.2718351,-87.5699996948242
1512.2874601,-81.879997253418
1512.3030851,-76.1399993896484
1512.3187101,-70.379997253418
1512.3343351,-64.5800018310547
1512.3499601,-58.7799987792969
1512.3655851,-53.2000007629395
1512.3812101,-48.1100006103516
1512.3968351,-43.6699981689453
1512.4124601,-39.7999992370605
1512.4280851,-36.2999992370605
1512.4437101,-32.8600006103516
1512.4593351,-29.2399997711182
1512.4749601,-25.2700004577637
1512.4905851,-20.9699993133545
1512.5062101,-16.3899993896484
1512.5218351,-11.4700002670288
1512.5374601,-6.15999984741211
1512.5530851,-0.509999990463257
1512.5687101,5.17999982833862
1512.5843351,10.460000038147
1512.5999601,14.960000038147
1512.6155851,18.6200008392334
1512.6312101,21.5900001525879
1512.6468351,23.9799995422363
1512.6624601,25.8199996948242
1512.6780851,27.1100006103516
1512.6937101,27.9699993133545
1512.7093351,28.6100006103516
1512.7249601,29.2199993133545
1512.7405851,29.9799995422363
1512.7562101,30.9899997711182
1512.7718351,32.2799987792969
1512.7874601,33.9700012207031
1512.8030851,36.4099998474121
1512.8187101,39.939998626709
1512.8343351,44.5400009155273
1512.8499601,49.7400016784668
1512.8655851,54.8400001525879
1512.8812101,59.3899993896484
1512.8968351,63.5
1512.9124601,67.9400024414063
1512.9280851,72.1500015258789
1512.9437101,75.6699981689453
1512.9593351,78.0999984741211
1512.9749601,79.4000015258789
1512.9905851,79.8600006103516
1513.0062101,79.8199996948242
1513.0218351,79.379997253418
1513.0374601,78.5199966430664
1513.0530851,77.1699981689453
1513.0687101,75.4000015258789
1513.0843351,73.3600006103516
1513.0999601,71.2099990844727
1513.1155851,69.0800018310547
1513.1312101,66.8899993896484
1513.1468351,64.4000015258789
1513.1624601,61.3600006103516
1513.1780851,57.689998626709
1513.1937101,53.5299987792969
1513.2093351,49.189998626709
1513.2249601,44.9799995422363
1513.2405851,41.060001373291
1513.2562101,37.4700012207031
1513.2718351,34.1399993896484
1513.2874601,30.8999996185303
1513.3030851,27.5400009155273
1513.3187101,23.8899993896484
1513.3343351,19.9500007629395
1513.3499601,15.8100004196167
1513.3655851,11.5600004196167
