Time(s),Value(%)
1503.0062101,-28.3500003814697
1503.0218351,-29.1000003814697
1503.0374601,-29.2999992370605
1503.0530851,-29.2199993133545
1503.0687101,-29.2000007629395
1503.0843351,-29.3199996948242
1503.0999601,-29.3899993896484
1503.1155851,-29.1100006103516
1503.1312101,-28.3299999237061
1503.1468351,-27.1299991607666
1503.1624601,-25.7000007629395
1503.1780851,-24.1800003051758
1503.1937101,-22.4599990844727
1503.2093351,-20.0100002288818
1503.2249601,-15.9899997711182
1503.2405851,-9.65999984741211
1503.2562101,-0.75
1503.2718351,10.1700000762939
1503.2874601,21.7800006866455
1503.3030851,32.4500007629395
1503.3187101,41.0999984741211
1503.3343351,47.439998626709
1503.3499601,51.6199989318848
1503.3655851,53.8899993896484
1503.3812101,54.5200004577637
1503.3968351,53.7000007629395
1503.4124601,51.5099983215332
1503.4280851,48.0499992370605
1503.4437101,43.5200004577637
1503.4593351,38.1100006103516
1503.4749601,32.0499992370605
1503.4905851,25.6900005340576
1503.5062101,19.3899993896484
1503.5218351,13.1999998092651
1503.5374601,7.01000022888184
1503.5530851,0.920000016689301
1503.5687101,-4.59000015258789
1503.5843351,-9.11999988555908
1503.5999601,-12.8100004196167
1503.6155851,-16.25
1503.6312101,-19.7700004577637
1503.6468351,-23.0200004577637
1503.6624601,-25.4300003051758
1503.6780851,-26.8999996185303
1503.6937101,-28.0300006866455
1503.7093351,-29.6599998474121
1503.7249601,-32.1100006103516
1503.7405851,-34.7900009155273
1503.7562101,-36.7299995422363
1503.7718351,-37.4000015258789
1503.7874601,-37.060001373291
1503.8030851,-36.3300018310547
1503.8187101,-35.6500015258789
1503.8343351,-35.060001373291
1503.8499601,-34.5
1503.8655851,-33.8800010681152
1503.8812101,-32.8899993896484
1503.8968351,-30.8299999237061
1503.9124601,-26.7800006866455
1503.9280851,-20.0799999237061
1503.9437101,-10.6499996185303
1503.9593351,0.829999983310699
1503.9749601,12.9099998474121
1503.9905851,23.6200008392334
1504.0062101,31.2900009155273
1504.0218351,35.1800003051758
1504.0374601,35.6500015258789
1504.0530851,34.0200004577637
1504.0687101,31.8899993896484
1504.0843351,30.1499996185303
1504.0999601,28.4200000762939
1504.1155851,25.7099990844727
1504.1312101,21.4099998474121
1504.1468351,15.6099996566772
1504.1624601,8.64000034332275
1504.1780851,0.740000009536743
1504.1937101,-7.53000020980835
1504.2093351,-14.9799995422363
1504.2249601,-20.1499996185303
1504.2405851,-22.3299999237061
1504.2562101,-22.0100002288818
1504.2718351,-20.5400009155273
1504.2874601,-19.3199996948242
1504.3030851,-19.4300003051758
1504.3187101,-21.5499992370605
1504.3343351,-25.4599990844727
1504.3499601,-29.5
1504.3655851,-31.2900009155273
1504.3812101,-29.2700004577637
1504.3968351,-23.9300003051758
1504.4124601,-17.5499992370605
1504.4280851,-12.7799997329712
1504.4437101,-11.3000001907349
1504.4593351,-13.1800003051758
1504.4749601,-17.0699996948242
1504.4905851,-20.9799995422363
1504.5062101,-23.1399993896484
1504.5218351,-22.8099994659424
1504.5374601,-20.6499996185303
1504.5530851,-18.2900009155273
1504.5687101,-17.4799995422363
1504.5843351,-18.9099998474121
1504.5999601,-21.2299995422363
1504.6155851,-21.4500007629395
1504.6312101,-16.9500007629395
1504.6468351,-7.5
1504.6624601,4.3899998664856
1504.6780851,15.3500003814697
1504.6937101,22.8999996185303
1504.7093351,26.1299991607666
1504.7249601,25.8799991607666
1504.7405851,24.5599994659424
1504.7562101,24.9200000762939
1504.7718351,28.1299991607666
1504.7874601,33.1199989318848
1504.8030851,37.6300010681152
1504.8187101,39.8499984741211
1504.8343351,39.25
1504.8499601,36.2700004577637
1504.8655851,31.7399997711182
1504.8812101,26.7900009155273
1504.8968351,22.7700004577637
1504.9124601,20.7199993133545
1504.9280851,20.8899993896484
1504.9437101,22.5400009155273
1504.9593351,24.5
1504.9749601,25.7900009155273
1504.9905851,25.9200000762939
1505.0062101,24.9200000762939
1505.0218351,23.2600002288818
1505.0374601,21.5499992370605
1505.0530851,19.9300003051758
1505.0687101,17.8700008392334
1505.0843351,14.8500003814697
1505.0999601,11.0799999237061
1505.1155851,7.32999992370605
1505.1312101,4.21999979019165
1505.1468351,1.8400000333786
1505.1624601,0.0099999997764825
1505.1780851,-1.25999999046326
1505.1937101,-1.80999994277954
1505.2093351,-1.58000004291534
1505.2249601,-0.709999978542328
1505.2405851,0.680000007152557
1505.2562101,2.74000000953674
1505.2718351,6.05999994277954
1505.2874601,11.3800001144409
1505.3030851,19.2099990844727
1505.3187101,29.4599990844727
1505.3343351,41.0900001525879
1505.3499601,52.1699981689453
1505.3655851,60.5499992370605
1505.3812101,64.9100036621094
1505.3968351,65.1999969482422
1505.4124601,62.3699989318848
1505.4280851,57.6599998474121
1505.4437101,52.0699996948242
1505.4593351,46.0699996948242
1505.4749601,39.75
1505.4905851,33.060001373291
1505.5062101,25.8500003814697
1505.5218351,17.9300003051758
1505.5374601,9.31999969482422
1505.5530851,0.479999989271164
1505.5687101,-8.03999996185303
1505.5843351,-15.9099998474121
1505.5999601,-22.9899997711182
1505.6155851,-29.0699996948242
1505.6312101,-33.9799995422363
1505.6468351,-37.8800010681152
1505.6624601,-41.189998626709
1505.6780851,-44.1399993896484
1505.6937101,-46.7400016784668
1505.7093351,-48.9900016784668
1505.7249601,-51.0200004577637
1505.7405851,-52.8499984741211
1505.7562101,-54.2599983215332
1505.7718351,-55.0699996948242
1505.7874601,-55.2999992370605
1505.8030851,-55.1500015258789
1505.8187101,-54.9199981689453
1505.8343351,-54.7400016784668
1505.8499601,-54.5299987792969
1505.8655851,-54.0200004577637
1505.8812101,-52.9799995422363
1505.8968351,-51.3600006103516
1505.9124601,-49.3400001525879
1505.9280851,-47.0400009155273
1505.9437101,-44.2599983215332
1505.9593351,-40.5800018310547
1505.9749601,-35.4300003051758
1505.9905851,-28.0699996948242
1506.0062101,-18.1599998474121
1506.0218351,-6.30999994277954
1506.0374601,5.90999984741211
1506.0530851,16.6200008392334
1506.0687101,24.3400001525879
1506.0843351,28.5
1506.0999601,29.4699993133545
1506.1155851,28.25
1506.1312101,25.9300003051758
1506.1468351,23.2099990844727
1506.1624601,20.3099994659424
1506.1780851,17.1100006103516
1506.1937101,13.3100004196167
1506.2093351,8.80000019073486
1506.2249601,3.88000011444092
1506.2405851,-0.899999976158142
1506.2562101,-5.07999992370605
1506.2718351,-8.46000003814697
1506.2874601,-11.0600004196167
1506.3030851,-13.0600004196167
1506.3187101,-14.6899995803833
1506.3343351,-16.2299995422363
1506.3499601,-17.9099998474121
1506.3655851,-19.7000007629395
1506.3812101,-21.3999996185303
1506.3968351,-22.8400001525879
1506.4124601,-23.8700008392334
1506.4280851,-24.3400001525879
1506.4437101,-24.1700000762939
1506.4593351,-23.4799995422363
1506.4749601,-22.5300006866455
1506.4905851,-21.5799999237061
1506.5062101,-20.7399997711182
1506.5218351,-19.9400005340576
1506.5374601,-18.8799991607666
1506.5530851,-17.2099990844727
1506.5687101,-14.75
1506.5843351,-11.6899995803833
1506.5999601,-8.23999977111816
1506.6155851,-4.3600001335144
1506.6312101,0.430000007152557
1506.6468351,6.8899998664856
1506.6624601,15.5799999237061
1506.6780851,26.2999992370605
1506.6937101,37.9199981689453
1506.7093351,48.7900009155273
1506.7249601,57.4599990844727
1506.7405851,63.1399993896484
1506.7562101,65.8000030517578
1506.7718351,65.8399963378906
1506.7874601,63.9300003051758
1506.8030851,60.689998626709
1506.8187101,56.6199989318848
1506.8343351,51.9500007629395
1506.8499601,46.75
1506.8655851,40.9700012207031
1506.8812101,34.6599998474121
1506.8968351,28.0100002288818
1506.9124601,21.3999996185303
1506.9280851,15.1599998474121
1506.9437101,9.46000003814697
1506.9593351,4.40999984741211
1506.9749601,0.0199999995529652
1506.9905851,-3.78999996185303
1507.0062101,-7.23999977111816
1507.0218351,-10.460000038147
1507.0374601,-13.4700002670288
1507.0530851,-16.2700004577637
1507.0687101,-18.7900009155273
1507.0843351,-20.9099998474121
1507.0999601,-22.4799995422363
1507.1155851,-23.4099998474121
1507.1312101,-23.75
1507.1468351,-23.6200008392334
1507.1624601,-23.1700000762939
1507.1780851,-22.5599994659424
1507.1937101,-21.9300003051758
1507.2093351,-21.3600006103516
1507.2249601,-20.8400001525879
1507.2405851,-20.3600006103516
1507.2562101,-19.8600006103516
1507.2718351,-18.9699993133545
1507.2874601,-16.9699993133545
1507.3030851,-12.9300003051758
1507.3187101,-6.17999982833862
1507.3343351,3.23000001907349
1507.3499601,14.3599996566772
1507.3655851,25.4899997711182
1507.3812101,34.7099990844727
1507.3968351,40.75
1507.4124601,43.2900009155273
1507.4280851,42.8199996948242
1507.4437101,40.25
1507.4593351,36.5499992370605
1507.4749601,32.439998626709
1507.4905851,28.3199996948242
1507.5062101,24.2999992370605
1507.5218351,20.2000007629395
1507.5374601,15.6700000762939
1507.5530851,10.4499998092651
1507.5687101,4.63000011444092
1507.5843351,-1.33000004291534
1507.5999601,-6.8899998664856
1507.6155851,-11.6300001144409
1507.6312101,-15.3599996566772
1507.6468351,-18.1000003814697
1507.6624601,-19.9799995422363
1507.6780851,-21.2700004577637
1507.6937101,-22.3400001525879
1507.7093351,-23.4300003051758
1507.7249601,-24.5699996948242
1507.7405851,-25.6399993896484
1507.7562101,-26.5599994659424
1507.7718351,-27.2999992370605
1507.7874601,-27.7399997711182
1507.8030851,-27.6700000762939
1507.8187101,-26.8700008392334
1507.8343351,-25.4899997711182
1507.8499601,-24.0200004577637
1507.8655851,-23.0200004577637
1507.8812101,-23.4200000762939
1507.8968351,-26.0100002288818
1507.9124601,-30.2099990844727
1507.9280851,-34.0
1507.9437101,-35.2400016784668
1507.9593351,-32.5499992370605
1507.9749601,-25.9599990844727
1507.9905851,-17.0499992370605
1508.0062101,-8.44999980926514
1508.0218351,-3.11999988555908
1508.0374601,-3.14000010490417
1508.0530851,-7.94000005722046
1508.0687101,-14.1499996185303
1508.0843351,-18.0
1508.0999601,-18.6599998474121
1508.1155851,-18.7900009155273
1508.1312101,-20.4899997711182
1508.1468351,-22.6399993896484
1508.1624601,-22.7700004577637
1508.1780851,-19.7999992370605
1508.1937101,-14.3900003433228
1508.2093351,-8.0600004196167
1508.2249601,-2.22000002861023
1508.2405851,2.44000005722046
1508.2562101,6.26999998092651
1508.2718351,10.3999996185303
1508.2874601,16.0400009155273
1508.3030851,23.7600002288818
1508.3187101,32.9900016784668
1508.3343351,41.7599983215332
1508.3499601,47.4000015258789
1508.3655851,48.1100006103516
1508.3812101,44.1800003051758
1508.3968351,37.6399993896484
1508.4124601,31.1100006103516
1508.4280851,26.4500007629395
1508.4437101,24.25
1508.4593351,24.1100006103516
1508.4749601,25.4799995422363
1508.4905851,27.9099998474121
1508.5062101,30.4899997711182
1508.5218351,31.7199993133545
1508.5374601,30.4099998474121
1508.5530851,26.6900005340576
1508.5687101,22.0599994659424
1508.5843351,18.2900009155273
1508.5999601,16.5799999237061
1508.6155851,17.4799995422363
1508.6312101,21.3299999237061
1508.6468351,28.0599994659424
1508.6624601,36.7700004577637
1508.6780851,45.7000007629395
1508.6937101,53.0299987792969
1508.7093351,57.6800003051758
1508.7249601,59.6300010681152
1508.7405851,59.3199996948242
1508.7562101,57.1399993896484
1508.7718351,53.3199996948242
1508.7874601,48.2599983215332
1508.8030851,42.6500015258789
1508.8187101,37.1500015258789
1508.8343351,31.9400005340576
1508.8499601,26.6399993896484
1508.8655851,20.8700008392334
1508.8812101,14.6599998474121
1508.8968351,8.35000038146973
1508.9124601,2.15000009536743
1508.9280851,-3.95000004768372
1508.9437101,-10.039999961853
1508.9593351,-16.2099990844727
1508.9749601,-22.3500003814697
1508.9905851,-28.0
1509.0062101,-32.5800018310547
1509.0218351,-35.8300018310547
1509.0374601,-37.9799995422363
1509.0530851,-39.5999984741211
1509.0687101,-41.2200012207031
1509.0843351,-43.1599998474121
1509.0999601,-45.6199989318848
1509.1155851,-48.6199989318848
1509.1312101,-52.0
1509.1468351,-55.25
1509.1624601,-57.810001373291
1509.1780851,-59.25
1509.1937101,-59.4300003051758
1509.2093351,-58.5400009155273
1509.2249601,-56.8199996948242
1509.2405851,-54.3199996948242
1509.2562101,-50.6199989318848
1509.2718351,-44.8499984741211
1509.2874601,-36.2299995422363
1509.3030851,-24.6900005340576
1509.3187101,-11.2700004577637
1509.3343351,2.22000002861023
1509.3499601,13.8800001144409
1509.3655851,22.3400001525879
1509.3812101,27.1299991607666
1509.3968351,28.6900005340576
1509.4124601,28.1100006103516
1509.4280851,26.4400005340576
1509.4437101,24.0900001525879
1509.4593351,20.9599990844727
1509.4749601,16.8899993896484
1509.4905851,11.8699998855591
1509.5062101,6.01999998092651
1509.5218351,-0.490000009536743
1509.5374601,-7.34000015258789
1509.5530851,-13.7799997329712
1509.5687101,-19.0400009155273
1509.5843351,-22.8099994659424
1509.5999601,-25.3899993896484
1509.6155851,-27.4200000762939
1509.6312101,-29.4699993133545
1509.6468351,-31.8099994659424
1509.6624601,-34.3400001525879
1509.6780851,-36.7400016784668
1509.6937101,-38.7999992370605
1509.7093351,-40.3899993896484
1509.7249601,-41.3600006103516
1509.7405851,-41.3499984741211
1509.7562101,-40.0
1509.7718351,-37.3899993896484
1509.7874601,-34.2599983215332
1509.8030851,-31.5799999237061
1509.8187101,-29.8600006103516
1509.8343351,-28.6700000762939
1509.8499601,-26.9599990844727
1509.8655851,-23.4500007629395
1509.8812101,-16.7700004577637
1509.8968351,-6.13000011444092
1509.9124601,7.92000007629395
1509.9280851,23.5499992370605
1509.9437101,38.3899993896484
1509.9593351,50.2999992370605
1509.9749601,57.9799995422363
1509.9905851,61.2200012207031
1510.0062101,60.7900009155273
1510.0218351,57.9500007629395
1510.0374601,54.0299987792969
1510.0530851,50.0400009155273
1510.0687101,46.310001373291
1510.0843351,42.5400009155273
1510.0999601,38.0099983215332
1510.1155851,32.0999984741211
1510.1312101,24.8199996948242
1510.1468351,17.0799999237061
1510.1624601,10.1899995803833
1510.1780851,4.96000003814697
1510.1937101,1.30999994277954
1510.2093351,-1.47000002861023
1510.2249601,-4.1399998664856
1510.2405851,-7.07999992370605
1510.2562101,-10.1000003814697
1510.2718351,-12.710000038147
1510.2874601,-14.539999961853
1510.3030851,-15.5799999237061
1510.3187101,-16.1299991607666
1510.3343351,-16.5200004577637
1510.3499601,-17.0200004577637
1510.3655851,-17.7999992370605
1510.3812101,-18.8199996948242
1510.3968351,-19.8700008392334
1510.4124601,-20.7800006866455
1510.4280851,-21.5699996948242
1510.4437101,-22.2399997711182
1510.4593351,-22.4400005340576
1510.4749601,-21.7199993133545
1510.4905851,-19.7299995422363
1510.5062101,-15.9099998474121
1510.5218351,-9.42000007629395
1510.5374601,0.0399999991059303
1510.5530851,11.3900003433228
1510.5687101,22.4200000762939
1510.5843351,31.0900001525879
1510.5999601,36.3400001525879
1510.6155851,38.2200012207031
1510.6312101,37.6100006103516
1510.6468351,35.7099990844727
1510.6624601,33.3499984741211
1510.6780851,30.6000003814697
1510.6937101,27.0799999237061
1510.7093351,22.5799999237061
1510.7249601,17.3199996948242
1510.7405851,11.7600002288818
1510.7562101,6.26999998092651
1510.7718351,0.990000009536743
1510.7874601,-3.90000009536743
1510.8030851,-8.06999969482422
1510.8187101,-11.1099996566772
1510.8343351,-13.1499996185303
1510.8499601,-14.8400001525879
1510.8655851,-16.6900005340576
1510.8812101,-18.7399997711182
1510.8968351,-20.5900001525879
1510.9124601,-21.7000007629395
1510.9280851,-21.7600002288818
1510.9437101,-20.9099998474121
1510.9593351,-19.75
1510.9749601,-18.9200000762939
1510.9905851,-18.6800003051758
1511.0062101,-18.8199996948242
1511.0218351,-18.8799991607666
1511.0374601,-18.4099998474121
1511.0530851,-17.2000007629395
1511.0687101,-15.1999998092651
1511.0843351,-12.3000001907349
1511.0999601,-8.14000034332275
1511.1155851,-2.14000010490417
1511.1312101,5.98999977111816
1511.1468351,15.6700000762939
1511.1624601,25.3199996948242
1511.1780851,33.25
1511.1937101,38.3899993896484
1511.2093351,40.5499992370605
1511.2249601,40.2700004577637
1511.2405851,38.439998626709
1511.2562101,35.8199996948242
1511.2718351,32.7700004577637
1511.2874601,29.3199996948242
1511.3030851,25.5400009155273
1511.3187101,21.6399993896484
1511.3343351,17.7000007629395
1511.3499601,13.75
1511.3655851,9.86999988555908
1511.3812101,6.1399998664856
1511.3968351,2.59999990463257
1511.4124601,-0.600000023841858
1511.4280851,-3.24000000953674
1511.4437101,-4.96000003814697
1511.4593351,-5.61999988555908
1511.4749601,-5.73000001907349
1511.4905851,-6.42000007629395
1511.5062101,-8.4399995803833
1511.5218351,-11.2600002288818
1511.5374601,-13.5100002288818
1511.5530851,-14.4499998092651
1511.5687101,-14.6099996566772
1511.5843351,-14.8599996566772
1511.5999601,-15.4899997711182
1511.6155851,-16.2399997711182
1511.6312101,-16.7700004577637
1511.6468351,-16.7900009155273
1511.6624601,-15.6700000762939
1511.6780851,-12.5100002288818
1511.6937101,-6.78000020980835
1511.7093351,1.29999995231628
1511.7249601,10.8100004196167
1511.7405851,20.3400001525879
1511.7562101,28.4400005340576
1511.7718351,34.060001373291
1511.7874601,36.8600006103516
1511.8030851,37.0299987792969
1511.8187101,35.0499992370605
1511.8343351,31.6299991607666
1511.8499601,27.6000003814697
1511.8655851,23.8299999237061
1511.8812101,20.8099994659424
1511.8968351,18.0100002288818
1511.9124601,14.1400003433228
1511.9280851,8.39000034332275
1511.9437101,1.22000002861023
1511.9593351,-6.01000022888184
1511.9749601,-12.0
1511.9905851,-16.2099990844727
1512.0062101,-18.8999996185303
1512.0218351,-20.6299991607666
1512.0374601,-21.9799995422363
1512.0530851,-23.4300003051758
1512.0687101,-25.1299991607666
1512.0843351,-26.7099990844727
1512.0999601,-27.7800006866455
1512.1155851,-28.3700008392334
1512.1312101,-28.9099998474121
1512.1468351,-29.7199993133545
1512.1624601,-30.7099990844727
1512.1780851,-31.3600006103516
1512.1937101,-31.0799999237061
1512.2093351,-29.7399997711182
1512.2249601,-27.8500003814697
1512.2405851,-26.1100006103516
1512.2562101,-24.7299995422363
1512.2718351,-23.2299995422363
1512.2874601,-20.7199993133545
1512.3030851,-16.3199996948242
1512.3187101,-9.5600004196167
1512.3343351,-0.709999978542328
1512.3499601,9.22999954223633
1512.3655851,18.8899993896484
1512.3812101,26.8600006103516
1512.3968351,32.1699981689453
1512.4124601,34.5699996948242
1512.4280851,34.5699996948242
1512.4437101,33.0200004577637
1512.4593351,30.7600002288818
1512.4749601,28.3099994659424
1512.4905851,25.7099990844727
1512.5062101,22.8199996948242
1512.5218351,19.5
1512.5374601,15.5200004577637
1512.5530851,10.7700004577637
1512.5687101,5.44999980926514
1512.5843351,0.0799999982118607
1512.5999601,-4.73999977111816
1512.6155851,-8.67000007629395
1512.6312101,-11.4799995422363
1512.6468351,-13.1499996185303
1512.6624601,-13.9200000762939
1512.6780851,-14.3699998855591
1512.6937101,-15.1599998474121
1512.7093351,-16.4799995422363
1512.7249601,-17.9799995422363
1512.7405851,-19.1900005340576
1512.7562101,-19.8600006103516
1512.7718351,-19.9300003051758
1512.7874601,-19.3600006103516
1512.8030851,-18.1800003051758
1512.8187101,-16.6499996185303
1512.8343351,-15.1300001144409
1512.8499601,-13.8000001907349
1512.8655851,-12.5699996948242
1512.8812101,-11.3299999237061
1512.8968351,-10.25
1512.9124601,-9.69999980926514
1512.9280851,-9.53999996185303
1512.9437101,-8.59000015258789
1512.9593351,-5.25
1512.9749601,1.3400000333786
1512.9905851,10.6899995803833
1513.0062101,21.0200004577637
1513.0218351,30.1900005340576
1513.0374601,36.6399993896484
1513.0530851,39.9700012207031
1513.0687101,40.7200012207031
1513.0843351,39.4799995422363
1513.0999601,36.5099983215332
1513.1155851,32.1100006103516
1513.1312101,27.0
1513.1468351,22.25
1513.1624601,18.6200008392334
1513.1780851,15.9099998474121
1513.1937101,13.1400003433228
1513.2093351,9.48999977111816
1513.2249601,5.05999994277954
1513.2405851,0.469999998807907
1513.2562101,-3.91000008583069
1513.2718351,-8.10999965667725
1513.2874601,-11.9499998092651
1513.3030851,-14.7799997329712
1513.3187101,-15.9499998092651
1513.3343351,-15.6099996566772
1513.3499601,-14.789999961853
1513.3655851,-14.75
1513.3812101,-16.0400009155273
1513.3968351,-18.0400009155273
