Time(s),Value(%)
854.0039886,55.5999984741211
854.0196136,42.5400009155273
854.0352386,29.5400009155273
854.0508636,17.4500007629395
854.0664886,6.90999984741211
854.0821136,-1.82000005245209
854.0977386,-8.93000030517578
854.1133636,-14.8900003433228
854.1289886,-20.25
854.1446136,-25.4099998474121
854.1602386,-30.4799995422363
854.1758636,-35.439998626709
854.1914886,-40.2200012207031
854.2071136,-44.5800018310547
854.2227386,-48.0499992370605
854.2383636,-50.1699981689453
854.2539886,-50.8499984741211
854.2696136,-50.5
854.2852386,-49.8300018310547
854.3008636,-49.5999984741211
854.3164886,-50.0999984741211
854.3321136,-50.9599990844727
854.3477386,-51.3699989318848
854.3633636,-50.6300010681152
854.3789886,-48.6100006103516
854.3946136,-45.5400009155273
854.4102386,-41.4700012207031
854.4258636,-35.8199996948242
854.4414886,-27.5699996948242
854.4571136,-16.0100002288818
854.4727386,-1.5900000333786
854.4883636,13.9899997711182
854.5039886,28.3899993896484
854.5196136,39.3600006103516
854.5352386,45.5999984741211
854.5508636,47.0699996948242
854.5664886,44.3899993896484
854.5821136,37.9199981689453
854.5977386,27.4400005340576
854.6133636,12.5699996948242
854.6289886,-6.57999992370605
854.6446136,-29.2199993133545
854.6602386,-53.9300003051758
854.6758636,-79.0800018310547
854.6914886,-102.900001525879
854.7071136,-122.889999389648
854.7227386,-135.889999389648
854.7383636,-139.649993896484
854.7539886,-134.210006713867
854.7696136,-122.019996643066
854.7852386,-107.330001831055
854.8008636,-94.3199996948242
854.8164886,-85.0199966430664
854.8321136,-78.7099990844727
854.8477386,-73.6399993896484
854.8633636,-69.0299987792969
854.8789886,-65.3000030517578
854.8946136,-63.060001373291
854.9102386,-62.0099983215332
854.9258636,-61.0800018310547
854.9414886,-59.3699989318848
854.9571136,-56.4199981689453
854.9727386,-51.9599990844727
854.9883636,-46.0200004577637
855.0039886,-38.939998626709
855.0196136,-31.1000003814697
855.0352386,-22.8500003814697
855.0508636,-14.539999961853
855.0664886,-5.90999984741211
855.0821136,4.6399998664856
855.0977386,19.7700004577637
855.1133636,42.0999984741211
855.1289886,73.0
855.1446136,111.580001831055
855.1602386,154.429992675781
855.1758636,196.529998779297
855.1914886,233.029998779297
855.2071136,261.019989013672
855.2227386,279.839996337891
855.2383636,290.410003662109
855.2539886,294.239990234375
855.2696136,292.640014648438
855.2852386,286.470001220703
855.3008636,276.010009765625
855.3164886,261.359985351563
855.3321136,243.0
855.3477386,222.259994506836
855.3633636,201.320007324219
855.3789886,182.470001220703
855.3946136,167.139999389648
855.4102386,155.399993896484
855.4258636,146.229995727539
855.4414886,138.029998779297
855.4571136,129.169998168945
855.4727386,118.410003662109
855.4883636,105.519996643066
855.5039886,91.4899978637695
855.5196136,78.0299987792969
855.5352386,66.3000030517578
855.5508636,55.9900016784668
855.5664886,45.6399993896484
855.5821136,34.1199989318848
855.5977386,21.4799995422363
855.6133636,8.77999973297119
855.6289886,-2.72000002861023
855.6446136,-12.3199996948242
855.6602386,-19.9699993133545
855.6758636,-25.9699993133545
855.6914886,-30.6399993896484
855.7071136,-34.310001373291
855.7227386,-37.5999984741211
855.7383636,-41.2400016784668
855.7539886,-45.4599990844727
855.7696136,-49.1699981689453
855.7852386,-49.0299987792969
855.8008636,-39.9799995422363
855.8164886,-18.6299991607666
855.8321136,13.6300001144409
855.8477386,50.7900009155273
855.8633636,84.870002746582
855.8789886,108.779998779297
855.8946136,118.51000213623
855.9102386,113.819999694824
855.9258636,97.4100036621094
855.9414886,73.1500015258789
855.9571136,44.9000015258789
855.9727386,15.9499998092651
855.9883636,-11.4200000762939
856.0039886,-36.3499984741211
856.0196136,-59.4300003051758
856.0352386,-82.120002746582
856.0508636,-105.839996337891
856.0664886,-130.850006103516
856.0821136,-155.279998779297
856.0977386,-175.470001220703
856.1133636,-188.520004272461
856.1289886,-195.100006103516
856.1446136,-199.320007324219
856.1602386,-205.699996948242
856.1758636,-216.289993286133
856.1914886,-230.210006713867
856.2071136,-245.110000610352
856.2227386,-258.859985351563
856.2383636,-270.350006103516
856.2539886,-279.619995117188
856.2696136,-287.239990234375
856.2852386,-293.700012207031
856.3008636,-299.029998779297
856.3164886,-302.980010986328
856.3321136,-304.959991455078
856.3477386,-304.079986572266
856.3633636,-299.519989013672
856.3789886,-291.059997558594
856.3946136,-278.970001220703
856.4102386,-263.869995117188
856.4258636,-246.410003662109
856.4414886,-227.149993896484
856.4571136,-206.75
856.4727386,-186.300003051758
856.4883636,-166.5
856.5039886,-146.380004882813
856.5196136,-123.419998168945
856.5352386,-95.2099990844727
856.5508636,-61.0800018310547
856.5664886,-22.3099994659424
856.5821136,18.4899997711182
856.5977386,58.1100006103516
856.6133636,93.0999984741211
856.6289886,120.849998474121
856.6446136,140.369995117188
856.6602386,152.149993896484
856.6758636,157.440002441406
856.6914886,157.520004272461
856.7071136,153.339996337891
856.7227386,145.410003662109
856.7383636,134.300003051758
856.7539886,121.180000305176
856.7696136,107.690002441406
856.7852386,95.4400024414063
856.8008636,85.5299987792969
856.8164886,78.2399978637695
856.8321136,73.0599975585938
856.8477386,69.2099990844727
856.8633636,66.1100006103516
856.8789886,63.4599990844727
856.8946136,60.9900016784668
856.9102386,58.4900016784668
856.9258636,55.9799995422363
856.9414886,53.9199981689453
856.9571136,52.8499984741211
856.9727386,52.9000015258789
856.9883636,53.8199996948242
857.0039886,55.2099990844727
857.0196136,56.75
857.0352386,58.189998626709
857.0508636,59.5099983215332
857.0664886,60.810001373291
857.0821136,62.2000007629395
857.0977386,63.6500015258789
857.1133636,65.0500030517578
857.1289886,66.2200012207031
857.1446136,67.1600036621094
857.1602386,68.1699981689453
857.1758636,69.8600006103516
857.1914886,73.1800003051758
857.2071136,79.6900024414063
857.2227386,91.4800033569336
857.2383636,109.830001831055
857.2539886,133.940002441406
857.2696136,160.929992675781
857.2852386,186.830001831055
857.3008636,207.839996337891
857.3164886,221.630004882813
857.3321136,227.789993286133
857.3477386,227.210006713867
857.3633636,220.869995117188
857.3789886,209.509994506836
857.3946136,193.639999389648
857.4102386,173.710006713867
857.4258636,150.149993896484
857.4414886,123.660003662109
857.4571136,95.379997253418
857.4727386,66.7699966430664
857.4883636,39.4099998474121
857.5039886,14.8999996185303
857.5196136,-5.71999979019165
857.5352386,-22.3299999237061
857.5508636,-35.560001373291
857.5664886,-46.4300003051758
857.5821136,-56.0099983215332
857.5977386,-64.9700012207031
857.6133636,-73.3199996948242
857.6289886,-80.7600021362305
857.6446136,-87.1100006103516
857.6602386,-92.4499969482422
857.6758636,-97.0100021362305
857.6914886,-100.889999389648
857.7071136,-103.980003356934
857.7227386,-106.209999084473
857.7383636,-107.589996337891
857.7539886,-108.190002441406
857.7696136,-108.029998779297
857.7852386,-107.099998474121
857.8008636,-105.410003662109
857.8164886,-103.150001525879
857.8321136,-100.699996948242
857.8477386,-98.370002746582
857.8633636,-95.8499984741211
857.8789886,-92.0699996948242
857.8946136,-85.2399978637695
857.9102386,-73.2799987792969
857.9258636,-54.689998626709
857.9414886,-29.3999996185303
857.9571136,0.75
857.9727386,32.5099983215332
857.9883636,61.8800010681152
858.0039886,84.9700012207031
858.0196136,99.370002746582
858.0352386,104.949996948242
858.0508636,103.330001831055
858.0664886,96.6500015258789
858.0821136,86.5899963378906
858.0977386,73.9400024414063
858.1133636,58.8400001525879
858.1289886,41.3600006103516
858.1446136,21.8700008392334
858.1602386,1.25999999046326
858.1758636,-19.0699996948242
858.1914886,-37.5900001525879
858.2071136,-53.1300010681152
858.2227386,-65.3300018310547
858.2383636,-74.4599990844727
858.2539886,-81.0
858.2696136,-85.4700012207031
858.2852386,-88.4000015258789
858.3008636,-90.2799987792969
858.3164886,-91.5899963378906
858.3321136,-92.8099975585938
858.3477386,-94.1600036621094
858.3633636,-95.2699966430664
858.3789886,-95.5500030517578
858.3946136,-94.629997253418
858.4102386,-92.5400009155273
858.4258636,-89.5899963378906
858.4414886,-86.129997253418
858.4571136,-82.3899993896484
858.4727386,-78.4100036621094
858.4883636,-74.0
858.5039886,-68.6999969482422
858.5196136,-62.2299995422363
858.5352386,-54.8600006103516
858.5508636,-47.2200012207031
858.5664886,-39.6100006103516
858.5821136,-31.3099994659424
858.5977386,-20.7600002288818
858.6133636,-6.19999980926514
858.6289886,13.4799995422363
858.6446136,38.0200004577637
858.6602386,65.4300003051758
858.6758636,92.370002746582
858.6914886,115.199996948242
858.7071136,131.369995117188
858.7227386,140.139999389648
858.7383636,142.25
858.7539886,139.149993896484
858.7696136,132.320007324219
858.7852386,122.98999786377
858.8008636,111.940002441406
858.8164886,99.3300018310547
858.8321136,84.7200012207031
858.8477386,67.629997253418
858.8633636,48.3400001525879
858.8789886,28.25
858.8946136,9.36999988555908
858.9102386,-6.51000022888184
858.9258636,-18.6100006103516
858.9414886,-27.2199993133545
858.9571136,-33.4599990844727
858.9727386,-38.7799987792969
858.9883636,-44.1199989318848
859.0039886,-49.4300003051758
859.0196136,-53.9199981689453
859.0352386,-56.7799987792969
859.0508636,-57.8300018310547
859.0664886,-57.6199989318848
859.0821136,-56.9099998474121
859.0977386,-56.1100006103516
859.1133636,-55.0299987792969
859.1289886,-53.2599983215332
859.1446136,-50.75
859.1602386,-47.8699989318848
859.1758636,-45.060001373291
859.1914886,-42.4099998474121
859.2071136,-39.6300010681152
859.2227386,-36.2400016784668
859.2383636,-31.9599990844727
859.2539886,-27.0499992370605
859.2696136,-22.2399997711182
859.2852386,-18.0599994659424
859.3008636,-14.0699996948242
859.3164886,-8.46000003814697
859.3321136,1.62000000476837
859.3477386,19.0
859.3633636,44.2099990844727
859.3789886,74.2699966430664
859.3946136,103.839996337891
859.4102386,127.919998168945
859.4258636,143.720001220703
859.4414886,151.020004272461
859.4571136,151.350006103516
859.4727386,146.830001831055
859.4883636,139.220001220703
859.5039886,129.309997558594
859.5196136,116.919998168945
859.5352386,101.540000915527
859.5508636,83.0500030517578
859.5664886,62.0699996948242
859.5821136,39.810001373291
859.5977386,17.7099990844727
859.6133636,-2.75
859.6289886,-20.1000003814697
859.6446136,-33.4000015258789
859.6602386,-42.7999992370605
859.6758636,-49.3600006103516
859.6914886,-54.4000015258789
859.7071136,-58.8899993896484
859.7227386,-62.9900016784668
859.7383636,-66.3300018310547
859.7539886,-68.8600006103516
859.7696136,-71.0
859.7852386,-73.2399978637695
859.8008636,-75.620002746582
859.8164886,-77.7099990844727
859.8321136,-78.8600006103516
859.8477386,-78.7600021362305
859.8633636,-77.7600021362305
859.8789886,-76.4599990844727
859.8946136,-75.0400009155273
859.9102386,-73.2200012207031
859.9258636,-70.6100006103516
859.9414886,-67.0699996948242
859.9571136,-62.7200012207031
859.9727386,-57.7299995422363
859.9883636,-52.25
860.0039886,-46.4799995422363
860.0196136,-40.2000007629395
860.0352386,-32.1800003051758
860.0508636,-20.3400001525879
860.0664886,-2.82999992370605
860.0821136,20.7600002288818
860.0977386,48.8800010681152
860.1133636,78.5
860.1289886,105.809997558594
860.1446136,127.059997558594
860.1602386,139.960006713867
860.1758636,144.389999389648
860.1914886,141.979995727539
860.2071136,134.899993896484
860.2227386,124.830001831055
860.2383636,112.449996948242
860.2539886,97.6800003051758
860.2696136,80.2699966430664
860.2852386,60.4799995422363
860.3008636,39.189998626709
860.3164886,17.7299995422363
860.3321136,-2.46000003814697
860.3477386,-20.3500003814697
860.3633636,-35.4099998474121
860.3789886,-47.4900016784668
860.3946136,-56.7000007629395
860.4102386,-63.4199981689453
860.4258636,-68.3300018310547
860.4414886,-72.1699981689453
860.4571136,-75.4700012207031
860.4727386,-78.25
860.4883636,-80.129997253418
860.5039886,-80.870002746582
860.5196136,-80.5299987792969
860.5352386,-79.370002746582
860.5508636,-77.5800018310547
860.5664886,-75.2300033569336
860.5821136,-72.2300033569336
860.5977386,-68.4800033569336
860.6133636,-64.0299987792969
860.6289886,-59.2200012207031
860.6446136,-54.5400009155273
860.6602386,-50.3699989318848
860.6758636,-46.7200012207031
860.6914886,-43.3400001525879
860.7071136,-39.9099998474121
860.7227386,-36.0200004577637
860.7383636,-30.6399993896484
860.7539886,-21.8299999237061
860.7696136,-7.46000003814697
860.7852386,13.4399995803833
860.8008636,39.810001373291
860.8164886,68.5400009155273
860.8321136,95.4499969482422
860.8477386,116.949996948242
860.8633636,131.259994506836
860.8789886,138.460006713867
860.8946136,139.520004272461
860.9102386,135.570007324219
860.9258636,127.629997253418
860.9414886,116.449996948242
860.9571136,102.529998779297
860.9727386,86.1999969482422
860.9883636,67.8000030517578
861.0039886,47.6800003051758
861.0196136,26.5599994659424
861.0352386,5.75
861.0508636,-13.1899995803833
861.0664886,-29.1200008392334
861.0821136,-41.5299987792969
861.0977386,-50.5099983215332
861.1133636,-56.6800003051758
861.1289886,-60.9199981689453
861.1446136,-64.120002746582
861.1602386,-66.8399963378906
861.1758636,-69.1600036621094
861.1914886,-70.7699966430664
861.2071136,-71.4300003051758
861.2227386,-71.0699996948242
861.2383636,-69.9599990844727
861.2539886,-68.5599975585938
861.2696136,-67.1999969482422
861.2852386,-65.8499984741211
861.3008636,-64.2600021362305
861.3164886,-62.2400016784668
861.3321136,-59.7099990844727
861.3477386,-56.7299995422363
861.3633636,-53.5499992370605
861.3789886,-50.439998626709
861.3946136,-47.3699989318848
861.4102386,-43.9599990844727
861.4258636,-39.3300018310547
861.4414886,-32.060001373291
861.4571136,-20.3400001525879
861.4727386,-2.6800000667572
861.4883636,21.1900005340576
861.5039886,49.9900016784668
861.5196136,80.5500030517578
861.5352386,108.309997558594
861.5508636,129.210006713867
861.5664886,141.330001831055
861.5821136,145.160003662109
861.5977386,142.610000610352
861.6133636,135.789993286133
861.6289886,126.180000305176
861.6446136,114.330001831055
861.6602386,100.069999694824
861.6758636,83.129997253418
861.6914886,63.6399993896484
861.7071136,42.5400009155273
861.7227386,21.3799991607666
861.7383636,1.67999994754791
861.7539886,-15.6199998855591
861.7696136,-30.0900001525879
861.7852386,-41.439998626709
861.8008636,-49.6300010681152
861.8164886,-55.1199989318848
861.8321136,-58.7200012207031
861.8477386,-61.3300018310547
861.8633636,-63.7299995422363
861.8789886,-66.3300018310547
861.8946136,-69.0
861.9102386,-71.2799987792969
861.9258636,-72.620002746582
861.9414886,-72.5699996948242
861.9571136,-71.1100006103516
861.9727386,-68.7799987792969
861.9883636,-66.379997253418
862.0039886,-64.4700012207031
862.0196136,-62.9599990844727
862.0352386,-61.1699981689453
862.0508636,-58.4099998474121
862.0664886,-54.5800018310547
862.0821136,-50.1800003051758
862.0977386,-45.8400001525879
862.1133636,-41.9199981689453
862.1289886,-37.9799995422363
862.1446136,-32.5800018310547
862.1602386,-23.6399993896484
862.1758636,-9.27999973297119
862.1914886,11.2299995422363
862.2071136,37.1100006103516
862.2227386,66.0599975585938
862.2383636,95.0899963378906
862.2539886,121.480003356934
862.2696136,143.039993286133
862.2852386,157.970001220703
862.3008636,165.270004272461
862.3164886,165.210006713867
862.3321136,159.0
862.3477386,148.110000610352
862.3633636,133.470001220703
862.3789886,115.48999786377
862.3946136,94.4199981689453
862.4102386,70.9100036621094
862.4258636,46.2700004577637
862.4414886,22.3500003814697
862.4571136,0.939999997615814
862.4727386,-16.9099998474121
862.4883636,-31.1299991607666
862.5039886,-42.1699981689453
862.5196136,-50.6199989318848
862.5352386,-57.1399993896484
862.5508636,-62.439998626709
862.5664886,-67.1100006103516
862.5821136,-71.5100021362305
862.5977386,-75.620002746582
862.6133636,-79.1999969482422
862.6289886,-82.0699996948242
862.6446136,-84.2799987792969
862.6602386,-85.9000015258789
862.6758636,-86.8300018310547
862.6914886,-86.9899978637695
862.7071136,-86.3099975585938
862.7227386,-84.7600021362305
862.7383636,-82.4000015258789
862.7539886,-79.3899993896484
862.7696136,-75.8899993896484
862.7852386,-72.0199966430664
862.8008636,-67.7900009155273
862.8164886,-63.2000007629395
862.8321136,-58.3199996948242
862.8477386,-53.1300010681152
862.8633636,-47.0499992370605
862.8789886,-38.5299987792969
862.8946136,-25.5300006866455
862.9102386,-6.6399998664856
862.9258636,18.0100002288818
862.9414886,46.5099983215332
862.9571136,75.6399993896484
862.9727386,101.940002441406
862.9883636,122.639999389648
863.0039886,135.809997558594
863.0196136,140.940002441406
863.0352386,139.899993896484
863.0508636,135.919998168945
863.0664886,131.259994506836
863.0821136,126.180000305176
863.0977386,119.419998168945
863.1133636,109.419998168945
863.1289886,95.1699981689453
863.1446136,76.5299987792969
863.1602386,54.4000015258789
863.1758636,30.8500003814697
863.1914886,8.43000030517578
863.2071136,-10.8000001907349
863.2227386,-25.9899997711182
863.2383636,-37.560001373291
863.2539886,-46.7000007629395
863.2696136,-54.7099990844727
863.2852386,-62.5900001525879
863.3008636,-70.6500015258789
863.3164886,-78.5100021362305
863.3321136,-85.5999984741211
863.3477386,-91.5199966430664
863.3633636,-96.1600036621094
863.3789886,-99.5800018310547
863.3946136,-101.919998168945
863.4102386,-103.349998474121
863.4258636,-103.940002441406
863.4414886,-103.889999389648
863.4571136,-103.639999389648
863.4727386,-103.680000305176
863.4883636,-104.129997253418
863.5039886,-104.699996948242
863.5196136,-105.169998168945
863.5352386,-105.730003356934
863.5508636,-106.370002746582
863.5664886,-106.150001525879
863.5821136,-103.290000915527
863.5977386,-95.7799987792969
863.6133636,-81.8600006103516
863.6289886,-60.4199981689453
863.6446136,-31.4400005340576
863.6602386,2.98000001907349
863.6758636,38.5499992370605
863.6914886,70.3899993896484
863.7071136,95.0299987792969
863.7227386,111.220001220703
863.7383636,119.48999786377
863.7539886,121.26000213623
863.7696136,118.150001525879
863.7852386,111.540000915527
863.8008636,102.379997253418
863.8164886,91.0599975585938
863.8321136,77.620002746582
863.8477386,62.3300018310547
863.8633636,46.2700004577637
863.8789886,31.0799999237061
863.8946136,18.1599998474121
863.9102386,8.27999973297119
863.9258636,1.73000001907349
863.9414886,-1.62000000476837
863.9571136,-2.70000004768372
863.9727386,-2.88000011444092
863.9883636,-3.26999998092651
864.0039886,-4.17000007629395
864.0196136,-5.11999988555908
864.0352386,-5.51999998092651
864.0508636,-5.15999984741211
864.0664886,-4.15999984741211
864.0821136,-2.98000001907349
864.0977386,-2.17000007629395
864.1133636,-2.16000008583069
864.1289886,-2.92000007629395
864.1446136,-3.95000004768372
864.1602386,-4.53999996185303
864.1758636,-4.01000022888184
864.1914886,-2.15000009536743
864.2071136,0.889999985694885
864.2227386,4.82000017166138
864.2383636,9.23999977111816
864.2539886,13.5900001525879
864.2696136,17.2900009155273
864.2852386,20.4300003051758
864.3008636,24.4300003051758
864.3164886,32.0900001525879
864.3321136,46.2000007629395
864.3477386,67.8899993896484
864.3633636,95.8399963378906
864.3789886,127.129997253418
864.3946136,158.5
864.4102386,186.679992675781
864.4258636,208.419998168945
864.4414886,221.410003662109
864.4571136,225.229995727539
864.4727386,221.240005493164
864.4883636,211.610000610352
864.5039886,198.259994506836
864.5196136,182.130004882813
864.5352386,163.089996337891
864.5508636,140.550003051758
864.5664886,114.220001220703
864.5821136,84.7399978637695
864.5977386,53.7999992370605
864.6133636,23.7099990844727
864.6289886,-3.49000000953674
864.6446136,-26.8899993896484
864.6602386,-46.6300010681152
864.6758636,-63.25
864.6914886,-77.2900009155273
864.7071136,-89.129997253418
