Time(s),Value(%)
1025.0103744,97.620002746582
1025.0259994,99.5699996948242
1025.0416244,99.0
1025.0572494,96.3399963378906
1025.0728744,91.6699981689453
1025.0884994,84.9400024414063
1025.1041244,76.1800003051758
1025.1197494,65.7699966430664
1025.1353744,54.3699989318848
1025.1509994,42.7000007629395
1025.1666244,31.4099998474121
1025.1822494,21.0200004577637
1025.1978744,11.8299999237061
1025.2134994,3.91000008583069
1025.2291244,-2.80999994277954
1025.2447494,-8.64000034332275
1025.2603744,-13.960000038147
1025.2759994,-19.1200008392334
1025.2916244,-24.2800006866455
1025.3072494,-29.5
1025.3228744,-34.6199989318848
1025.3384994,-39.4199981689453
1025.3541244,-43.6100006103516
1025.3697494,-47.0499992370605
1025.3853744,-49.7599983215332
1025.4009994,-51.8800010681152
1025.4166244,-53.5
1025.4322494,-54.5
1025.4478744,-54.5800018310547
1025.4634994,-53.5999984741211
1025.4791244,-51.6300010681152
1025.4947494,-48.939998626709
1025.5103744,-45.8499984741211
1025.5259994,-42.5800018310547
1025.5416244,-39.2999992370605
1025.5572494,-36.0400009155273
1025.5728744,-32.5
1025.5884994,-28.1299991607666
1025.6041244,-22.2399997711182
1025.6197494,-14.3100004196167
1025.6353744,-3.9300000667572
1025.6509994,9.3100004196167
1025.6666244,25.3999996185303
1025.6822494,43.310001373291
1025.6978744,61.2599983215332
1025.7134994,77.3099975585938
1025.7291244,89.9499969482422
1025.7447494,98.3499984741211
1025.7603744,102.379997253418
1025.7759994,102.459999084473
1025.7916244,99.2699966430664
1025.8072494,93.4100036621094
1025.8228744,85.1100006103516
1025.8384994,74.4599990844727
1025.8541244,61.8300018310547
1025.8697494,48.060001373291
1025.8853744,34.2099990844727
1025.9009994,21.2099990844727
1025.9166244,9.53999996185303
1025.9322494,-0.649999976158142
1025.9478744,-9.46000003814697
1025.9634994,-17.1200008392334
1025.9791244,-23.9300003051758
1025.9947494,-30.2000007629395
1026.0103744,-36.0400009155273
1026.0259994,-41.4900016784668
1026.0416244,-46.6399993896484
1026.0572494,-51.5200004577637
1026.0728744,-56.0
1026.0884994,-59.8199996948242
1026.1041244,-62.7999992370605
1026.1197494,-64.9400024414063
1026.1353744,-66.379997253418
1026.1509994,-67.3399963378906
1026.1666244,-67.9199981689453
1026.1822494,-68.0
1026.1978744,-67.4100036621094
1026.2134994,-66.1100006103516
1026.2291244,-64.1399993896484
1026.2447494,-61.6500015258789
1026.2603744,-58.8600006103516
1026.2759994,-55.9000015258789
1026.2916244,-52.75
1026.3072494,-49.2099990844727
1026.3228744,-44.8699989318848
1026.3384994,-39.2200012207031
1026.3541244,-31.8099994659424
1026.3697494,-22.3799991607666
1026.3853744,-10.7700004577637
1026.4009994,3.26999998092651
1026.4166244,19.7600002288818
1026.4322494,38.0
1026.4478744,56.6800003051758
1026.4634994,74.2600021362305
1026.4791244,89.2799987792969
1026.4947494,100.790000915527
1026.5103744,108.379997253418
1026.5259994,112.0
1026.5416244,111.660003662109
1026.5572494,107.48999786377
1026.5728744,99.9800033569336
1026.5884994,89.9700012207031
1026.6041244,78.2699966430664
1026.6197494,65.4700012207031
1026.6353744,51.9300003051758
1026.6509994,37.8899993896484
1026.6666244,23.6399993896484
1026.6822494,9.63000011444092
1026.6978744,-3.38000011444092
1026.7134994,-14.7399997711182
1026.7291244,-24.1800003051758
1026.7447494,-31.8400001525879
1026.7603744,-37.9599990844727
1026.7759994,-42.6100006103516
1026.7916244,-45.8300018310547
1026.8072494,-47.7299995422363
1026.8228744,-48.5200004577637
1026.8384994,-48.4000015258789
1026.8541244,-47.5299987792969
1026.8697494,-46.060001373291
1026.8853744,-44.0499992370605
1026.9009994,-41.5800018310547
1026.9166244,-38.8499984741211
1026.9322494,-36.0699996948242
1026.9478744,-33.4199981689453
1026.9634994,-31.0499992370605
1026.9791244,-29.1700000762939
1026.9947494,-27.9400005340576
1027.0103744,-27.4400005340576
1027.0259994,-27.5100002288818
1027.0416244,-27.7099990844727
1027.0572494,-27.5200004577637
1027.0728744,-26.75
1027.0884994,-25.5200004577637
1027.1041244,-23.8899993896484
1027.1197494,-21.5499992370605
1027.1353744,-17.8400001525879
1027.1509994,-11.9799995422363
1027.1666244,-3.34999990463257
1027.1822494,8.31999969482422
1027.1978744,22.6599998474121
1027.2134994,38.4199981689453
1027.2291244,53.9099998474121
1027.2447494,67.6900024414063
1027.2603744,78.8899993896484
1027.2759994,87.0999984741211
1027.2916244,92.1600036621094
1027.3072494,93.9899978637695
1027.3228744,92.7099990844727
1027.3384994,88.4899978637695
1027.3541244,81.1999969482422
1027.3697494,70.7399978637695
1027.3853744,57.5200004577637
1027.4009994,42.4500007629395
1027.4166244,26.5799999237061
1027.4322494,10.7700004577637
1027.4478744,-4.26999998092651
1027.4634994,-17.8600006103516
1027.4791244,-29.4799995422363
1027.4947494,-39.0400009155273
1027.5103744,-46.8400001525879
1027.5259994,-53.3600006103516
1027.5416244,-58.9099998474121
1027.5572494,-63.6800003051758
1027.5728744,-67.870002746582
1027.5884994,-71.6800003051758
1027.6041244,-75.0500030517578
1027.6197494,-77.8099975585938
1027.6353744,-79.7699966430664
1027.6509994,-80.8600006103516
1027.6666244,-81.1600036621094
1027.6822494,-80.8499984741211
1027.6978744,-80.0599975585938
1027.7134994,-78.7600021362305
1027.7291244,-76.8499984741211
1027.7447494,-74.3199996948242
1027.7603744,-71.2600021362305
1027.7759994,-67.8099975585938
1027.7916244,-64.1500015258789
1027.8072494,-60.4700012207031
1027.8228744,-56.8600006103516
1027.8384994,-53.189998626709
1027.8541244,-49.060001373291
1027.8697494,-43.9099998474121
1027.8853744,-37.2000007629395
1027.9009994,-28.5200004577637
1027.9166244,-17.6299991607666
1027.9322494,-4.3899998664856
1027.9478744,11.0799999237061
1027.9634994,28.0900001525879
1027.9791244,45.2999992370605
1027.9947494,61.1699981689453
1028.0103744,74.6100006103516
1028.0259994,85.1500015258789
1028.0416244,92.7399978637695
1028.0572494,97.5100021362305
1028.0728744,99.7099990844727
1028.0884994,99.5500030517578
1028.1041244,97.0699996948242
1028.1197494,92.1600036621094
1028.1353744,84.9300003051758
1028.1509994,75.9400024414063
1028.1666244,66.0500030517578
1028.1822494,56.0400009155273
1028.1978744,46.3800010681152
1028.2134994,37.3600006103516
1028.2291244,29.1399993896484
1028.2447494,21.8600006103516
1028.2603744,15.5699996948242
1028.2759994,10.2200002670288
1028.2916244,5.6399998664856
1028.3072494,1.58000004291534
1028.3228744,-2.25
1028.3384994,-5.98000001907349
1028.3541244,-9.42000007629395
1028.3697494,-12.1899995803833
1028.3853744,-14.0299997329712
1028.4009994,-14.8699998855591
1028.4166244,-14.8100004196167
1028.4322494,-14.1599998474121
1028.4478744,-13.2399997711182
1028.4634994,-12.2399997711182
1028.4791244,-11.1999998092651
1028.4947494,-10.1199998855591
1028.5103744,-8.92000007629395
1028.5259994,-7.53000020980835
1028.5416244,-5.92999982833862
1028.5572494,-4.26000022888184
1028.5728744,-2.83999991416931
1028.5884994,-1.80999994277954
1028.6041244,-0.800000011920929
1028.6197494,0.970000028610229
1028.6353744,4.3600001335144
1028.6509994,9.88000011444092
1028.6666244,17.7099990844727
1028.6822494,27.7600002288818
1028.6978744,39.4099998474121
1028.7134994,51.4599990844727
1028.7291244,62.6100006103516
1028.7447494,71.879997253418
1028.7603744,78.7300033569336
1028.7759994,82.9700012207031
1028.7916244,84.7200012207031
1028.8072494,84.2900009155273
1028.8228744,81.9800033569336
1028.8384994,77.9700012207031
1028.8541244,72.3000030517578
1028.8697494,65.0999984741211
1028.8853744,56.7299995422363
1028.9009994,47.75
1028.9166244,38.5400009155273
1028.9322494,29.2999992370605
1028.9478744,20.1700000762939
1028.9634994,11.3400001525879
1028.9791244,3.0
1028.9947494,-4.75
1029.0103744,-11.9700002670288
1029.0259994,-18.8799991607666
1029.0416244,-25.6800003051758
1029.0572494,-32.4599990844727
1029.0728744,-39.0699996948242
1029.0884994,-45.1599998474121
1029.1041244,-50.4300003051758
1029.1197494,-54.7999992370605
1029.1353744,-58.4199981689453
1029.1509994,-61.5200004577637
1029.1666244,-64.3399963378906
1029.1822494,-67.0599975585938
1029.1978744,-69.620002746582
1029.2134994,-71.7300033569336
1029.2291244,-73.0599975585938
1029.2447494,-73.5299987792969
1029.2603744,-73.2799987792969
1029.2759994,-72.5199966430664
1029.2916244,-71.4599990844727
1029.3072494,-70.2399978637695
1029.3228744,-68.9100036621094
1029.3384994,-67.3499984741211
1029.3541244,-65.2300033569336
1029.3697494,-62.060001373291
1029.3853744,-57.2799987792969
1029.4009994,-50.560001373291
1029.4166244,-41.7999992370605
1029.4322494,-31.0300006866455
1029.4478744,-18.6000003814697
1029.4634994,-5.42000007629395
1029.4791244,7.23999977111816
1029.4947494,18.2399997711182
1029.5103744,26.8199996948242
1029.5259994,32.7999992370605
1029.5416244,36.4500007629395
1029.5572494,38.2700004577637
1029.5728744,38.6599998474121
1029.5884994,37.689998626709
1029.6041244,35.1399993896484
1029.6197494,30.7900009155273
1029.6353744,24.8799991607666
1029.6509994,17.9599990844727
1029.6666244,10.5600004196167
1029.6822494,3.0699999332428
1029.6978744,-4.13000011444092
1029.7134994,-10.5799999237061
1029.7291244,-15.8599996566772
1029.7447494,-19.7999992370605
1029.7603744,-22.5499992370605
1029.7759994,-24.4699993133545
1029.7916244,-25.8600006103516
1029.8072494,-26.9599990844727
1029.8228744,-27.8299999237061
1029.8384994,-28.4200000762939
1029.8541244,-28.6100006103516
1029.8697494,-28.4200000762939
1029.8853744,-28.0499992370605
1029.9009994,-27.7299995422363
1029.9166244,-27.5799999237061
1029.9322494,-27.5499992370605
1029.9478744,-27.4400005340576
1029.9634994,-27.0
1029.9791244,-25.9300003051758
1029.9947494,-24.1299991607666
1030.0103744,-21.7399997711182
1030.0259994,-19.0400009155273
1030.0416244,-16.1700000762939
1030.0572494,-13.210000038147
1030.0728744,-10.3100004196167
1030.0884994,-7.69999980926514
1030.1041244,-5.5
1030.1197494,-3.52999997138977
1030.1353744,-1.29999995231628
1030.1509994,1.80999994277954
1030.1666244,6.3899998664856
1030.1822494,12.9499998092651
1030.1978744,21.8799991607666
1030.2134994,33.1699981689453
1030.2291244,46.0299987792969
1030.2447494,59.0099983215332
1030.2603744,70.5400009155273
1030.2759994,79.4800033569336
1030.2916244,85.4100036621094
1030.3072494,88.4499969482422
1030.3228744,88.8300018310547
1030.3384994,86.870002746582
1030.3541244,83.1399993896484
1030.3697494,78.3099975585938
1030.3853744,72.6600036621094
1030.4009994,66.129997253418
1030.4166244,58.5499992370605
1030.4322494,49.9500007629395
1030.4478744,40.6100006103516
1030.4634994,31.0
1030.4791244,21.6599998474121
1030.4947494,13.1400003433228
1030.5103744,5.80999994277954
1030.5259994,-0.259999990463257
1030.5416244,-5.28000020980835
1030.5572494,-9.55000019073486
1030.5728744,-13.3699998855591
1030.5884994,-16.9200000762939
1030.6041244,-20.3700008392334
1030.6197494,-23.7199993133545
1030.6353744,-26.8299999237061
1030.6509994,-29.5200004577637
1030.6666244,-31.7099990844727
1030.6822494,-33.4099998474121
1030.6978744,-34.6500015258789
1030.7134994,-35.5299987792969
1030.7291244,-36.1699981689453
1030.7447494,-36.6100006103516
1030.7603744,-36.810001373291
1030.7759994,-36.7700004577637
1030.7916244,-36.5099983215332
1030.8072494,-36.0900001525879
1030.8228744,-35.5099983215332
1030.8384994,-34.810001373291
1030.8541244,-34.0299987792969
1030.8697494,-33.1300010681152
1030.8853744,-31.9200000762939
1030.9009994,-30.1100006103516
1030.9166244,-27.3999996185303
1030.9322494,-23.4799995422363
1030.9478744,-17.9599990844727
1030.9634994,-10.4700002670288
1030.9791244,-1.0
1030.9947494,9.82999992370605
1031.0103744,20.9300003051758
1031.0259994,31.0900001525879
1031.0416244,39.3800010681152
1031.0572494,45.3499984741211
1031.0728744,48.9900016784668
1031.0884994,50.5400009155273
1031.1041244,50.3800010681152
1031.1197494,48.7999992370605
1031.1353744,45.8800010681152
1031.1509994,41.5900001525879
1031.1666244,36.0299987792969
1031.1822494,29.4899997711182
1031.1978744,22.4099998474121
1031.2134994,15.210000038147
1031.2291244,8.27999973297119
1031.2447494,1.95000004768372
1031.2603744,-3.48000001907349
1031.2759994,-7.92000007629395
1031.2916244,-11.4799995422363
1031.3072494,-14.5
1031.3228744,-17.2900009155273
1031.3384994,-20.0100002288818
1031.3541244,-22.6200008392334
1031.3697494,-25.1700000762939
1031.3853744,-27.6800003051758
1031.4009994,-30.0799999237061
1031.4166244,-32.0800018310547
1031.4322494,-33.4000015258789
1031.4478744,-33.9799995422363
1031.4634994,-34.1300010681152
1031.4791244,-34.2299995422363
1031.4947494,-34.3699989318848
1031.5103744,-34.3199996948242
1031.5259994,-33.8199996948242
1031.5416244,-32.7599983215332
1031.5572494,-31.2900009155273
1031.5728744,-29.7000007629395
1031.5884994,-28.2000007629395
1031.6041244,-26.8500003814697
1031.6197494,-25.5400009155273
1031.6353744,-23.9699993133545
1031.6509994,-21.7900009155273
1031.6666244,-18.7099990844727
1031.6822494,-14.5
1031.6978744,-8.84000015258789
1031.7134994,-1.35000002384186
1031.7291244,8.03999996185303
1031.7447494,18.8299999237061
1031.7603744,30.0100002288818
1031.7759994,40.5699996948242
1031.7916244,49.7400016784668
1031.8072494,57.0400009155273
1031.8228744,62.1800003051758
1031.8384994,65.1600036621094
1031.8541244,66.3099975585938
1031.8697494,65.870002746582
1031.8853744,63.7599983215332
1031.9009994,59.8699989318848
1031.9166244,54.3499984741211
1031.9322494,47.5800018310547
1031.9478744,40.0299987792969
1031.9634994,32.1199989318848
1031.9791244,24.2299995422363
1031.9947494,16.7299995422363
1032.0103744,9.92000007629395
1032.0259994,3.95000004768372
1032.0416244,-1.19000005722046
1032.0572494,-5.67999982833862
1032.0728744,-9.63000011444092
1032.0884994,-13.1599998474121
1032.1041244,-16.4200000762939
1032.1197494,-19.5499992370605
1032.1353744,-22.5499992370605
1032.1509994,-25.3099994659424
1032.1666244,-27.7800006866455
1032.1822494,-29.8899993896484
1032.1978744,-31.6000003814697
1032.2134994,-32.9799995422363
1032.2291244,-34.0999984741211
1032.2447494,-34.9000015258789
1032.2603744,-35.2299995422363
1032.2759994,-35.0400009155273
1032.2916244,-34.3699989318848
1032.3072494,-33.3800010681152
1032.3228744,-32.2799987792969
1032.3384994,-31.2000007629395
1032.3541244,-30.1700000762939
1032.3697494,-29.1700000762939
1032.3853744,-28.1299991607666
1032.4009994,-26.8700008392334
1032.4166244,-25.0300006866455
1032.4322494,-22.0900001525879
1032.4478744,-17.4099998474121
1032.4634994,-10.3100004196167
1032.4791244,-0.419999986886978
1032.4947494,11.8400001525879
1032.5103744,25.3400001525879
1032.5259994,38.7000007629395
1032.5416244,50.7299995422363
1032.5572494,60.5400009155273
1032.5728744,67.6399993896484
1032.5884994,72.0299987792969
1032.6041244,74.0999984741211
1032.6197494,74.1500015258789
1032.6353744,72.0999984741211
1032.6509994,67.6399993896484
1032.6666244,60.7299995422363
1032.6822494,51.75
1032.6978744,41.4199981689453
1032.7134994,30.5499992370605
1032.7291244,19.8099994659424
1032.7447494,9.78999996185303
1032.7603744,0.850000023841858
1032.7759994,-6.88000011444092
1032.7916244,-13.5699996948242
1032.8072494,-19.4699993133545
1032.8228744,-24.7900009155273
1032.8384994,-29.6399993896484
1032.8541244,-34.1199989318848
1032.8697494,-38.2400016784668
1032.8853744,-41.8699989318848
1032.9009994,-44.8199996948242
1032.9166244,-47.0499992370605
1032.9322494,-48.7000007629395
1032.9478744,-50.0099983215332
1032.9634994,-51.2000007629395
1032.9791244,-52.310001373291
1032.9947494,-53.1300010681152
1033.0103744,-53.4300003051758
1033.0259994,-53.0499992370605
1033.0416244,-51.9700012207031
1033.0572494,-50.310001373291
1033.0728744,-48.2799987792969
1033.0884994,-46.0999984741211
1033.1041244,-43.8199996948242
1033.1197494,-41.3499984741211
1033.1353744,-38.6399993896484
1033.1509994,-35.8199996948242
1033.1666244,-33.060001373291
1033.1822494,-30.2900009155273
1033.1978744,-27.1700000762939
1033.2134994,-23.0699996948242
1033.2291244,-17.1299991607666
1033.2447494,-8.52000045776367
1033.2603744,3.01999998092651
1033.2759994,17.0
1033.2916244,32.2700004577637
1033.3072494,47.3499984741211
1033.3228744,60.8699989318848
1033.3384994,71.8300018310547
1033.3541244,79.75
1033.3697494,84.629997253418
1033.3853744,86.7300033569336
1033.4009994,86.1800003051758
1033.4166244,82.9499969482422
1033.4322494,77.0500030517578
1033.4478744,68.6900024414063
1033.4634994,58.4500007629395
1033.4791244,47.1399993896484
1033.4947494,35.6500015258789
1033.5103744,24.7399997711182
1033.5259994,14.9099998474121
1033.5416244,6.30000019073486
1033.5572494,-1.14999997615814
1033.5728744,-7.69999980926514
1033.5884994,-13.5299997329712
1033.6041244,-18.6599998474121
1033.6197494,-22.9099998474121
1033.6353744,-26.1700000762939
1033.6509994,-28.6000003814697
1033.6666244,-30.5499992370605
1033.6822494,-32.3400001525879
1033.6978744,-34.189998626709
1033.7134994,-36.1199989318848
1033.7291244,-38.0099983215332
1033.7447494,-39.7200012207031
1033.7603744,-41.0999984741211
1033.7759994,-41.9599990844727
1033.7916244,-42.2200012207031
1033.8072494,-41.8600006103516
1033.8228744,-41.060001373291
1033.8384994,-40.0099983215332
1033.8541244,-38.8499984741211
1033.8697494,-37.5900001525879
1033.8853744,-36.2400016784668
1033.9009994,-34.810001373291
1033.9166244,-33.25
1033.9322494,-31.2600002288818
1033.9478744,-28.4500007629395
1033.9634994,-24.3500003814697
1033.9791244,-18.4400005340576
1033.9947494,-10.2200002670288
1034.0103744,0.490000009536743
1034.0259994,13.3800001144409
1034.0416244,27.5400009155273
1034.0572494,41.8499984741211
1034.0728744,55.1699981689453
1034.0884994,66.5899963378906
1034.1041244,75.4899978637695
1034.1197494,81.5699996948242
1034.1353744,84.7799987792969
1034.1509994,85.1999969482422
1034.1666244,82.8499984741211
1034.1822494,77.75
1034.1978744,70.1999969482422
1034.2134994,60.689998626709
1034.2291244,49.8300018310547
1034.2447494,38.2799987792969
1034.2603744,26.7600002288818
1034.2759994,16.0400009155273
1034.2916244,6.65000009536743
1034.3072494,-1.22000002861023
1034.3228744,-7.73000001907349
1034.3384994,-13.1499996185303
1034.3541244,-17.8199996948242
1034.3697494,-22.0200004577637
1034.3853744,-25.9200000762939
1034.4009994,-29.6100006103516
1034.4166244,-33.0400009155273
1034.4322494,-36.0999984741211
1034.4478744,-38.6599998474121
1034.4634994,-40.7099990844727
1034.4791244,-42.2900009155273
1034.4947494,-43.4700012207031
1034.5103744,-44.2400016784668
1034.5259994,-44.5
1034.5416244,-44.1100006103516
1034.5572494,-43.1599998474121
1034.5728744,-41.8600006103516
1034.5884994,-40.4900016784668
1034.6041244,-39.1300010681152
1034.6197494,-37.7900009155273
1034.6353744,-36.4700012207031
1034.6509994,-35.0900001525879
1034.6666244,-33.4300003051758
1034.6822494,-31.1399993896484
1034.6978744,-27.9400005340576
1034.7134994,-23.5599994659424
1034.7291244,-17.6399993896484
1034.7447494,-9.60000038146973
1034.7603744,1.04999995231628
1034.7759994,14.2600002288818
1034.7916244,29.2099990844727
1034.8072494,44.7099990844727
1034.8228744,59.5200004577637
1034.8384994,72.5400009155273
1034.8541244,82.9100036621094
1034.8697494,90.1100006103516
1034.8853744,94.0199966430664
1034.9009994,94.8000030517578
1034.9166244,92.5500030517578
1034.9322494,87.3300018310547
1034.9478744,79.2900009155273
1034.9634994,68.9199981689453
1034.9791244,56.939998626709
1034.9947494,44.1100006103516
1035.0103744,31.0400009155273
1035.0259994,18.2600002288818
1035.0416244,6.23000001907349
1035.0572494,-4.55000019073486
1035.0728744,-13.6800003051758
1035.0884994,-21.0900001525879
1035.1041244,-27.0300006866455
1035.1197494,-31.9799995422363
1035.1353744,-36.3699989318848
1035.1509994,-40.439998626709
1035.1666244,-44.1399993896484
1035.1822494,-47.2799987792969
1035.1978744,-49.75
1035.2134994,-51.6399993896484
1035.2291244,-53.0699996948242
1035.2447494,-54.0900001525879
1035.2603744,-54.6699981689453
1035.2759994,-54.7799987792969
1035.2916244,-54.3300018310547
1035.3072494,-53.2700004577637
1035.3228744,-51.7000007629395
1035.3384994,-49.8400001525879
1035.3541244,-47.7900009155273
1035.3697494,-45.5699996948242
