Time(s),Value(%)
1204.0134825,-69.3399963378906
1204.0291075,-78.8300018310547
1204.0447325,-86.5299987792969
1204.0603575,-91.4100036621094
1204.0759825,-93.8000030517578
1204.0916075,-94.8600006103516
1204.1072325,-95.4499969482422
1204.1228575,-95.879997253418
1204.1384825,-96.4400024414063
1204.1541075,-97.5299987792969
1204.1697325,-99.3399963378906
1204.1853575,-101.349998474121
1204.2009825,-102.400001525879
1204.2166075,-101.410003662109
1204.2322325,-98.0199966430664
1204.2478575,-92.5400009155273
1204.2634825,-85.379997253418
1204.2791075,-76.8000030517578
1204.2947325,-67.1600036621094
1204.3103575,-56.9599990844727
1204.3259825,-46.75
1204.3416075,-37.0299987792969
1204.3572325,-28.1499996185303
1204.3728575,-20.2299995422363
1204.3884825,-13.1499996185303
1204.4041075,-6.69000005722046
1204.4197325,-0.560000002384186
1204.4353575,5.36999988555908
1204.4509825,11.1800003051758
1204.4666075,16.75
1204.4822325,21.8600006103516
1204.4978575,26.3400001525879
1204.5134825,30.1100006103516
1204.5291075,33.189998626709
1204.5447325,35.4799995422363
1204.5603575,36.9300003051758
1204.5759825,37.6399993896484
1204.5916075,38.060001373291
1204.6072325,38.8800010681152
1204.6228575,40.5499992370605
1204.6384825,42.9599990844727
1204.6541075,45.6199989318848
1204.6697325,48.1599998474121
1204.6853575,50.4199981689453
1204.7009825,52.1699981689453
1204.7166075,53.1500015258789
1204.7322325,53.2799987792969
1204.7478575,52.9199981689453
1204.7634825,52.7299995422363
1204.7791075,53.3499984741211
1204.7947325,55.060001373291
1204.8103575,57.8300018310547
1204.8259825,61.5800018310547
1204.8416075,66.1900024414063
1204.8572325,71.4700012207031
1204.8728575,77.0299987792969
1204.8884825,82.4899978637695
1204.9041075,87.6800003051758
1204.9197325,92.7099990844727
1204.9353575,97.8000030517578
1204.9509825,103.059997558594
1204.9666075,108.339996337891
1204.9822325,113.290000915527
1204.9978575,117.569999694824
1205.0134825,121.0
1205.0291075,123.540000915527
1205.0447325,125.139999389648
1205.0603575,125.769996643066
1205.0759825,125.440002441406
1205.0916075,124.360000610352
1205.1072325,122.889999389648
1205.1228575,121.419998168945
1205.1384825,120.199996948242
1205.1541075,119.209999084473
1205.1697325,118.319999694824
1205.1853575,117.269996643066
1205.2009825,115.830001831055
1205.2166075,113.830001831055
1205.2322325,111.300003051758
1205.2478575,108.26000213623
1205.2634825,104.709999084473
1205.2791075,100.589996337891
1205.2947325,95.9800033569336
1205.3103575,91.1699981689453
1205.3259825,86.6399993896484
1205.3416075,82.75
1205.3572325,79.5800018310547
1205.3728575,76.9700012207031
1205.3884825,74.8199996948242
1205.4041075,73.0899963378906
1205.4197325,71.75
1205.4353575,70.6900024414063
1205.4509825,69.7799987792969
1205.4666075,69.1999969482422
1205.4822325,69.4800033569336
1205.4978575,71.1900024414063
1205.5134825,74.4499969482422
1205.5291075,78.8199996948242
1205.5447325,83.7099990844727
1205.5603575,88.5599975585938
1205.5759825,92.9800033569336
1205.5916075,96.5400009155273
1205.6072325,98.6399993896484
1205.6228575,98.8199996948242
1205.6384825,97.0299987792969
1205.6541075,93.6999969482422
1205.6697325,89.379997253418
1205.6853575,84.5599975585938
1205.7009825,79.5899963378906
1205.7166075,74.6399993896484
1205.7322325,69.7799987792969
1205.7478575,65.0299987792969
1205.7634825,60.4099998474121
1205.7791075,55.9099998474121
1205.7947325,51.5200004577637
1205.8103575,47.1500015258789
1205.8259825,42.6300010681152
1205.8416075,37.8300018310547
1205.8572325,32.7099990844727
1205.8728575,27.4099998474121
1205.8884825,22.0799999237061
1205.9041075,16.7900009155273
1205.9197325,11.4799995422363
1205.9353575,6.05999994277954
1205.9509825,0.610000014305115
1205.9666075,-4.65000009536743
1205.9822325,-9.51000022888184
1205.9978575,-13.9200000762939
1206.0134825,-17.8799991607666
1206.0291075,-21.1800003051758
1206.0447325,-23.2700004577637
1206.0603575,-23.6200008392334
1206.0759825,-22.1200008392334
1206.0916075,-19.1200008392334
1206.1072325,-15.0799999237061
1206.1228575,-10.3999996185303
1206.1384825,-5.44999980926514
1206.1541075,-0.819999992847443
1206.1697325,2.72000002861023
1206.1853575,4.6100001335144
1206.2009825,4.86999988555908
1206.2166075,3.91000008583069
1206.2322325,2.10999989509583
1206.2478575,-0.340000003576279
1206.2634825,-3.33999991416931
1206.2791075,-6.65999984741211
1206.2947325,-10.0900001525879
1206.3103575,-13.5
1206.3259825,-16.9400005340576
1206.3416075,-20.5300006866455
1206.3572325,-24.3299999237061
1206.3728575,-28.2399997711182
1206.3884825,-32.1599998474121
1206.4041075,-36.0
1206.4197325,-39.7000007629395
1206.4353575,-43.2400016784668
1206.4509825,-46.6399993896484
1206.4666075,-50.0099983215332
1206.4822325,-53.5699996948242
1206.4978575,-57.5
1206.5134825,-61.8400001525879
1206.5291075,-66.4700012207031
1206.5447325,-71.25
1206.5603575,-76.0800018310547
1206.5759825,-80.8300018310547
1206.5916075,-85.3199996948242
1206.6072325,-89.2200012207031
1206.6228575,-92.120002746582
1206.6384825,-93.5800018310547
1206.6541075,-93.3499984741211
1206.6697325,-91.5199966430664
1206.6853575,-88.5400009155273
1206.7009825,-85.0299987792969
1206.7166075,-81.5100021362305
1206.7322325,-78.3000030517578
1206.7478575,-75.3600006103516
1206.7634825,-72.3499984741211
1206.7791075,-68.9100036621094
1206.7947325,-64.9000015258789
1206.8103575,-60.4500007629395
1206.8259825,-55.7799987792969
1206.8416075,-51.0900001525879
1206.8572325,-46.6100006103516
1206.8728575,-42.75
1206.8884825,-40.189998626709
1206.9041075,-39.4900016784668
1206.9197325,-40.6699981689453
1206.9353575,-43.189998626709
1206.9509825,-46.2900009155273
1206.9666075,-49.4099998474121
1206.9822325,-52.2400016784668
1206.9978575,-54.7099990844727
1207.0134825,-56.9300003051758
1207.0291075,-59.0299987792969
1207.0447325,-61.189998626709
1207.0603575,-63.4900016784668
1207.0759825,-65.9400024414063
1207.0916075,-68.5599975585938
1207.1072325,-71.4100036621094
1207.1228575,-74.6100006103516
1207.1384825,-78.129997253418
1207.1541075,-81.75
1207.1697325,-84.9899978637695
1207.1853575,-87.8899993896484
1207.2009825,-90.5299987792969
1207.2166075,-93.0299987792969
1207.2322325,-95.3499984741211
1207.2478575,-97.2300033569336
1207.2634825,-98.4700012207031
1207.2791075,-99.0599975585938
1207.2947325,-99.0599975585938
1207.3103575,-98.2799987792969
1207.3259825,-96.0800018310547
1207.3416075,-91.7900009155273
1207.3572325,-85.3099975585938
1207.3728575,-77.120002746582
1207.3884825,-67.879997253418
1207.4041075,-58.1800003051758
1207.4197325,-48.4900016784668
1207.4353575,-39.4300003051758
1207.4509825,-31.7999992370605
1207.4666075,-26.25
1207.4822325,-22.8199996948242
1207.4978575,-21.1000003814697
1207.5134825,-20.5699996948242
1207.5291075,-20.8600006103516
1207.5447325,-21.6700000762939
1207.5603575,-22.75
1207.5759825,-23.8600006103516
1207.5916075,-24.8500003814697
1207.6072325,-25.6599998474121
1207.6228575,-26.2900009155273
1207.6384825,-26.8099994659424
1207.6541075,-27.3299999237061
1207.6697325,-28.0499992370605
1207.6853575,-29.0900001525879
1207.7009825,-30.4799995422363
1207.7166075,-32.0800018310547
1207.7322325,-33.7299995422363
1207.7478575,-35.3899993896484
1207.7634825,-37.1800003051758
1207.7791075,-39.189998626709
1207.7947325,-41.310001373291
1207.8103575,-43.2400016784668
1207.8259825,-44.7000007629395
1207.8416075,-45.6300010681152
1207.8572325,-46.0900001525879
1207.8728575,-46.2900009155273
1207.8884825,-46.4300003051758
1207.9041075,-46.6300010681152
1207.9197325,-46.8899993896484
1207.9353575,-47.1399993896484
1207.9509825,-47.2900009155273
1207.9666075,-47.2700004577637
1207.9822325,-46.9500007629395
1207.9978575,-45.9099998474121
1208.0134825,-43.310001373291
1208.0291075,-38.3699989318848
1208.0447325,-31.0
1208.0603575,-21.8600006103516
1208.0759825,-11.8299999237061
1208.0916075,-1.69000005722046
1208.1072325,8.02999973297119
1208.1228575,16.8199996948242
1208.1384825,24.0
1208.1541075,29.0200004577637
1208.1697325,31.8299999237061
1208.1853575,32.8600006103516
1208.2009825,32.6800003051758
1208.2166075,31.7999992370605
1208.2322325,30.5499992370605
1208.2478575,29.1700000762939
1208.2634825,27.7900009155273
1208.2791075,26.5100002288818
1208.2947325,25.3999996185303
1208.3103575,24.4500007629395
1208.3259825,23.5699996948242
1208.3416075,22.6299991607666
1208.3572325,21.5900001525879
1208.3728575,20.3899993896484
1208.3884825,18.9200000762939
1208.4041075,17.0499992370605
1208.4197325,14.8100004196167
1208.4353575,12.3800001144409
1208.4509825,10.0600004196167
1208.4666075,8.0
1208.4822325,6.05999994277954
1208.4978575,4.05000019073486
1208.5134825,1.97000002861023
1208.5291075,0.0900000035762787
1208.5447325,-1.3400000333786
1208.5603575,-2.24000000953674
1208.5759825,-2.6800000667572
1208.5916075,-2.74000000953674
1208.6072325,-2.39000010490417
1208.6228575,-1.55999994277954
1208.6384825,-0.189999997615814
1208.6541075,1.76999998092651
1208.6697325,4.48000001907349
1208.6853575,8.07999992370605
1208.7009825,12.4899997711182
1208.7166075,17.4300003051758
1208.7322325,22.5300006866455
1208.7478575,27.5599994659424
1208.7634825,32.4099998474121
1208.7791075,36.9199981689453
1208.7947325,40.7599983215332
1208.8103575,43.5900001525879
1208.8259825,45.2999992370605
1208.8416075,46.0999984741211
1208.8572325,46.4000015258789
1208.8728575,46.4700012207031
1208.8884825,46.310001373291
1208.9041075,45.7599983215332
1208.9197325,44.7099990844727
1208.9353575,43.25
1208.9509825,41.5800018310547
1208.9666075,39.9300003051758
1208.9822325,38.439998626709
1208.9978575,37.0999984741211
1209.0134825,35.8199996948242
1209.0291075,34.4599990844727
1209.0447325,32.939998626709
1209.0603575,31.1499996185303
1209.0759825,28.9099998474121
1209.0916075,26.0799999237061
1209.1072325,22.6800003051758
1209.1228575,19.0799999237061
1209.1384825,15.7700004577637
1209.1541075,13.0600004196167
1209.1697325,10.8800001144409
1209.1853575,8.88000011444092
1209.2009825,6.94000005722046
1209.2166075,5.15000009536743
1209.2322325,3.53999996185303
1209.2478575,2.0
1209.2634825,0.419999986886978
1209.2791075,-1.10000002384186
1209.2947325,-2.1800000667572
1209.3103575,-2.25999999046326
1209.3259825,-0.860000014305115
1209.3416075,2.22000002861023
1209.3572325,6.84000015258789
1209.3728575,12.539999961853
1209.3884825,18.7000007629395
1209.4041075,24.7800006866455
1209.4197325,30.3899993896484
1209.4353575,35.3499984741211
1209.4509825,39.5900001525879
1209.4666075,43.0999984741211
1209.4822325,45.9700012207031
1209.4978575,48.3300018310547
1209.5134825,50.2299995422363
1209.5291075,51.7200012207031
1209.5447325,52.7999992370605
1209.5603575,53.4799995422363
1209.5759825,53.6399993896484
1209.5916075,53.1300010681152
1209.6072325,51.8800010681152
1209.6228575,49.9900016784668
1209.6384825,47.7900009155273
1209.6541075,45.6699981689453
1209.6697325,43.9000015258789
1209.6853575,42.5299987792969
1209.7009825,41.4300003051758
1209.7166075,40.310001373291
1209.7322325,38.8800010681152
1209.7478575,36.9099998474121
1209.7634825,34.3800010681152
1209.7791075,31.3500003814697
1209.7947325,27.8299999237061
1209.8103575,23.7900009155273
1209.8259825,19.3500003814697
1209.8416075,14.8699998855591
1209.8572325,10.9099998474121
1209.8728575,7.84999990463257
1209.8884825,5.57000017166138
1209.9041075,3.66000008583069
1209.9197325,1.9099999666214
1209.9353575,0.379999995231628
1209.9509825,-0.730000019073486
1209.9666075,-1.37999999523163
1209.9822325,-1.58000004291534
1209.9978575,-1.14999997615814
1210.0134825,0.469999998807907
1210.0291075,3.85999989509583
1210.0447325,9.07999992370605
1210.0603575,15.6099996566772
1210.0759825,22.6800003051758
1210.0916075,29.6399993896484
1210.1072325,36.0499992370605
1210.1228575,41.5800018310547
1210.1384825,45.8499984741211
1210.1541075,48.5099983215332
1210.1697325,49.6399993896484
1210.1853575,49.3699989318848
1210.2009825,48.1300010681152
1210.2166075,46.3499984741211
1210.2322325,44.3800010681152
1210.2478575,42.4099998474121
1210.2634825,40.5400009155273
1210.2791075,38.7200012207031
1210.2947325,36.8199996948242
1210.3103575,34.7200012207031
1210.3259825,32.3800010681152
1210.3416075,29.7600002288818
1210.3572325,26.7700004577637
1210.3728575,23.3400001525879
1210.3884825,19.5200004577637
1210.4041075,15.5799999237061
1210.4197325,11.9099998474121
1210.4353575,8.73999977111816
1210.4509825,5.92999982833862
1210.4666075,3.16000008583069
1210.4822325,0.28999999165535
1210.4978575,-2.67000007629395
1210.5134825,-5.78999996185303
1210.5291075,-9.23999977111816
1210.5447325,-13.0699996948242
1210.5603575,-17.0200004577637
1210.5759825,-20.5499992370605
1210.5916075,-23.0499992370605
1210.6072325,-24.1399993896484
1210.6228575,-23.7199993133545
1210.6384825,-21.8700008392334
1210.6541075,-18.8400001525879
1210.6697325,-15.0500001907349
1210.6853575,-11.0
1210.7009825,-7.05999994277954
1210.7166075,-3.4300000667572
1210.7322325,-0.0099999997764825
1210.7478575,3.36999988555908
1210.7634825,6.84999990463257
1210.7791075,10.3400001525879
1210.7947325,13.6300001144409
1210.8103575,16.4899997711182
1210.8259825,18.7800006866455
1210.8416075,20.4099998474121
1210.8572325,21.2099990844727
1210.8728575,21.0
1210.8884825,19.7399997711182
1210.9041075,17.6299991607666
1210.9197325,15.1199998855591
1210.9353575,12.6800003051758
1210.9509825,10.6099996566772
1210.9666075,8.97000026702881
1210.9822325,7.61999988555908
1210.9978575,6.30000019073486
1211.0134825,4.71000003814697
1211.0291075,2.67000007629395
1211.0447325,0.150000005960464
1211.0603575,-2.82999992370605
1211.0759825,-6.34999990463257
1211.0916075,-10.5100002288818
1211.1072325,-15.2299995422363
1211.1228575,-20.1200008392334
1211.1384825,-24.5599994659424
1211.1541075,-28.1700000762939
1211.1697325,-31.0400009155273
1211.1853575,-33.5200004577637
1211.2009825,-35.7400016784668
1211.2166075,-37.560001373291
1211.2322325,-38.7900009155273
1211.2478575,-39.3800010681152
1211.2634825,-39.4599990844727
1211.2791075,-39.0499992370605
1211.2947325,-37.9099998474121
1211.3103575,-35.75
1211.3259825,-32.5
1211.3416075,-28.4400005340576
1211.3572325,-23.9899997711182
1211.3728575,-19.5100002288818
1211.3884825,-15.25
1211.4041075,-11.3800001144409
1211.4197325,-8.03999996185303
1211.4353575,-5.34000015258789
1211.4509825,-3.32999992370605
1211.4666075,-1.96000003814697
1211.4822325,-1.1599999666214
1211.4978575,-0.800000011920929
1211.5134825,-0.720000028610229
1211.5291075,-0.779999971389771
1211.5447325,-0.879999995231628
1211.5603575,-1.01999998092651
1211.5759825,-1.33000004291534
1211.5916075,-1.94000005722046
1211.6072325,-2.91000008583069
1211.6228575,-4.26000022888184
1211.6384825,-6.05999994277954
1211.6541075,-8.35000038146973
1211.6697325,-11.0699996948242
1211.6853575,-13.9099998474121
1211.7009825,-16.4699993133545
1211.7166075,-18.4799995422363
1211.7322325,-20.0699996948242
1211.7478575,-21.5300006866455
1211.7634825,-22.9599990844727
1211.7791075,-24.2199993133545
1211.7947325,-25.1299991607666
1211.8103575,-25.6000003814697
1211.8259825,-25.75
1211.8416075,-25.8099994659424
1211.8572325,-26.1299991607666
1211.8728575,-26.9400005340576
1211.8884825,-28.2700004577637
1211.9041075,-29.8500003814697
1211.9197325,-31.25
1211.9353575,-32.1399993896484
1211.9509825,-32.3400001525879
1211.9666075,-31.7700004577637
1211.9822325,-30.2299995422363
1211.9978575,-27.5
1212.0134825,-23.5400009155273
1212.0291075,-18.7099990844727
1212.0447325,-13.6300001144409
1212.0603575,-8.93000030517578
1212.0759825,-4.98000001907349
1212.0916075,-1.78999996185303
1212.1072325,0.829999983310699
1212.1228575,3.0699999332428
1212.1384825,4.8600001335144
1212.1541075,6.05999994277954
1212.1697325,6.59000015258789
1212.1853575,6.51000022888184
1212.2009825,5.94000005722046
1212.2166075,5.0
1212.2322325,3.84999990463257
1212.2478575,2.67000007629395
1212.2634825,1.70000004768372
1212.2791075,1.02999997138977
1212.2947325,0.550000011920929
1212.3103575,0.0500000007450581
1212.3259825,-0.509999990463257
1212.3416075,-1.05999994277954
1212.3572325,-1.45000004768372
1212.3728575,-1.62000000476837
1212.3884825,-1.61000001430511
1212.4041075,-1.62999999523163
1212.4197325,-1.99000000953674
1212.4353575,-2.94000005722046
1212.4509825,-4.51999998092651
1212.4666075,-6.65999984741211
1212.4822325,-9.3100004196167
1212.4978575,-12.4200000762939
1212.5134825,-15.8699998855591
1212.5291075,-19.25
1212.5447325,-21.9300003051758
1212.5603575,-23.25
1212.5759825,-22.8600006103516
1212.5916075,-20.7700004577637
1212.6072325,-17.2700004577637
1212.6228575,-12.7700004577637
1212.6384825,-7.80000019073486
1212.6541075,-2.79999995231628
1212.6697325,1.87000000476837
1212.6853575,6.09999990463257
1212.7009825,9.85000038146973
1212.7166075,13.1499996185303
1212.7322325,16.1100006103516
1212.7478575,18.7700004577637
1212.7634825,21.1800003051758
1212.7791075,23.2999992370605
1212.7947325,25.1399993896484
1212.8103575,26.6200008392334
1212.8259825,27.6399993896484
1212.8416075,28.1000003814697
1212.8572325,28.0200004577637
1212.8728575,27.6100006103516
1212.8884825,27.1000003814697
1212.9041075,26.6700000762939
1212.9197325,26.2600002288818
1212.9353575,25.7199993133545
1212.9509825,24.9300003051758
1212.9666075,23.8799991607666
1212.9822325,22.6399993896484
1212.9978575,21.2600002288818
1213.0134825,19.7299995422363
1213.0291075,18.0599994659424
1213.0447325,16.3600006103516
1213.0603575,14.8100004196167
1213.0759825,13.5299997329712
1213.0916075,12.5299997329712
1213.1072325,11.710000038147
1213.1228575,10.8800001144409
1213.1384825,9.77000045776367
1213.1541075,8.22000026702881
1213.1697325,6.23999977111816
1213.1853575,4.1399998664856
1213.2009825,2.40000009536743
1213.2166075,1.46000003814697
1213.2322325,1.45000004768372
1213.2478575,2.28999996185303
1213.2634825,3.86999988555908
1213.2791075,6.28999996185303
1213.2947325,9.73999977111816
1213.3103575,14.1800003051758
1213.3259825,19.1200008392334
1213.3416075,23.8299999237061
1213.3572325,27.7199993133545
1213.3728575,30.6299991607666
1213.3884825,32.7099990844727
1213.4041075,34.2299995422363
1213.4197325,35.2799987792969
1213.4353575,35.8300018310547
1213.4509825,35.8499984741211
1213.4666075,35.4599990844727
1213.4822325,34.8699989318848
1213.4978575,34.310001373291
1213.5134825,33.8499984741211
1213.5291075,33.4199981689453
1213.5447325,32.7599983215332
1213.5603575,31.6200008392334
1213.5759825,29.9599990844727
1213.5916075,27.9400005340576
1213.6072325,25.7600002288818
1213.6228575,23.5499992370605
1213.6384825,21.3899993896484
1213.6541075,19.2999992370605
1213.6697325,17.2299995422363
1213.6853575,15.1099996566772
1213.7009825,12.75
1213.7166075,10.0200004577637
1213.7322325,6.90000009536743
1213.7478575,3.49000000953674
1213.7634825,-0.0900000035762787
1213.7791075,-3.74000000953674
1213.7947325,-7.36999988555908
1213.8103575,-10.8299999237061
1213.8259825,-13.9099998474121
1213.8416075,-16.2800006866455
1213.8572325,-17.5900001525879
1213.8728575,-17.6299991607666
1213.8884825,-16.4400005340576
1213.9041075,-14.3900003433228
1213.9197325,-11.9499998092651
1213.9353575,-9.5600004196167
1213.9509825,-7.42999982833862
1213.9666075,-5.46000003814697
1213.9822325,-3.23000001907349
1213.9978575,-0.300000011920929
1214.0134825,3.45000004768372
1214.0291075,7.86999988555908
1214.0447325,12.6700000762939
1214.0603575,17.6100006103516
1214.0759825,22.4099998474121
1214.0916075,26.5900001525879
1214.1072325,29.3700008392334
1214.1228575,30.1499996185303
1214.1384825,28.9300003051758
1214.1541075,26.3400001525879
1214.1697325,23.1100006103516
1214.1853575,19.7199993133545
1214.2009825,16.4200000762939
1214.2166075,13.25
1214.2322325,10.1800003051758
1214.2478575,7.17999982833862
1214.2634825,4.26000022888184
1214.2791075,1.46000003814697
1214.2947325,-1.21000003814697
1214.3103575,-3.78999996185303
1214.3259825,-6.32999992370605
1214.3416075,-8.89000034332275
1214.3572325,-11.5200004577637
1214.3728575,-14.2299995422363
1214.3884825,-17.0900001525879
1214.4041075,-20.2000007629395
1214.4197325,-23.6499996185303
1214.4353575,-27.4099998474121
