Time(s),Value(%)
452.0066418,1.05999994277954
452.0222668,3.88000011444092
452.0378918,6.6100001335144
452.0535168,8.57999992370605
452.0691418,9.4399995803833
452.0847668,9.34000015258789
452.1003918,8.6899995803833
452.1160168,7.84999990463257
452.1316418,7.0
452.1472668,6.1399998664856
452.1628918,5.21999979019165
452.1785168,4.26000022888184
452.1941418,3.28999996185303
452.2097668,2.26999998092651
452.2253918,1.1599999666214
452.2410168,0.0399999991059303
452.2566418,-0.860000014305115
452.2722668,-1.4099999666214
452.2878918,-1.62999999523163
452.3035168,-1.69000005722046
452.3191418,-1.8400000333786
452.3347668,-2.20000004768372
452.3503918,-2.6800000667572
452.3660168,-3.11999988555908
452.3816418,-3.46000003814697
452.3972668,-3.73000001907349
452.4128918,-3.98000001907349
452.4285168,-4.23999977111816
452.4441418,-4.55999994277954
452.4597668,-4.94000005722046
452.4753918,-5.11999988555908
452.4910168,-4.65999984741211
452.5066418,-3.20000004768372
452.5222668,-0.800000011920929
452.5378918,2.03999996185303
452.5535168,4.65999984741211
452.5691418,6.5
452.5847668,7.3600001335144
452.6003918,7.30000019073486
452.6160168,6.65999984741211
452.6316418,5.73999977111816
452.6472668,4.75
452.6628918,3.73000001907349
452.6785168,2.71000003814697
452.6941418,1.64999997615814
452.7097668,0.579999983310699
452.7253918,-0.449999988079071
452.7410168,-1.45000004768372
452.7566418,-2.36999988555908
452.7722668,-3.19000005722046
452.7878918,-3.83999991416931
452.8035168,-4.21999979019165
452.8191418,-4.26999998092651
452.8347668,-4.07000017166138
452.8503918,-3.83999991416931
452.8660168,-3.80999994277954
452.8816418,-4.07999992370605
452.8972668,-4.67999982833862
452.9128918,-5.59000015258789
452.9285168,-6.80000019073486
452.9441418,-8.25
452.9597668,-9.84000015258789
452.9753918,-11.2399997711182
452.9910168,-11.8900003433228
453.0066418,-11.1000003814697
453.0222668,-8.48999977111816
453.0378918,-4.32999992370605
453.0535168,0.469999998807907
453.0691418,4.84999990463257
453.0847668,8.01000022888184
453.1003918,9.75
453.1160168,10.3800001144409
453.1316418,10.4300003051758
453.1472668,10.3900003433228
453.1628918,10.5200004577637
453.1785168,10.7600002288818
453.1941418,10.8900003433228
453.2097668,10.6599998474121
453.2253918,9.89000034332275
453.2410168,8.48999977111816
453.2566418,6.6100001335144
453.2722668,4.53000020980835
453.2878918,2.48000001907349
453.3035168,0.569999992847443
453.3191418,-1.16999995708466
453.3347668,-2.75
453.3503918,-4.11999988555908
453.3660168,-5.21999979019165
453.3816418,-6.01000022888184
453.3972668,-6.51000022888184
453.4128918,-6.76999998092651
453.4285168,-6.86999988555908
453.4441418,-6.80000019073486
453.4597668,-6.44999980926514
453.4753918,-5.73000001907349
453.4910168,-4.63000011444092
453.5066418,-3.14000010490417
453.5222668,-1.25
453.5378918,1.13999998569489
453.5535168,4.01999998092651
453.5691418,7.09000015258789
453.5847668,9.85999965667725
453.6003918,11.8000001907349
453.6160168,12.6099996566772
453.6316418,12.3299999237061
453.6472668,11.289999961853
453.6628918,9.8100004196167
453.6785168,8.17000007629395
453.6941418,6.51000022888184
453.7097668,4.82999992370605
453.7253918,3.05999994277954
453.7410168,1.12000000476837
453.7566418,-0.910000026226044
453.7722668,-2.94000005722046
453.7878918,-4.82999992370605
453.8035168,-6.48000001907349
453.8191418,-7.71999979019165
453.8347668,-8.36999988555908
453.8503918,-8.38000011444092
453.8660168,-7.8899998664856
453.8816418,-7.30999994277954
453.8972668,-7.07999992370605
453.9128918,-7.3600001335144
453.9285168,-7.96000003814697
453.9441418,-8.5
453.9597668,-8.72999954223633
453.9753918,-8.59000015258789
453.9910168,-8.17000007629395
454.0066418,-7.6100001335144
454.0222668,-6.98000001907349
454.0378918,-6.34999990463257
454.0535168,-5.63000011444092
454.0691418,-4.59000015258789
454.0847668,-2.98000001907349
454.1003918,-0.839999973773956
454.1160168,1.41999995708466
454.1316418,3.21000003814697
454.1472668,4.03999996185303
454.1628918,3.83999991416931
454.1785168,2.96000003814697
454.1941418,1.87000000476837
454.2097668,0.899999976158142
454.2253918,0.0700000002980232
454.2410168,-0.740000009536743
454.2566418,-1.74000000953674
454.2722668,-2.96000003814697
454.2878918,-4.30000019073486
454.3035168,-5.59999990463257
454.3191418,-6.67999982833862
454.3347668,-7.40999984741211
454.3503918,-7.78000020980835
454.3660168,-7.90000009536743
454.3816418,-7.92000007629395
454.3972668,-7.92000007629395
454.4128918,-7.80999994277954
454.4285168,-7.46999979019165
454.4441418,-6.90000009536743
454.4597668,-6.23000001907349
454.4753918,-5.61999988555908
454.4910168,-5.05999994277954
454.5066418,-4.53000020980835
454.5222668,-4.09999990463257
454.5378918,-3.78999996185303
454.5535168,-3.34999990463257
454.5691418,-2.33999991416931
454.5847668,-0.419999986886978
454.6003918,2.48000001907349
454.6160168,5.98999977111816
454.6316418,9.40999984741211
454.6472668,12.0100002288818
454.6628918,13.4200000762939
454.6785168,13.6899995803833
454.6941418,13.1899995803833
454.7097668,12.3999996185303
454.7253918,11.6400003433228
454.7410168,11.0100002288818
454.7566418,10.4899997711182
454.7722668,10.0
454.7878918,9.46000003814697
454.8035168,8.86999988555908
454.8191418,8.22000026702881
454.8347668,7.48000001907349
454.8503918,6.65000009536743
454.8660168,5.73000001907349
454.8816418,4.73000001907349
454.8972668,3.67000007629395
454.9128918,2.5699999332428
454.9285168,1.52999997138977
454.9441418,0.680000007152557
454.9597668,0.0099999997764825
454.9753918,-0.519999980926514
454.9910168,-1.00999999046326
455.0066418,-1.5
455.0222668,-2.05999994277954
455.0378918,-2.67000007629395
455.0535168,-3.07999992370605
455.0691418,-2.85999989509583
455.0847668,-1.66999995708466
455.1003918,0.340000003576279
455.1160168,2.61999988555908
455.1316418,4.46999979019165
455.1472668,5.3600001335144
455.1628918,5.05999994277954
455.1785168,3.6800000667572
455.1941418,1.63999998569489
455.2097668,-0.509999990463257
455.2253918,-2.36999988555908
455.2410168,-3.75999999046326
455.2566418,-4.76999998092651
455.2722668,-5.65999984741211
455.2878918,-6.65999984741211
455.3035168,-7.76999998092651
455.3191418,-8.72999954223633
455.3347668,-9.1899995803833
455.3503918,-9.02000045776367
455.3660168,-8.31999969482422
455.3816418,-7.42000007629395
455.3972668,-6.61999988555908
455.4128918,-6.1399998664856
455.4285168,-5.94999980926514
455.4441418,-5.8899998664856
455.4597668,-5.76999998092651
455.4753918,-5.46999979019165
455.4910168,-5.01000022888184
455.5066418,-4.44000005722046
455.5222668,-3.78999996185303
455.5378918,-2.95000004768372
455.5535168,-1.5900000333786
455.5691418,0.639999985694885
455.5847668,3.70000004768372
455.6003918,7.01000022888184
455.6160168,9.76000022888184
455.6316418,11.3900003433228
455.6472668,11.7600002288818
455.6628918,11.1899995803833
455.6785168,10.2200002670288
455.6941418,9.3100004196167
455.7097668,8.60000038146973
455.7253918,7.98000001907349
455.7410168,7.23000001907349
455.7566418,6.23999977111816
455.7722668,5.03999996185303
455.7878918,3.76999998092651
455.8035168,2.6800000667572
455.8191418,1.98000001907349
455.8347668,1.71000003814697
455.8503918,1.78999996185303
455.8660168,2.01999998092651
455.8816418,2.16000008583069
455.8972668,2.00999999046326
455.9128918,1.38999998569489
455.9285168,0.280000001192093
455.9441418,-1.10000002384186
455.9597668,-2.39000010490417
455.9753918,-3.27999997138977
455.9910168,-3.6800000667572
456.0066418,-3.58999991416931
456.0222668,-2.98000001907349
456.0378918,-1.67999994754791
456.0535168,0.379999995231628
456.0691418,2.95000004768372
456.0847668,5.46000003814697
456.1003918,7.34999990463257
456.1160168,8.34000015258789
456.1316418,8.42000007629395
456.1472668,7.82999992370605
456.1628918,6.98000001907349
456.1785168,6.23000001907349
456.1941418,5.69999980926514
456.2097668,5.21000003814697
456.2253918,4.53999996185303
456.2410168,3.60999989509583
456.2566418,2.52999997138977
456.2722668,1.62999999523163
456.2878918,1.32000005245209
456.3035168,1.96000003814697
456.3191418,3.66000008583069
456.3347668,6.17000007629395
456.3503918,8.96000003814697
456.3660168,11.5100002288818
456.3816418,13.5
456.3972668,14.8400001525879
456.4128918,15.5699996948242
456.4285168,15.6700000762939
456.4441418,15.0500001907349
456.4597668,13.6800003051758
456.4753918,11.6400003433228
456.4910168,9.22000026702881
456.5066418,6.75
456.5222668,4.48999977111816
456.5378918,2.47000002861023
456.5535168,0.560000002384186
456.5691418,-1.29999995231628
456.5847668,-3.16000008583069
456.6003918,-5.03999996185303
456.6160168,-7.01999998092651
456.6316418,-9.13000011444092
456.6472668,-11.25
456.6628918,-13.2299995422363
456.6785168,-14.9300003051758
456.6941418,-16.2700004577637
456.7097668,-17.1599998474121
456.7253918,-17.6299991607666
456.7410168,-17.7900009155273
456.7566418,-17.8199996948242
456.7722668,-17.7999992370605
456.7878918,-17.7700004577637
456.8035168,-17.6800003051758
456.8191418,-17.5300006866455
456.8347668,-17.2999992370605
456.8503918,-17.0499992370605
456.8660168,-16.8799991607666
456.8816418,-16.8199996948242
456.8972668,-16.7600002288818
456.9128918,-16.5300006866455
456.9285168,-16.1100006103516
456.9441418,-15.5799999237061
456.9597668,-15.0
456.9753918,-14.25
456.9910168,-13.1300001144409
457.0066418,-11.4499998092651
457.0222668,-9.17000007629395
457.0378918,-6.44000005722046
457.0535168,-3.6800000667572
457.0691418,-1.37999999523163
457.0847668,0.219999998807907
457.1003918,1.23000001907349
457.1160168,1.8400000333786
457.1316418,2.17000007629395
457.1472668,2.24000000953674
457.1628918,2.08999991416931
457.1785168,1.75999999046326
457.1941418,1.26999998092651
457.2097668,0.600000023841858
457.2253918,-0.180000007152557
457.2410168,-0.949999988079071
457.2566418,-1.54999995231628
457.2722668,-1.96000003814697
457.2878918,-2.15000009536743
457.3035168,-2.15000009536743
457.3191418,-2.00999999046326
457.3347668,-1.82000005245209
457.3503918,-1.60000002384186
457.3660168,-1.37999999523163
457.3816418,-1.17999994754791
457.3972668,-1.05999994277954
457.4128918,-1.0900000333786
457.4285168,-1.21000003814697
457.4441418,-1.27999997138977
457.4597668,-1.12999999523163
457.4753918,-0.550000011920929
457.4910168,0.709999978542328
457.5066418,2.84999990463257
457.5222668,5.69000005722046
457.5378918,8.61999988555908
457.5535168,10.9700002670288
457.5691418,12.4300003051758
457.5847668,13.0600004196167
457.6003918,12.8500003814697
457.6160168,11.6700000762939
457.6316418,9.5600004196167
457.6472668,6.96000003814697
457.6628918,4.5
457.6785168,2.69000005722046
457.6941418,1.72000002861023
457.7097668,1.45000004768372
457.7253918,1.45000004768372
457.7410168,1.28999996185303
457.7566418,0.839999973773956
457.7722668,0.370000004768372
457.7878918,0.259999990463257
457.8035168,0.759999990463257
457.8191418,1.83000004291534
457.8347668,3.07999992370605
457.8503918,4.0
457.8660168,4.26000022888184
457.8816418,3.88000011444092
457.8972668,3.17000007629395
457.9128918,2.48000001907349
457.9285168,2.11999988555908
457.9441418,2.28999996185303
457.9597668,3.09999990463257
457.9753918,4.6100001335144
457.9910168,6.78999996185303
458.0066418,9.52999973297119
458.0222668,12.5600004196167
458.0378918,15.3900003433228
458.0535168,17.4799995422363
458.0691418,18.4599990844727
458.0847668,18.4200000762939
458.1003918,17.75
458.1160168,16.8299999237061
458.1316418,15.8599996566772
458.1472668,14.7799997329712
458.1628918,13.4399995803833
458.1785168,11.710000038147
458.1941418,9.64000034332275
458.2097668,7.36999988555908
458.2253918,5.09000015258789
458.2410168,2.99000000953674
458.2566418,1.27999997138977
458.2722668,0.0299999993294477
458.2878918,-0.860000014305115
458.3035168,-1.5900000333786
458.3191418,-2.32999992370605
458.3347668,-3.20000004768372
458.3503918,-4.26999998092651
458.3660168,-5.48999977111816
458.3816418,-6.71999979019165
458.3972668,-7.76000022888184
458.4128918,-8.47999954223633
458.4285168,-8.73999977111816
458.4441418,-8.39999961853027
458.4597668,-7.42000007629395
458.4753918,-5.90000009536743
458.4910168,-4.09000015258789
458.5066418,-2.33999991416931
458.5222668,-0.970000028610229
458.5378918,-0.0900000035762787
458.5535168,0.349999994039536
458.5691418,0.439999997615814
458.5847668,0.200000002980232
458.6003918,-0.379999995231628
458.6160168,-1.27999997138977
458.6316418,-2.39000010490417
458.6472668,-3.52999997138977
458.6628918,-4.6100001335144
458.6785168,-5.65999984741211
458.6941418,-6.78000020980835
458.7097668,-7.90999984741211
458.7253918,-8.88000011444092
458.7410168,-9.61999988555908
458.7566418,-10.1700000762939
458.7722668,-10.6000003814697
458.7878918,-10.9700002670288
458.8035168,-11.2600002288818
458.8191418,-11.5
458.8347668,-11.7700004577637
458.8503918,-12.0900001525879
458.8660168,-12.3400001525879
458.8816418,-12.3299999237061
458.8972668,-11.8599996566772
458.9128918,-10.75
458.9285168,-8.98999977111816
458.9441418,-6.90999984741211
458.9597668,-5.07000017166138
458.9753918,-3.99000000953674
458.9910168,-4.1100001335144
459.0066418,-5.90999984741211
459.0222668,-9.75
459.0378918,-15.3000001907349
459.0535168,-21.2700004577637
459.0691418,-26.0900001525879
459.0847668,-29.0799999237061
459.1003918,-31.0400009155273
459.1160168,-33.7200012207031
459.1316418,-38.939998626709
459.1472668,-47.6800003051758
459.1628918,-59.0099983215332
459.1785168,-69.5100021362305
459.1941418,-74.5400009155273
459.2097668,-71.1500015258789
459.2253918,-60.1300010681152
459.2410168,-44.9799995422363
459.2566418,-29.2399997711182
459.2722668,-14.9099998474121
459.2878918,-2.61999988555908
459.3035168,7.78999996185303
459.3191418,16.8299999237061
459.3347668,24.7999992370605
459.3503918,31.4200000762939
459.3660168,36.25
459.3816418,39.2099990844727
459.3972668,40.8400001525879
459.4128918,42.1500015258789
459.4285168,44.1100006103516
459.4441418,47.0800018310547
459.4597668,50.75
459.4753918,54.5
459.4910168,57.6800003051758
459.5066418,59.75
459.5222668,60.3800010681152
459.5378918,59.5800018310547
459.5535168,57.8300018310547
459.5691418,55.8899993896484
459.5847668,54.2599983215332
459.6003918,52.7799987792969
459.6160168,50.8699989318848
459.6316418,48.0499992370605
459.6472668,44.3300018310547
459.6628918,40.2900009155273
459.6785168,36.6199989318848
459.6941418,33.7400016784668
459.7097668,31.4899997711182
459.7253918,29.4300003051758
459.7410168,27.2099990844727
459.7566418,24.7999992370605
459.7722668,22.3299999237061
459.7878918,19.9400005340576
459.8035168,17.6299991607666
459.8191418,15.2600002288818
459.8347668,12.7799997329712
459.8503918,10.3400001525879
459.8660168,8.30000019073486
459.8816418,6.98999977111816
459.8972668,6.51999998092651
459.9128918,6.67999982833862
459.9285168,7.0
459.9441418,7.01999998092651
459.9597668,6.42000007629395
459.9753918,5.11999988555908
459.9910168,3.1800000667572
460.0066418,0.680000007152557
460.0222668,-2.3199999332428
460.0378918,-5.80000019073486
460.0535168,-9.60000038146973
460.0691418,-13.1400003433228
460.0847668,-15.6999998092651
460.1003918,-16.8899993896484
460.1160168,-17.0300006866455
460.1316418,-16.9200000762939
460.1472668,-17.3700008392334
460.1628918,-18.7399997711182
460.1785168,-20.6800003051758
460.1941418,-22.3999996185303
460.2097668,-23.3199996948242
460.2253918,-23.6299991607666
460.2410168,-24.1000003814697
460.2566418,-25.2999992370605
460.2722668,-26.8999996185303
460.2878918,-28.0599994659424
460.3035168,-28.2000007629395
460.3191418,-27.3799991607666
460.3347668,-25.9899997711182
460.3503918,-24.4699993133545
460.3660168,-23.1200008392334
460.3816418,-21.8700008392334
460.3972668,-20.3400001525879
460.4128918,-18.0900001525879
460.4285168,-15.0100002288818
460.4441418,-11.6400003433228
460.4597668,-8.97999954223633
460.4753918,-7.78000020980835
460.4910168,-8.10999965667725
460.5066418,-9.38000011444092
460.5222668,-10.7799997329712
460.5378918,-11.6700000762939
460.5535168,-11.6999998092651
460.5691418,-10.8500003814697
460.5847668,-9.4399995803833
460.6003918,-8.21000003814697
460.6160168,-8.55000019073486
460.6316418,-12.289999961853
460.6472668,-20.3799991607666
460.6628918,-31.4899997711182
460.6785168,-41.7900009155273
460.6941418,-46.6800003051758
460.7097668,-43.7799987792969
460.7253918,-34.8499984741211
460.7410168,-24.2800006866455
460.7566418,-16.0400009155273
460.7722668,-11.7700004577637
460.7878918,-11.0
460.8035168,-12.0900001525879
460.8191418,-12.9799995422363
460.8347668,-11.960000038147
460.8503918,-8.28999996185303
460.8660168,-2.79999995231628
460.8816418,2.19000005722046
460.8972668,4.01000022888184
460.9128918,1.41999995708466
460.9285168,-3.75999999046326
460.9441418,-7.40000009536743
460.9597668,-6.19000005722046
460.9753918,-0.579999983310699
460.9910168,6.13000011444092
461.0066418,11.3199996948242
461.0222668,14.6099996566772
461.0378918,16.5100002288818
461.0535168,17.1000003814697
461.0691418,16.5799999237061
461.0847668,15.9700002670288
461.1003918,16.9400005340576
461.1160168,20.3199996948242
461.1316418,24.8700008392334
461.1472668,28.0599994659424
461.1628918,28.6000003814697
461.1785168,27.1900005340576
461.1941418,24.5900001525879
461.2097668,19.6399993896484
461.2253918,10.4200000762939
461.2410168,-2.69000005722046
461.2566418,-15.6800003051758
461.2722668,-23.3299999237061
461.2878918,-23.0200004577637
461.3035168,-16.5900001525879
461.3191418,-8.8100004196167
461.3347668,-3.94000005722046
461.3503918,-3.54999995231628
461.3660168,-6.51999998092651
461.3816418,-10.2299995422363
461.3972668,-11.8299999237061
461.4128918,-9.65999984741211
461.4285168,-4.09999990463257
461.4441418,2.98000001907349
461.4597668,9.89000034332275
461.4753918,16.3299999237061
461.4910168,23.7700004577637
461.5066418,34.6199989318848
461.5222668,50.2799987792969
461.5378918,68.2699966430664
461.5535168,80.0899963378906
461.5691418,74.9700012207031
461.5847668,49.2799987792969
461.6003918,12.0799999237061
461.6160168,-19.8799991607666
461.6316418,-33.2900009155273
461.6472668,-26.0499992370605
461.6628918,-6.84000015258789
461.6785168,11.710000038147
461.6941418,20.7000007629395
461.7097668,18.4799995422363
461.7253918,9.34000015258789
461.7410168,-0.270000010728836
461.7566418,-5.73000001907349
461.7722668,-6.28999996185303
461.7878918,-4.55999994277954
461.8035168,-3.6800000667572
461.8191418,-4.71000003814697
461.8347668,-6.55999994277954
461.8503918,-8.14999961853027
461.8660168,-10.0200004577637
461.8816418,-13.3199996948242
461.8972668,-18.0
461.9128918,-22.7199993133545
461.9285168,-26.0499992370605
461.9441418,-27.5200004577637
461.9597668,-27.6200008392334
461.9753918,-27.1100006103516
461.9910168,-26.25
462.0066418,-24.9300003051758
462.0222668,-23.25
462.0378918,-21.8199996948242
462.0535168,-21.2299995422363
462.0691418,-21.4400005340576
462.0847668,-21.4300003051758
462.1003918,-19.6200008392334
462.1160168,-15.1700000762939
462.1316418,-8.94999980926514
462.1472668,-3.20000004768372
462.1628918,-0.109999999403954
462.1785168,-0.5
462.1941418,-3.4300000667572
462.2097668,-6.92000007629395
462.2253918,-9.22999954223633
462.2410168,-9.67000007629395
462.2566418,-8.5600004196167
462.2722668,-6.67000007629395
462.2878918,-4.75
462.3035168,-3.25999999046326
462.3191418,-2.39000010490417
462.3347668,-2.07999992370605
462.3503918,-2.1800000667572
462.3660168,-2.55999994277954
462.3816418,-3.11999988555908
462.3972668,-3.71000003814697
462.4128918,-4.17999982833862
462.4285168,-4.48000001907349
462.4441418,-4.61999988555908
462.4597668,-4.67999982833862
462.4753918,-4.75
462.4910168,-4.80999994277954
462.5066418,-4.71999979019165
462.5222668,-4.26999998092651
462.5378918,-3.33999991416931
462.5535168,-1.96000003814697
462.5691418,-0.310000002384186
462.5847668,1.3400000333786
462.6003918,2.75
462.6160168,3.80999994277954
462.6316418,4.71999979019165
462.6472668,5.78000020980835
462.6628918,7.1399998664856
462.6785168,8.71000003814697
462.6941418,10.3199996948242
462.7097668,12.0100002288818
462.7253918,14.0100002288818
462.7410168,16.4500007629395
462.7566418,19.1499996185303
