Time(s),Value(%)
286.0062101,57.4500007629395
286.0218351,72.4499969482422
286.0374601,79.6999969482422
286.0530851,79.6399993896484
286.0687101,75.2099990844727
286.0843351,69.8199996948242
286.0999601,65.4199981689453
286.1155851,61.9700012207031
286.1312101,58.1100006103516
286.1468351,52.3600006103516
286.1624601,43.9900016784668
286.1780851,33.2000007629395
286.1937101,20.7999992370605
286.2093351,8.03999996185303
286.2249601,-3.60999989509583
286.2405851,-12.6999998092651
286.2562101,-18.3400001525879
286.2718351,-21.0
286.2874601,-22.4899997711182
286.3030851,-24.8500003814697
286.3187101,-29.1599998474121
286.3343351,-35.189998626709
286.3499601,-41.7999992370605
286.3655851,-47.7799987792969
286.3812101,-52.4700012207031
286.3968351,-55.7599983215332
286.4124601,-57.810001373291
286.4280851,-59.0200004577637
286.4437101,-60.0
286.4593351,-60.9599990844727
286.4749601,-61.2700004577637
286.4905851,-59.9099998474121
286.5062101,-56.6699981689453
286.5218351,-52.6100006103516
286.5374601,-49.3400001525879
286.5530851,-47.7200012207031
286.5687101,-47.3899993896484
286.5843351,-47.2400016784668
286.5999601,-46.2400016784668
286.6155851,-43.4500007629395
286.6312101,-37.3199996948242
286.6468351,-25.8999996185303
286.6624601,-8.39000034332275
286.6780851,13.289999961853
286.6937101,35.0099983215332
286.7093351,52.3699989318848
286.7249601,62.7299995422363
286.7405851,66.1500015258789
286.7562101,64.8199996948242
286.7718351,61.4799995422363
286.7874601,57.9799995422363
286.8030851,54.9199981689453
286.8187101,52.1199989318848
286.8343351,48.9700012207031
286.8499601,44.6199989318848
286.8655851,38.1300010681152
286.8812101,28.9099998474121
286.8968351,17.1900005340576
286.9124601,4.38000011444092
286.9280851,-7.40999984741211
286.9437101,-16.3400001525879
286.9593351,-21.6900005340576
286.9749601,-23.9500007629395
286.9905851,-24.3099994659424
287.0062101,-24.0100002288818
287.0218351,-23.8899993896484
287.0374601,-24.4099998474121
287.0530851,-25.8600006103516
287.0687101,-28.4400005340576
287.0843351,-31.8899993896484
287.0999601,-35.3899993896484
287.1155851,-38.0
287.1312101,-39.2400016784668
287.1468351,-39.2700004577637
287.1624601,-38.5299987792969
287.1780851,-37.2200012207031
287.1937101,-35.4099998474121
287.2093351,-33.439998626709
287.2249601,-32.0099983215332
287.2405851,-31.5799999237061
287.2562101,-31.8099994659424
287.2718351,-31.7399997711182
287.2874601,-30.1399993896484
287.3030851,-25.2199993133545
287.3187101,-14.8199996948242
287.3343351,2.16000008583069
287.3499601,24.0699996948242
287.3655851,46.5900001525879
287.3812101,64.7200012207031
287.3968351,75.0299987792969
287.4124601,76.8099975585938
287.4280851,72.0500030517578
287.4437101,64.3899993896484
287.4593351,57.3800010681152
287.4749601,52.8800010681152
287.4905851,50.4700012207031
287.5062101,48.3499984741211
287.5218351,45.0099983215332
287.5374601,39.939998626709
287.5530851,33.3199996948242
287.5687101,25.6499996185303
287.5843351,17.7000007629395
287.5999601,10.3599996566772
287.6155851,4.23999977111816
287.6312101,-0.720000028610229
287.6468351,-5.09000015258789
287.6624601,-9.27000045776367
287.6780851,-13.2700004577637
287.6937101,-16.9899997711182
287.7093351,-20.4799995422363
287.7249601,-23.9500007629395
287.7405851,-27.5
287.7562101,-30.8199996948242
287.7718351,-33.2200012207031
287.7874601,-33.9799995422363
287.8030851,-32.7900009155273
287.8187101,-30.0799999237061
287.8343351,-26.8199996948242
287.8499601,-24.0799999237061
287.8655851,-22.4599990844727
287.8812101,-21.9699993133545
287.8968351,-22.2999992370605
287.9124601,-23.1299991607666
287.9280851,-24.0699996948242
287.9437101,-24.2600002288818
287.9593351,-22.2399997711182
287.9749601,-16.1000003814697
287.9905851,-4.55999994277954
288.0062101,11.6599998474121
288.0218351,29.5499992370605
288.0374601,45.060001373291
288.0530851,54.8400001525879
288.0687101,57.6300010681152
288.0843351,54.4599990844727
288.0999601,47.939998626709
288.1155851,40.9700012207031
288.1312101,35.5200004577637
288.1468351,31.9699993133545
288.1624601,29.1399993896484
288.1780851,25.3099994659424
288.1937101,19.3999996185303
288.2093351,11.5100002288818
288.2249601,2.69000005722046
288.2405851,-5.59999990463257
288.2562101,-12.1300001144409
288.2718351,-16.1900005340576
288.2874601,-17.9599990844727
288.3030851,-18.4699993133545
288.3187101,-18.9500007629395
288.3343351,-19.9899997711182
288.3499601,-21.2000007629395
288.3655851,-21.8600006103516
288.3812101,-21.9300003051758
288.3968351,-22.1200008392334
288.4124601,-22.8799991607666
288.4280851,-23.8099994659424
288.4437101,-24.2199993133545
288.4593351,-23.8600006103516
288.4749601,-23.0300006866455
288.4905851,-22.2000007629395
288.5062101,-21.7000007629395
288.5218351,-21.6800003051758
288.5374601,-22.2199993133545
288.5530851,-23.1399993896484
288.5687101,-24.0
288.5843351,-24.2199993133545
288.5999601,-23.1299991607666
288.6155851,-19.4599990844727
288.6312101,-11.4899997711182
288.6468351,1.62000000476837
288.6624601,18.4599990844727
288.6780851,35.6399993896484
288.6937101,49.5900001525879
288.7093351,58.060001373291
288.7249601,60.4900016784668
288.7405851,57.8300018310547
288.7562101,52.1199989318848
288.7718351,45.7799987792969
288.7874601,40.75
288.8030851,37.8800010681152
288.8187101,36.8199996948242
288.8343351,36.2900009155273
288.8499601,34.3800010681152
288.8655851,29.0400009155273
288.8812101,19.2299995422363
288.8968351,6.11999988555908
288.9124601,-7.1100001335144
288.9280851,-16.9500007629395
288.9437101,-21.4200000762939
288.9593351,-20.9500007629395
288.9749601,-17.8099994659424
288.9905851,-14.7399997711182
289.0062101,-13.6000003814697
289.0218351,-14.6800003051758
289.0374601,-17.1000003814697
289.0530851,-19.6800003051758
289.0687101,-21.7000007629395
289.0843351,-22.9799995422363
289.0999601,-23.7000007629395
289.1155851,-24.0200004577637
289.1312101,-23.9099998474121
289.1468351,-23.2900009155273
289.1624601,-22.2700004577637
289.1780851,-21.2600002288818
289.1937101,-20.8500003814697
289.2093351,-21.5200004577637
289.2249601,-23.25
289.2405851,-25.2700004577637
289.2562101,-26.0200004577637
289.2718351,-23.1200008392334
289.2874601,-14.2200002670288
289.3030851,1.13999998569489
289.3187101,20.5100002288818
289.3343351,39.2900009155273
289.3499601,52.9500007629395
289.3655851,59.0099983215332
289.3812101,57.9000015258789
289.3968351,52.3800010681152
289.4124601,46.0400009155273
289.4280851,41.4300003051758
289.4437101,39.060001373291
289.4593351,37.6699981689453
289.4749601,35.3499984741211
289.4905851,30.8700008392334
289.5062101,24.2299995422363
289.5218351,16.1000003814697
289.5374601,7.21000003814697
289.5530851,-1.64999997615814
289.5687101,-9.4399995803833
289.5843351,-15.0900001525879
289.5999601,-18.0599994659424
289.6155851,-18.7999992370605
289.6312101,-18.4699993133545
289.6468351,-18.3500003814697
289.6624601,-19.3899993896484
289.6780851,-21.9200000762939
289.6937101,-25.2999992370605
289.7093351,-28.1499996185303
289.7249601,-29.2099990844727
289.7405851,-27.9799995422363
289.7562101,-24.9599990844727
289.7718351,-21.5200004577637
289.7874601,-19.1299991607666
289.8030851,-18.5699996948242
289.8187101,-19.6599998474121
289.8343351,-21.5699996948242
289.8499601,-23.4899997711182
289.8655851,-24.8700008392334
289.8812101,-25.4300003051758
289.8968351,-25.0799999237061
289.9124601,-23.9300003051758
289.9280851,-21.9899997711182
289.9437101,-18.5900001525879
289.9593351,-12.4700002670288
289.9749601,-2.88000011444092
289.9905851,9.26000022888184
290.0062101,21.6200008392334
290.0218351,31.5300006866455
290.0374601,37.1500015258789
290.0530851,38.0900001525879
290.0687101,35.5400009155273
290.0843351,31.6499996185303
290.0999601,28.5799999237061
290.1155851,27.6499996185303
290.1312101,28.5499992370605
290.1468351,29.5300006866455
290.1624601,28.6399993896484
290.1780851,24.7600002288818
290.1937101,17.9799995422363
290.2093351,9.3100004196167
290.2249601,0.340000003576279
290.2405851,-7.23999977111816
290.2562101,-12.3299999237061
290.2718351,-14.8500003814697
290.2874601,-15.6499996185303
290.3030851,-15.9200000762939
290.3187101,-16.4099998474121
290.3343351,-17.1599998474121
290.3499601,-17.7999992370605
290.3655851,-18.1599998474121
290.3812101,-18.6700000762939
290.3968351,-19.9300003051758
290.4124601,-21.8999996185303
290.4280851,-23.6800003051758
290.4437101,-24.3299999237061
290.4593351,-23.75
290.4749601,-22.4599990844727
290.4905851,-20.7900009155273
290.5062101,-18.5599994659424
290.5218351,-15.75
290.5374601,-13.0100002288818
290.5530851,-11.2200002670288
290.5687101,-10.8100004196167
290.5843351,-11.1700000762939
290.5999601,-10.6700000762939
290.6155851,-7.42999982833862
290.6312101,-0.759999990463257
290.6468351,8.1899995803833
290.6624601,17.1700000762939
290.6780851,24.2299995422363
290.6937101,28.7099990844727
290.7093351,30.9099998474121
290.7249601,31.3400001525879
290.7405851,30.3600006103516
290.7562101,28.2299995422363
290.7718351,25.3099994659424
290.7874601,22.2299995422363
290.8030851,19.5300006866455
290.8187101,17.3199996948242
290.8343351,15.1300001144409
290.8499601,12.1199998855591
290.8655851,7.65000009536743
290.8812101,1.94000005722046
290.8968351,-3.9300000667572
290.9124601,-8.69999980926514
290.9280851,-11.7600002288818
290.9437101,-13.460000038147
290.9593351,-14.5699996948242
290.9749601,-15.7399997711182
290.9905851,-17.2800006866455
291.0062101,-19.0599994659424
291.0218351,-20.4599990844727
291.0374601,-20.6299991607666
291.0530851,-19.1000003814697
291.0687101,-16.2800006866455
291.0843351,-13.2700004577637
291.0999601,-11.1300001144409
291.1155851,-10.4200000762939
291.1312101,-11.039999961853
291.1468351,-12.4200000762939
291.1624601,-13.8299999237061
291.1780851,-14.9700002670288
291.1937101,-16.1299991607666
291.2093351,-17.6200008392334
291.2249601,-19.2000007629395
291.2405851,-19.9500007629395
291.2562101,-18.5599994659424
291.2718351,-13.8999996185303
291.2874601,-5.80999994277954
291.3030851,4.44000005722046
291.3187101,14.6300001144409
291.3343351,22.6200008392334
291.3499601,27.4599990844727
291.3655851,29.6599998474121
291.3812101,30.5499992370605
291.3968351,31.4899997711182
291.4124601,33.3300018310547
291.4280851,35.9900016784668
291.4437101,38.5200004577637
291.4593351,39.5999984741211
291.4749601,38.1500015258789
291.4905851,33.8800010681152
291.5062101,27.2600002288818
291.5218351,19.2600002288818
291.5374601,10.9799995422363
291.5530851,3.27999997138977
291.5687101,-3.22000002861023
291.5843351,-8.13000011444092
291.5999601,-11.3100004196167
291.6155851,-13.039999961853
291.6312101,-13.8800001144409
291.6468351,-14.4099998474121
291.6624601,-15.0
291.6780851,-15.8400001525879
291.6937101,-17.1200008392334
291.7093351,-18.9500007629395
291.7249601,-21.1499996185303
291.7405851,-23.0900001525879
291.7562101,-24.0
291.7718351,-23.4899997711182
291.7874601,-21.7399997711182
291.8030851,-19.25
291.8187101,-16.5300006866455
291.8343351,-14.0900001525879
291.8499601,-12.3999996185303
291.8655851,-11.8999996185303
291.8812101,-12.6400003433228
291.8968351,-14.0799999237061
291.9124601,-14.9200000762939
291.9280851,-13.2700004577637
291.9437101,-7.42000007629395
291.9593351,2.82999992370605
291.9749601,15.6400003433228
291.9905851,27.8199996948242
292.0062101,36.4000015258789
292.0218351,39.8400001525879
292.0374601,38.4900016784668
292.0530851,34.1399993896484
292.0687101,29.1299991607666
292.0843351,25.2900009155273
292.0999601,23.2999992370605
292.1155851,22.6399993896484
292.1312101,22.3799991607666
292.1468351,21.8700008392334
292.1624601,20.6399993896484
292.1780851,17.8600006103516
292.1937101,12.4700002670288
292.2093351,4.26000022888184
292.2249601,-5.44999980926514
292.2405851,-14.4899997711182
292.2562101,-21.0200004577637
292.2718351,-24.3400001525879
292.2874601,-25.0400009155273
292.3030851,-24.4300003051758
292.3187101,-23.5300006866455
292.3343351,-22.5100002288818
292.3499601,-21.1000003814697
292.3655851,-19.2999992370605
292.3812101,-17.6800003051758
292.3968351,-16.8099994659424
292.4124601,-16.7700004577637
292.4280851,-17.0100002288818
292.4437101,-16.7399997711182
292.4593351,-15.3900003433228
292.4749601,-13.0799999237061
292.4905851,-10.5200004577637
292.5062101,-8.47999954223633
292.5218351,-7.11999988555908
292.5374601,-6.03000020980835
292.5530851,-4.88000011444092
292.5687101,-3.88000011444092
292.5843351,-3.1800000667572
292.5999601,-1.89999997615814
292.6155851,1.70000004768372
292.6312101,8.89000034332275
292.6468351,19.2000007629395
292.6624601,30.2800006866455
292.6780851,39.189998626709
292.6937101,44.060001373291
292.7093351,44.6100006103516
292.7249601,41.7400016784668
292.7405851,36.939998626709
292.7562101,31.6700000762939
292.7718351,27.0499992370605
292.7874601,23.5
292.8030851,20.5799999237061
292.8187101,17.3400001525879
292.8343351,13.0799999237061
292.8499601,7.82999992370605
292.8655851,2.25
292.8812101,-2.63000011444092
292.8968351,-6.09000015258789
292.9124601,-8.10000038146973
292.9280851,-9.18000030517578
292.9437101,-9.77000045776367
292.9593351,-9.82999992370605
292.9749601,-9.38000011444092
292.9905851,-9.13000011444092
293.0062101,-10.25
293.0218351,-13.1700000762939
293.0374601,-17.1200008392334
293.0530851,-20.9099998474121
293.0687101,-23.8099994659424
293.0843351,-25.6100006103516
293.0999601,-26.3700008392334
293.1155851,-26.1900005340576
293.1312101,-25.1399993896484
293.1468351,-23.4099998474121
293.1624601,-21.4500007629395
293.1780851,-19.7600002288818
293.1937101,-18.5799999237061
293.2093351,-17.8299999237061
293.2249601,-17.3700008392334
293.2405851,-16.6800003051758
293.2562101,-14.5600004196167
293.2718351,-9.52000045776367
293.2874601,-0.970000028610229
293.3030851,9.94999980926514
293.3187101,20.6700000762939
293.3343351,28.5300006866455
293.3499601,32.0999984741211
293.3655851,31.7600002288818
293.3812101,29.0799999237061
293.3968351,25.6000003814697
293.4124601,22.0
293.4280851,18.4400005340576
293.4437101,15.1899995803833
293.4593351,12.789999961853
293.4749601,11.3800001144409
293.4905851,10.1099996566772
293.5062101,7.82000017166138
293.5218351,4.19999980926514
293.5374601,0.0799999982118607
293.5530851,-3.36999988555908
293.5687101,-5.80999994277954
293.5843351,-7.67000007629395
293.5999601,-9.5600004196167
293.6155851,-11.6800003051758
293.6312101,-13.8900003433228
293.6468351,-15.960000038147
293.6624601,-17.8099994659424
293.6780851,-19.6499996185303
293.6937101,-21.6700000762939
293.7093351,-23.7399997711182
293.7249601,-25.3799991607666
293.7405851,-26.0200004577637
293.7562101,-25.25
293.7718351,-23.1000003814697
293.7874601,-20.1900005340576
293.8030851,-17.2099990844727
293.8187101,-14.6000003814697
293.8343351,-12.5699996948242
293.8499601,-11.4399995803833
293.8655851,-11.5299997329712
293.8812101,-12.7299995422363
293.8968351,-13.8500003814697
293.9124601,-12.6499996185303
293.9280851,-7.1399998664856
293.9437101,2.88000011444092
293.9593351,15.4300003051758
293.9749601,27.4699993133545
293.9905851,36.4000015258789
294.0062101,41.0900001525879
294.0218351,42.1699981689453
294.0374601,41.3899993896484
294.0530851,40.5499992370605
294.0687101,40.4300003051758
294.0843351,40.6300010681152
294.0999601,40.1100006103516
294.1155851,38.189998626709
294.1312101,34.7700004577637
294.1468351,30.0400009155273
294.1624601,24.1000003814697
294.1780851,16.8899993896484
294.1937101,8.73999977111816
294.2093351,0.800000011920929
294.2249601,-5.57000017166138
294.2405851,-9.82999992370605
294.2562101,-12.5
294.2718351,-14.6099996566772
294.2874601,-16.8799991607666
294.3030851,-19.3500003814697
294.3187101,-21.3899993896484
294.3343351,-22.3299999237061
294.3499601,-22.2099990844727
294.3655851,-21.7800006866455
294.3812101,-21.8099994659424
294.3968351,-22.3600006103516
294.4124601,-22.9099998474121
294.4280851,-22.9500007629395
294.4437101,-22.4400005340576
294.4593351,-21.8600006103516
294.4749601,-21.7299995422363
294.4905851,-22.0599994659424
294.5062101,-22.2199993133545
294.5218351,-21.4400005340576
294.5374601,-19.3600006103516
294.5530851,-15.9700002670288
294.5687101,-11.2299995422363
294.5843351,-5.11999988555908
294.5999601,2.04999995231628
294.6155851,9.60999965667725
294.6312101,16.9799995422363
294.6468351,24.0300006866455
294.6624601,30.6200008392334
294.6780851,36.189998626709
294.6937101,40.2099990844727
294.7093351,42.689998626709
294.7249601,43.8300018310547
294.7405851,43.5400009155273
294.7562101,41.8199996948242
294.7718351,39.0
294.7874601,35.3699989318848
294.8030851,30.7600002288818
294.8187101,24.6299991607666
294.8343351,16.8600006103516
294.8499601,8.43000030517578
294.8655851,0.970000028610229
294.8812101,-4.42999982833862
294.8968351,-8.0600004196167
294.9124601,-11.1800003051758
294.9280851,-15.0
294.9437101,-19.5900001525879
294.9593351,-23.7399997711182
294.9749601,-25.8099994659424
294.9905851,-25.0599994659424
295.0062101,-22.1100006103516
295.0218351,-18.5799999237061
295.0374601,-16.3799991607666
295.0530851,-17.1000003814697
295.0687101,-21.2800006866455
295.0843351,-27.8799991607666
295.0999601,-34.7299995422363
295.1155851,-39.7599983215332
295.1312101,-42.0900001525879
295.1468351,-42.0699996948242
295.1624601,-40.75
295.1780851,-39.1500015258789
295.1937101,-37.5699996948242
295.2093351,-35.25
295.2249601,-30.5200004577637
295.2405851,-21.8899993896484
295.2562101,-9.43000030517578
295.2718351,4.94000005722046
295.2874601,18.4899997711182
295.3030851,28.9599990844727
295.3187101,35.439998626709
295.3343351,38.5299987792969
295.3499601,39.7299995422363
295.3655851,40.1500015258789
295.3812101,39.6100006103516
295.3968351,37.0900001525879
295.4124601,32.0999984741211
295.4280851,25.6399993896484
295.4437101,19.7600002288818
295.4593351,16.5100002288818
295.4749601,17.5
295.4905851,23.5100002288818
295.5062101,33.6199989318848
295.5218351,44.5200004577637
295.5374601,51.5999984741211
295.5530851,51.0699996948242
295.5687101,41.8600006103516
295.5843351,25.9899997711182
295.5999601,7.23000001907349
295.6155851,-11.0500001907349
295.6312101,-26.9799995422363
295.6468351,-39.8899993896484
295.6624601,-49.4599990844727
295.6780851,-55.5499992370605
295.6937101,-58.310001373291
295.7093351,-58.2799987792969
295.7249601,-56.2400016784668
295.7405851,-52.9500007629395
295.7562101,-48.8800010681152
295.7718351,-44.3300018310547
295.7874601,-39.5900001525879
295.8030851,-35.3800010681152
295.8187101,-32.9799995422363
295.8343351,-33.689998626709
295.8499601,-37.4199981689453
295.8655851,-41.7000007629395
295.8812101,-42.3899993896484
295.8968351,-36.0
295.9124601,-21.8500003814697
295.9280851,-2.48000001907349
295.9437101,17.7999992370605
295.9593351,34.9000015258789
295.9749601,46.3899993896484
295.9905851,52.0200004577637
296.0062101,53.2700004577637
296.0218351,52.1800003051758
296.0374601,50.1300010681152
296.0530851,47.5999984741211
296.0687101,44.6800003051758
296.0843351,41.439998626709
296.0999601,37.810001373291
296.1155851,33.4599990844727
296.1312101,27.7800006866455
296.1468351,20.3099994659424
296.1624601,11.3800001144409
296.1780851,2.41000008583069
296.1937101,-4.84000015258789
296.2093351,-9.53999996185303
296.2249601,-12.4700002670288
296.2405851,-15.3100004196167
296.2562101,-19.3999996185303
296.2718351,-24.8600006103516
296.2874601,-30.9699993133545
296.3030851,-36.9099998474121
296.3187101,-41.9700012207031
296.3343351,-45.4099998474121
296.3499601,-46.7400016784668
296.3655851,-46.1599998474121
296.3812101,-44.3600006103516
296.3968351,-41.7299995422363
296.4124601,-38.189998626709
296.4280851,-33.75
296.4437101,-28.8899993896484
296.4593351,-24.3500003814697
296.4749601,-20.7299995422363
296.4905851,-18.3500003814697
296.5062101,-17.0799999237061
296.5218351,-16.0200004577637
296.5374601,-13.5500001907349
296.5530851,-7.8899998664856
296.5687101,1.74000000953674
296.5843351,14.4399995803833
296.5999601,27.8099994659424
296.6155851,39.2799987792969
296.6312101,47.2999992370605
296.6468351,51.7999992370605
296.6624601,53.5299987792969
296.6780851,53.4300003051758
296.6937101,52.3499984741211
296.7093351,50.6800003051758
