Time(s),Value(%)
286.0062101,-24.4300003051758
286.0218351,-26.0499992370605
286.0374601,-27.4699993133545
286.0530851,-28.5400009155273
286.0687101,-29.2199993133545
286.0843351,-29.6700000762939
286.0999601,-30.1000003814697
286.1155851,-30.6000003814697
286.1312101,-30.9699993133545
286.1468351,-30.9899997711182
286.1624601,-30.6800003051758
286.1780851,-30.3199996948242
286.1937101,-30.1100006103516
286.2093351,-29.8600006103516
286.2249601,-28.8500003814697
286.2405851,-25.8500003814697
286.2562101,-19.5300006866455
286.2718351,-9.32999992370605
286.2874601,3.88000011444092
286.3030851,18.1900005340576
286.3187101,31.4599990844727
286.3343351,42.2099990844727
286.3499601,49.7400016784668
286.3655851,54.0800018310547
286.3812101,55.7400016784668
286.3968351,55.5400009155273
286.4124601,54.2200012207031
286.4280851,52.0
286.4437101,48.7000007629395
286.4593351,44.0800018310547
286.4749601,38.0900001525879
286.4905851,30.9300003051758
286.5062101,23.0200004577637
286.5218351,14.9200000762939
286.5374601,7.28999996185303
286.5530851,0.600000023841858
286.5687101,-4.94999980926514
286.5843351,-9.46000003814697
286.5999601,-13.1899995803833
286.6155851,-16.5499992370605
286.6312101,-19.9099998474121
286.6468351,-23.4699993133545
286.6624601,-27.1499996185303
286.6780851,-30.5599994659424
286.6937101,-33.2000007629395
286.7093351,-34.8600006103516
286.7249601,-35.7700004577637
286.7405851,-36.3300018310547
286.7562101,-36.8499984741211
286.7718351,-37.439998626709
286.7874601,-37.939998626709
286.8030851,-38.0900001525879
286.8187101,-37.7099990844727
286.8343351,-36.8400001525879
286.8499601,-35.6399993896484
286.8655851,-34.1599998474121
286.8812101,-32.2999992370605
286.8968351,-29.7099990844727
286.9124601,-25.6299991607666
286.9280851,-19.1299991607666
286.9437101,-9.60999965667725
286.9593351,2.67000007629395
286.9749601,16.6499996185303
286.9905851,30.7700004577637
287.0062101,43.5200004577637
287.0218351,53.7700004577637
287.0374601,60.7700004577637
287.0530851,64.2799987792969
287.0687101,64.6399993896484
287.0843351,62.6500015258789
287.0999601,59.2000007629395
287.1155851,54.8600006103516
287.1312101,49.7400016784668
287.1468351,43.7000007629395
287.1624601,36.6599998474121
287.1780851,28.8199996948242
287.1937101,20.6000003814697
287.2093351,12.5500001907349
287.2249601,5.19000005722046
287.2405851,-1.1599999666214
287.2562101,-6.51999998092651
287.2718351,-11.1499996185303
287.2874601,-15.4099998474121
287.3030851,-19.5499992370605
287.3187101,-23.5900001525879
287.3343351,-27.3600006103516
287.3499601,-30.6499996185303
287.3655851,-33.3699989318848
287.3812101,-35.5299987792969
287.3968351,-37.3199996948242
287.4124601,-38.8899993896484
287.4280851,-40.2000007629395
287.4437101,-41.0200004577637
287.4593351,-41.3300018310547
287.4749601,-41.3600006103516
287.4905851,-41.3400001525879
287.5062101,-41.2299995422363
287.5218351,-40.7999992370605
287.5374601,-39.8199996948242
287.5530851,-38.1599998474121
287.5687101,-35.6100006103516
287.5843351,-31.6299991607666
287.5999601,-25.4300003051758
287.6155851,-16.2999992370605
287.6312101,-4.07000017166138
287.6468351,10.6700000762939
287.6624601,26.4899997711182
287.6780851,41.2299995422363
287.6937101,52.8800010681152
287.7093351,60.4000015258789
287.7249601,63.9099998474121
287.7405851,64.3399963378906
287.7562101,62.8899993896484
287.7718351,60.4099998474121
287.7874601,57.0699996948242
287.8030851,52.6500015258789
287.8187101,46.8699989318848
287.8343351,39.7900009155273
287.8499601,31.7800006866455
287.8655851,23.4599990844727
287.8812101,15.3599996566772
287.8968351,7.82999992370605
287.9124601,0.949999988079071
287.9280851,-5.25
287.9437101,-10.7600002288818
287.9593351,-15.6300001144409
287.9749601,-20.0699996948242
287.9905851,-24.3500003814697
288.0062101,-28.6599998474121
288.0218351,-32.9000015258789
288.0374601,-36.689998626709
288.0530851,-39.5499992370605
288.0687101,-41.2400016784668
288.0843351,-41.9199981689453
288.0999601,-41.9500007629395
288.1155851,-41.5800018310547
288.1312101,-40.8800010681152
288.1468351,-39.7400016784668
288.1624601,-38.0099983215332
288.1780851,-35.7200012207031
288.1937101,-33.3199996948242
288.2093351,-31.3099994659424
288.2249601,-29.7600002288818
288.2405851,-27.9500007629395
288.2562101,-24.4799995422363
288.2718351,-17.7600002288818
288.2874601,-7.05999994277954
288.3030851,6.73000001907349
288.3187101,21.5499992370605
288.3343351,35.0999984741211
288.3499601,45.7900009155273
288.3655851,52.939998626709
288.3812101,56.5699996948242
288.3968351,57.1399993896484
288.4124601,55.3400001525879
288.4280851,51.9000015258789
288.4437101,47.4900016784668
288.4593351,42.5200004577637
288.4749601,37.0800018310547
288.4905851,31.0900001525879
288.5062101,24.5400009155273
288.5218351,17.5900001525879
288.5374601,10.6400003433228
288.5530851,4.23999977111816
288.5687101,-1.19000005722046
288.5843351,-5.59999990463257
288.5999601,-9.19999980926514
288.6155851,-12.3000001907349
288.6312101,-15.0699996948242
288.6468351,-17.4599990844727
288.6624601,-19.3099994659424
288.6780851,-20.75
288.6937101,-22.1399993896484
288.7093351,-23.7600002288818
288.7249601,-25.5900001525879
288.7405851,-27.3500003814697
288.7562101,-28.7600002288818
288.7718351,-29.6299991607666
288.7874601,-30.0599994659424
288.8030851,-30.2999992370605
288.8187101,-30.4599990844727
288.8343351,-30.4300003051758
288.8499601,-30.0300006866455
288.8655851,-29.1599998474121
288.8812101,-27.8299999237061
288.8968351,-25.8299999237061
288.9124601,-22.4500007629395
288.9280851,-16.5900001525879
288.9437101,-7.55999994277954
288.9593351,4.17999982833862
288.9749601,17.1499996185303
288.9905851,29.4500007629395
289.0062101,39.6199989318848
289.0218351,47.0400009155273
289.0374601,51.8800010681152
289.0530851,54.6100006103516
289.0687101,55.6800003051758
289.0843351,55.3600006103516
289.0999601,53.7799987792969
289.1155851,50.9000015258789
289.1312101,46.6699981689453
289.1468351,41.1399993896484
289.1624601,34.6100006103516
289.1780851,27.5
289.1937101,20.2700004577637
289.2093351,13.2799997329712
289.2249601,6.80000019073486
289.2405851,0.930000007152557
289.2562101,-4.26999998092651
289.2718351,-8.90999984741211
289.2874601,-13.1800003051758
289.3030851,-17.2900009155273
289.3187101,-21.2199993133545
289.3343351,-24.7099990844727
289.3499601,-27.5200004577637
289.3655851,-29.6000003814697
289.3812101,-31.0
289.3968351,-31.9099998474121
289.4124601,-32.5800018310547
289.4280851,-33.2599983215332
289.4437101,-34.0
289.4593351,-34.5699996948242
289.4749601,-34.5800018310547
289.4905851,-33.8400001525879
289.5062101,-32.4700012207031
289.5218351,-30.7199993133545
289.5374601,-28.5799999237061
289.5530851,-25.6000003814697
289.5687101,-20.9699993133545
289.5843351,-13.9300003051758
289.5999601,-4.3899998664856
289.6155851,6.76999998092651
289.6312101,18.1000003814697
289.6468351,28.2600002288818
289.6624601,36.4900016784668
289.6780851,42.7000007629395
289.6937101,47.0299987792969
289.7093351,49.5999984741211
289.7249601,50.5
289.7405851,49.8800010681152
289.7562101,48.0299987792969
289.7718351,45.189998626709
289.7874601,41.4599990844727
289.8030851,36.8600006103516
289.8187101,31.4500007629395
289.8343351,25.3899993896484
289.8499601,19.0200004577637
289.8655851,12.8199996948242
289.8812101,7.21000003814697
289.8968351,2.38000011444092
289.9124601,-1.86000001430511
289.9280851,-5.8600001335144
289.9437101,-9.82999992370605
289.9593351,-13.7299995422363
289.9749601,-17.3899993896484
289.9905851,-20.6399993896484
290.0062101,-23.3400001525879
290.0218351,-25.4799995422363
290.0374601,-27.2000007629395
290.0530851,-28.7199993133545
290.0687101,-30.1900005340576
290.0843351,-31.5599994659424
290.0999601,-32.5900001525879
290.1155851,-33.0800018310547
290.1312101,-32.9900016784668
290.1468351,-32.5
290.1624601,-31.7999992370605
290.1780851,-30.9899997711182
290.1937101,-29.9899997711182
290.2093351,-28.3500003814697
290.2249601,-25.3999996185303
290.2405851,-20.3899993896484
290.2562101,-12.9700002670288
290.2718351,-3.49000000953674
290.2874601,7.05999994277954
290.3030851,17.4099998474121
290.3187101,26.4099998474121
290.3343351,33.3400001525879
290.3499601,38.0099983215332
290.3655851,40.6500015258789
290.3812101,41.689998626709
290.3968351,41.5800018310547
290.4124601,40.5400009155273
290.4280851,38.5499992370605
290.4437101,35.5
290.4593351,31.3799991607666
290.4749601,26.4300003051758
290.4905851,21.0599994659424
290.5062101,15.6899995803833
290.5218351,10.6700000762939
290.5374601,6.11999988555908
290.5530851,1.89999997615814
290.5687101,-2.14000010490417
290.5843351,-6.09999990463257
290.5999601,-9.92000007629395
290.6155851,-13.5299997329712
290.6312101,-16.8999996185303
290.6468351,-19.9099998474121
290.6624601,-22.4899997711182
290.6780851,-24.6599998474121
290.6937101,-26.5
290.7093351,-28.0699996948242
290.7249601,-29.4099998474121
290.7405851,-30.4799995422363
290.7562101,-31.1399993896484
290.7718351,-31.3400001525879
290.7874601,-31.25
290.8030851,-31.0599994659424
290.8187101,-30.7700004577637
290.8343351,-30.1599998474121
290.8499601,-28.8199996948242
290.8655851,-26.1900005340576
290.8812101,-21.7299995422363
290.8968351,-15.2799997329712
290.9124601,-7.13000011444092
290.9280851,2.09999990463257
290.9437101,11.5699996948242
290.9593351,20.1599998474121
290.9749601,26.9599990844727
290.9905851,31.6200008392334
291.0062101,34.3600006103516
291.0218351,35.5699996948242
291.0374601,35.6300010681152
291.0530851,34.8199996948242
291.0687101,33.2900009155273
291.0843351,31.0900001525879
291.0999601,28.2099990844727
291.1155851,24.5799999237061
291.1312101,20.2299995422363
291.1468351,15.3400001525879
291.1624601,10.1499996185303
291.1780851,5.01000022888184
291.1937101,0.419999986886978
291.2093351,-3.16000008583069
291.2249601,-5.61999988555908
291.2405851,-7.32999992370605
291.2562101,-8.88000011444092
291.2718351,-10.7399997711182
291.2874601,-13.0200004577637
291.3030851,-15.5299997329712
291.3187101,-17.9300003051758
291.3343351,-19.9500007629395
291.3499601,-21.3600006103516
291.3655851,-22.1299991607666
291.3812101,-22.3899993896484
291.3968351,-22.3799991607666
291.4124601,-22.2199993133545
291.4280851,-21.8899993896484
291.4437101,-21.3199996948242
291.4593351,-20.5200004577637
291.4749601,-19.6200008392334
291.4905851,-18.6599998474121
291.5062101,-17.5400009155273
291.5218351,-15.9899997711182
291.5374601,-13.5
291.5530851,-9.38000011444092
291.5687101,-3.17000007629395
291.5843351,4.8600001335144
291.5999601,13.7700004577637
291.6155851,22.3700008392334
291.6312101,29.7399997711182
291.6468351,35.4099998474121
291.6624601,39.3499984741211
291.6780851,41.7700004577637
291.6937101,42.9900016784668
291.7093351,43.2599983215332
291.7249601,42.6300010681152
291.7405851,40.9900016784668
291.7562101,38.2400016784668
291.7718351,34.4099998474121
291.7874601,29.5900001525879
291.8030851,23.9899997711182
291.8187101,17.9899997711182
291.8343351,12.0600004196167
291.8499601,6.65999984741211
291.8655851,1.92999994754791
291.8812101,-2.17000007629395
291.8968351,-5.76999998092651
291.9124601,-8.96000003814697
291.9280851,-11.7399997711182
291.9437101,-14.0900001525879
291.9593351,-16.1499996185303
291.9749601,-18.2099990844727
291.9905851,-20.4200000762939
292.0062101,-22.7199993133545
292.0218351,-24.8999996185303
292.0374601,-26.7099990844727
292.0530851,-28.0200004577637
292.0687101,-28.9200000762939
292.0843351,-29.6000003814697
292.0999601,-30.1700000762939
292.1155851,-30.5799999237061
292.1312101,-30.7199993133545
292.1468351,-30.5100002288818
292.1624601,-29.9699993133545
292.1780851,-29.2000007629395
292.1937101,-28.3899993896484
292.2093351,-27.4899997711182
292.2249601,-26.0499992370605
292.2405851,-23.2000007629395
292.2562101,-18.2000007629395
292.2718351,-11.0200004577637
292.2874601,-2.45000004768372
292.3030851,6.38000011444092
292.3187101,14.5900001525879
292.3343351,21.5200004577637
292.3499601,26.8099994659424
292.3655851,30.3500003814697
292.3812101,32.4099998474121
292.3968351,33.4000015258789
292.4124601,33.5999984741211
292.4280851,33.0800018310547
292.4437101,31.6700000762939
292.4593351,29.2600002288818
292.4749601,25.9500007629395
292.4905851,22.0
292.5062101,17.7800006866455
292.5218351,13.6300001144409
292.5374601,9.77999973297119
292.5530851,6.32999992370605
292.5687101,3.27999997138977
292.5843351,0.589999973773956
292.5999601,-1.86000001430511
292.6155851,-4.15000009536743
292.6312101,-6.28000020980835
292.6468351,-8.25
292.6624601,-10.0799999237061
292.6780851,-11.789999961853
292.6937101,-13.4099998474121
292.7093351,-15.0200004577637
292.7249601,-16.7099990844727
292.7405851,-18.4099998474121
292.7562101,-19.8899993896484
292.7718351,-20.9099998474121
292.7874601,-21.3899993896484
292.8030851,-21.5100002288818
292.8187101,-21.5900001525879
292.8343351,-21.7000007629395
292.8499601,-21.5200004577637
292.8655851,-20.4899997711182
292.8812101,-17.9300003051758
292.8968351,-13.2299995422363
292.9124601,-6.25
292.9280851,2.47000002861023
292.9437101,11.9399995803833
292.9593351,21.0300006866455
292.9749601,28.8199996948242
292.9905851,34.7200012207031
293.0062101,38.5099983215332
293.0218351,40.3899993896484
293.0374601,40.810001373291
293.0530851,40.2099990844727
293.0687101,38.8400001525879
293.0843351,36.5999984741211
293.0999601,33.2200012207031
293.1155851,28.6599998474121
293.1312101,23.3700008392334
293.1468351,17.9500007629395
293.1624601,12.8400001525879
293.1780851,8.17000007629395
293.1937101,3.91000008583069
293.2093351,-0.0500000007450581
293.2249601,-3.78999996185303
293.2405851,-7.28000020980835
293.2562101,-10.4799995422363
293.2718351,-13.3500003814697
293.2874601,-15.789999961853
293.3030851,-17.8099994659424
293.3187101,-19.5699996948242
293.3343351,-21.2800006866455
293.3499601,-22.9799995422363
293.3655851,-24.6200008392334
293.3812101,-26.0799999237061
293.3968351,-27.1800003051758
293.4124601,-27.75
293.4280851,-27.7399997711182
293.4437101,-27.3199996948242
293.4593351,-26.8600006103516
293.4749601,-26.6000003814697
293.4905851,-26.4400005340576
293.5062101,-25.8999996185303
293.5218351,-24.2399997711182
293.5374601,-20.7299995422363
293.5530851,-14.960000038147
293.5687101,-7.09000015258789
293.5843351,2.04999995231628
293.5999601,11.1199998855591
293.6155851,18.7900009155273
293.6312101,24.3099994659424
293.6468351,27.6599998474121
293.6624601,29.2199993133545
293.6780851,29.4899997711182
293.6937101,28.9200000762939
293.7093351,27.8299999237061
293.7249601,26.3999996185303
293.7405851,24.5200004577637
293.7562101,22.0
293.7718351,18.7800006866455
293.7874601,15.039999961853
293.8030851,11.039999961853
293.8187101,7.03000020980835
293.8343351,3.25999999046326
293.8499601,0.0
293.8655851,-2.63000011444092
293.8812101,-4.75
293.8968351,-6.57000017166138
293.9124601,-8.30000019073486
293.9280851,-10.0799999237061
293.9437101,-11.9899997711182
293.9593351,-14.1400003433228
293.9749601,-16.5200004577637
293.9905851,-18.7399997711182
294.0062101,-20.3700008392334
294.0218351,-21.1900005340576
294.0374601,-21.3500003814697
294.0530851,-21.1900005340576
294.0687101,-21.0499992370605
294.0843351,-21.0499992370605
294.0999601,-21.0300006866455
294.1155851,-20.7999992370605
294.1312101,-20.2600002288818
294.1468351,-19.3299999237061
294.1624601,-17.8099994659424
294.1780851,-15.2200002670288
294.1937101,-10.9200000762939
294.2093351,-4.34999990463257
294.2249601,4.34000015258789
294.2405851,14.1300001144409
294.2562101,23.3999996185303
294.2718351,30.8799991607666
294.2874601,36.0900001525879
294.3030851,39.3300018310547
294.3187101,41.3800010681152
294.3343351,42.8800010681152
294.3499601,43.8899993896484
294.3655851,43.9700012207031
294.3812101,42.5299987792969
294.3968351,39.3600006103516
294.4124601,34.7400016784668
294.4280851,29.2399997711182
294.4437101,23.4099998474121
294.4593351,17.7000007629395
294.4749601,12.3999996185303
294.4905851,7.6100001335144
294.5062101,3.26999998092651
294.5218351,-0.709999978542328
294.5374601,-4.38000011444092
294.5530851,-7.76999998092651
294.5687101,-10.9399995803833
294.5843351,-13.9399995803833
294.5999601,-16.7600002288818
294.6155851,-19.3099994659424
294.6312101,-21.5100002288818
294.6468351,-23.3799991607666
294.6624601,-25.0
294.6780851,-26.4200000762939
294.6937101,-27.5900001525879
294.7093351,-28.3400001525879
294.7249601,-28.5699996948242
294.7405851,-28.3600006103516
294.7562101,-27.9599990844727
294.7718351,-27.5799999237061
294.7874601,-27.2999992370605
294.8030851,-27.0799999237061
294.8187101,-26.6800003051758
294.8343351,-25.4799995422363
294.8499601,-22.7000007629395
294.8655851,-17.7099990844727
294.8812101,-10.4899997711182
294.8968351,-1.74000000953674
294.9124601,7.42000007629395
294.9280851,15.8599996566772
294.9437101,22.8199996948242
294.9593351,28.0799999237061
294.9749601,31.8700008392334
294.9905851,34.4799995422363
295.0062101,35.9599990844727
295.0218351,36.2099990844727
295.0374601,35.1800003051758
295.0530851,33.0499992370605
295.0687101,30.0599994659424
295.0843351,26.3500003814697
295.0999601,21.9799995422363
295.1155851,17.0599994659424
295.1312101,11.8199996948242
295.1468351,6.6100001335144
295.1624601,1.74000000953674
295.1780851,-2.5699999332428
295.1937101,-6.32000017166138
295.2093351,-9.47999954223633
295.2249601,-12.1300001144409
295.2405851,-14.5500001907349
295.2562101,-17.0400009155273
295.2718351,-19.6000003814697
295.2874601,-22.0100002288818
295.3030851,-24.1599998474121
295.3187101,-25.9899997711182
295.3343351,-27.4699993133545
295.3499601,-28.7000007629395
295.3655851,-29.8099994659424
295.3812101,-30.8099994659424
295.3968351,-31.5
295.4124601,-31.6000003814697
295.4280851,-30.9899997711182
295.4437101,-29.75
295.4593351,-28.0900001525879
295.4749601,-26.1900005340576
295.4905851,-24.0499992370605
295.5062101,-21.25
295.5218351,-17.1200008392334
295.5374601,-11.039999961853
295.5530851,-3.05999994277954
295.5687101,6.07999992370605
295.5843351,15.3299999237061
295.5999601,23.7399997711182
295.6155851,30.6700000762939
295.6312101,35.7000007629395
295.6468351,38.7200012207031
295.6624601,40.060001373291
295.6780851,40.310001373291
295.6937101,39.8600006103516
295.7093351,38.7400016784668
295.7249601,36.8499984741211
295.7405851,34.1699981689453
295.7562101,30.7999992370605
295.7718351,26.8600006103516
295.7874601,22.5
295.8030851,18.0
295.8187101,13.6099996566772
295.8343351,9.47000026702881
295.8499601,5.57000017166138
295.8655851,1.88999998569489
295.8812101,-1.52999997138977
295.8968351,-4.55999994277954
295.9124601,-7.17000007629395
295.9280851,-9.52000045776367
295.9437101,-11.8500003814697
295.9593351,-14.2799997329712
295.9749601,-16.7600002288818
295.9905851,-19.2000007629395
296.0062101,-21.4899997711182
296.0218351,-23.4400005340576
296.0374601,-24.9200000762939
296.0530851,-25.9099998474121
296.0687101,-26.5300006866455
296.0843351,-26.9500007629395
296.0999601,-27.2800006866455
296.1155851,-27.4300003051758
296.1312101,-27.1599998474121
296.1468351,-26.1000003814697
296.1624601,-23.7800006866455
296.1780851,-19.7199993133545
296.1937101,-13.7799997329712
296.2093351,-6.40999984741211
296.2249601,1.5900000333786
296.2405851,9.48999977111816
296.2562101,16.75
296.2718351,22.8400001525879
296.2874601,27.3400001525879
296.3030851,30.1100006103516
296.3187101,31.3799991607666
296.3343351,31.5599994659424
296.3499601,31.0100002288818
296.3655851,29.9099998474121
296.3812101,28.25
296.3968351,25.9500007629395
296.4124601,23.0100002288818
296.4280851,19.6100006103516
296.4437101,16.0699996948242
296.4593351,12.8100004196167
296.4749601,10.1199998855591
296.4905851,7.98000001907349
296.5062101,6.09999990463257
296.5218351,4.17999982833862
296.5374601,2.05999994277954
296.5530851,-0.189999997615814
296.5687101,-2.44000005722046
296.5843351,-4.48999977111816
296.5999601,-6.30000019073486
296.6155851,-8.02999973297119
296.6312101,-9.86999988555908
296.6468351,-11.8400001525879
296.6624601,-13.7700004577637
296.6780851,-15.5900001525879
296.6937101,-17.3899993896484
296.7093351,-19.2999992370605
296.7249601,-21.3600006103516
