Time(s),Value(%)
45.0150509,-10.3400001525879
45.0306759,-9.13000011444092
45.0463009,-7.13000011444092
45.0619259,-4.86999988555908
45.0775509,-3.25999999046326
45.0931759,-3.10999989509583
45.1088009,-4.48999977111816
45.1244259,-6.59999990463257
45.1400509,-8.39000034332275
45.1556759,-9.35000038146973
45.1713009,-9.6899995803833
45.1869259,-9.93000030517578
45.2025509,-10.3400001525879
45.2181759,-10.6800003051758
45.2338009,-10.3599996566772
45.2494259,-8.93000030517578
45.2650509,-6.42000007629395
45.2806759,-3.35999989509583
45.2963009,-0.46000000834465
45.3119259,2.0
45.3275509,4.23000001907349
45.3431759,6.38000011444092
45.3588009,8.1899995803833
45.3744259,9.30000019073486
45.3900509,9.69999980926514
45.4056759,9.77999973297119
45.4213009,9.80000019073486
45.4369259,9.60999965667725
45.4525509,8.85000038146973
45.4681759,7.13000011444092
45.4838009,4.32000017166138
45.4994259,0.720000028610229
45.5150509,-2.90000009536743
45.5306759,-5.84000015258789
45.5463009,-7.67999982833862
45.5619259,-8.32999992370605
45.5775509,-7.92000007629395
45.5931759,-6.96000003814697
45.6088009,-6.40999984741211
45.6244259,-7.26000022888184
45.6400509,-9.60999965667725
45.6556759,-12.3299999237061
45.6713009,-13.75
45.6869259,-12.7600002288818
45.7025509,-9.47999954223633
45.7181759,-5.03999996185303
45.7338009,-1.01999998092651
45.7494259,1.27999997138977
45.7650509,1.50999999046326
45.7806759,0.0700000002980232
45.7963009,-2.35999989509583
45.8119259,-5.1100001335144
45.8275509,-7.46000003814697
45.8431759,-8.77999973297119
45.8588009,-8.72999954223633
45.8744259,-7.3899998664856
45.8900509,-5.0
45.9056759,-1.83000004291534
45.9213009,1.75999999046326
45.9369259,5.32000017166138
45.9525509,8.5600004196167
45.9681759,11.4499998092651
45.9838009,13.9899997711182
45.9994259,15.9300003051758
46.0150509,16.8099994659424
46.0306759,16.1700000762939
46.0463009,14.0600004196167
46.0619259,11.210000038147
46.0775509,8.65999984741211
46.0931759,7.05999994277954
46.1088009,6.34000015258789
46.1244259,5.94000005722046
46.1400509,5.3600001335144
46.1556759,4.30000019073486
46.1713009,2.69000005722046
46.1869259,0.600000023841858
46.2025509,-1.75
46.2181759,-3.86999988555908
46.2338009,-5.17999982833862
46.2494259,-5.51000022888184
46.2650509,-5.28999996185303
46.2806759,-5.21000003814697
46.2963009,-5.80999994277954
46.3119259,-7.15999984741211
46.3275509,-8.89000034332275
46.3431759,-10.4099998474121
46.3588009,-11.1800003051758
46.3744259,-10.6999998092651
46.3900509,-8.61999988555908
46.4056759,-4.94000005722046
46.4213009,-0.0900000035762787
46.4369259,5.17000007629395
46.4525509,10.0
46.4681759,13.789999961853
46.4838009,16.3600006103516
46.4994259,17.7199993133545
46.5150509,17.7900009155273
46.5306759,16.5799999237061
46.5463009,14.3100004196167
46.5619259,11.3500003814697
46.5775509,8.14000034332275
46.5931759,5.15000009536743
46.6088009,2.83999991416931
46.6244259,1.50999999046326
46.6400509,1.20000004768372
46.6556759,1.47000002861023
46.6713009,1.62000000476837
46.6869259,1.21000003814697
46.7025509,0.370000004768372
46.7181759,-0.46000000834465
46.7338009,-1.05999994277954
46.7494259,-1.32000005245209
46.7650509,-1.12999999523163
46.7806759,-0.610000014305115
46.7963009,-0.219999998807907
46.8119259,-0.449999988079071
46.8275509,-1.26999998092651
46.8431759,-2.28999996185303
46.8588009,-3.17000007629395
46.8744259,-3.94000005722046
46.8900509,-4.73000001907349
46.9056759,-5.30000019073486
46.9213009,-5.28000020980835
46.9369259,-4.8600001335144
46.9525509,-4.67000007629395
46.9681759,-4.8899998664856
46.9838009,-4.84000015258789
46.9994259,-3.73000001907349
47.0150509,-1.37000000476837
47.0306759,1.85000002384186
47.0463009,5.44000005722046
47.0619259,8.93000030517578
47.0775509,11.9499998092651
47.0931759,14.210000038147
47.1088009,15.4799995422363
47.1244259,15.5900001525879
47.1400509,14.3999996185303
47.1556759,11.8000001907349
47.1713009,8.05000019073486
47.1869259,3.94000005722046
47.2025509,0.509999990463257
47.2181759,-1.74000000953674
47.2338009,-3.0699999332428
47.2494259,-3.98000001907349
47.2650509,-4.84000015258789
47.2806759,-5.73000001907349
47.2963009,-6.59000015258789
47.3119259,-7.34000015258789
47.3275509,-8.05000019073486
47.3431759,-8.84000015258789
47.3588009,-9.71000003814697
47.3744259,-10.6899995803833
47.3900509,-11.8900003433228
47.4056759,-13.1199998855591
47.4213009,-13.789999961853
47.4369259,-13.4300003051758
47.4525509,-12.1499996185303
47.4681759,-10.25
47.4838009,-7.71000003814697
47.4994259,-4.34999990463257
47.5150509,-0.349999994039536
47.5306759,3.49000000953674
47.5463009,6.34000015258789
47.5619259,8.02000045776367
47.5775509,9.02000045776367
47.5931759,9.9399995803833
47.6088009,10.7799997329712
47.6244259,11.1400003433228
47.6400509,10.6000003814697
47.6556759,9.18000030517578
47.6713009,7.34999990463257
47.6869259,5.82999992370605
47.7025509,5.1399998664856
47.7181759,5.17000007629395
47.7338009,5.42999982833862
47.7494259,5.48000001907349
47.7650509,5.21000003814697
47.7806759,4.65000009536743
47.7963009,3.60999989509583
47.8119259,1.92999994754791
47.8275509,-0.150000005960464
47.8431759,-1.95000004768372
47.8588009,-2.84999990463257
47.8744259,-2.91000008583069
47.8900509,-2.79999995231628
47.9056759,-3.27999997138977
47.9213009,-4.67999982833862
47.9369259,-6.65000009536743
47.9525509,-8.47000026702881
47.9681759,-9.46000003814697
47.9838009,-9.36999988555908
47.9994259,-8.52000045776367
48.0150509,-7.46000003814697
48.0306759,-6.28000020980835
48.0463009,-4.3600001335144
48.0619259,-1.01999998092651
48.0775509,3.58999991416931
48.0931759,8.25
48.1088009,11.6000003814697
48.1244259,13.1899995803833
48.1400509,13.4499998092651
48.1556759,13.0100002288818
48.1713009,12.3299999237061
48.1869259,11.8999996185303
48.2025509,12.1499996185303
48.2181759,13.0900001525879
48.2338009,14.0699996948242
48.2494259,14.3900003433228
48.2650509,14.0500001907349
48.2806759,13.9700002670288
48.2963009,15.3100004196167
48.3119259,18.6000003814697
48.3275509,23.4400005340576
48.3431759,28.7800006866455
48.3588009,33.3400001525879
48.3744259,35.8899993896484
48.3900509,35.6800003051758
48.4056759,32.7700004577637
48.4213009,27.7299995422363
48.4369259,21.25
48.4525509,14.1999998092651
48.4681759,7.51000022888184
48.4838009,1.79999995231628
48.4994259,-3.00999999046326
48.5150509,-7.67999982833862
48.5306759,-13.0799999237061
48.5463009,-19.7299995422363
48.5619259,-27.2700004577637
48.5775509,-34.3199996948242
48.5931759,-38.939998626709
48.6088009,-39.6399993896484
48.6244259,-36.3300018310547
48.6400509,-30.2999992370605
48.6556759,-23.5100002288818
48.6713009,-17.6000003814697
48.6869259,-13.289999961853
48.7025509,-9.96000003814697
48.7181759,-5.63000011444092
48.7338009,2.3199999332428
48.7494259,15.25
48.7650509,31.2000007629395
48.7806759,44.7799987792969
48.7963009,49.4900016784668
48.8119259,41.2400016784668
48.8275509,20.3899993896484
48.8431759,-8.53999996185303
48.8588009,-38.8199996948242
48.8744259,-63.7200012207031
48.8900509,-78.5500030517578
48.9056759,-82.25
48.9213009,-78.1800003051758
48.9369259,-73.0100021362305
48.9525509,-73.6999969482422
48.9681759,-83.4800033569336
48.9838009,-99.5299987792969
48.9994259,-114.23999786377
49.0150509,-119.73999786377
49.0306759,-112.01000213623
49.0463009,-91.9300003051758
49.0619259,-63.2599983215332
49.0775509,-30.3199996948242
49.0931759,3.40000009536743
49.1088009,36.1699981689453
49.1244259,67.5400009155273
49.1400509,95.8899993896484
49.1556759,116.629997253418
49.1713009,122.910003662109
49.1869259,108.800003051758
49.2025509,73.3000030517578
49.2181759,22.9099998474121
49.2338009,-29.8899993896484
49.2494259,-71.8600006103516
49.2650509,-94.1900024414063
49.2806759,-95.0899963378906
49.2963009,-79.129997253418
49.3119259,-54.0400009155273
49.3275509,-27.1800003051758
49.3431759,-3.07999992370605
49.3588009,17.1200008392334
49.3744259,35.0900001525879
49.3900509,53.560001373291
49.4056759,74.120002746582
49.4213009,95.7600021362305
49.4369259,114.809997558594
49.4525509,125.879997253418
49.4681759,123.970001220703
49.4838009,107.25
49.4994259,78.5400009155273
49.5150509,44.0699996948242
49.5306759,10.8199996948242
49.5463009,-16.0
49.5619259,-34.060001373291
49.5775509,-43.4300003051758
49.5931759,-45.3699989318848
49.6088009,-41.1800003051758
49.6244259,-31.7099990844727
49.6400509,-18.4400005340576
49.6556759,-4.92999982833862
49.6713009,3.96000003814697
49.6869259,5.84000015258789
49.7025509,3.5699999332428
49.7181759,3.60999989509583
49.7338009,10.8900003433228
49.7494259,24.8400001525879
49.7650509,39.8499984741211
49.7806759,48.9000015258789
49.7963009,47.5299987792969
49.8119259,35.9199981689453
49.8275509,18.0200004577637
49.8431759,-1.01999998092651
49.8588009,-17.2999992370605
49.8744259,-29.0300006866455
49.8900509,-36.3600006103516
49.9056759,-40.439998626709
49.9213009,-42.3499984741211
49.9369259,-42.3499984741211
49.9525509,-39.9700012207031
49.9681759,-34.5900001525879
49.9838009,-26.2299995422363
49.9994259,-16.1200008392334
50.0150509,-6.63000011444092
50.0306759,-0.330000013113022
50.0463009,1.25
50.0619259,-2.11999988555908
50.0775509,-9.68000030517578
50.0931759,-19.6000003814697
50.1088009,-29.1800003051758
50.1244259,-35.7000007629395
50.1400509,-37.7400016784668
50.1556759,-35.7299995422363
50.1713009,-31.1399993896484
50.1869259,-25.1900005340576
50.2025509,-18.2299995422363
50.2181759,-10.2200002670288
50.2338009,-1.36000001430511
50.2494259,7.6100001335144
50.2650509,15.6300001144409
50.2806759,21.5300006866455
50.2963009,24.6399993896484
50.3119259,25.3400001525879
50.3275509,25.1900005340576
50.3431759,25.9599990844727
50.3588009,28.4799995422363
50.3744259,32.2200012207031
50.3900509,35.7799987792969
50.4056759,37.5499992370605
50.4213009,36.3899993896484
50.4369259,32.0299987792969
50.4525509,25.2199993133545
50.4681759,17.5
50.4838009,10.6099996566772
50.4994259,6.01000022888184
50.5150509,4.21999979019165
50.5306759,4.71999979019165
50.5463009,6.46000003814697
50.5619259,8.57999992370605
50.5775509,10.6199998855591
50.5931759,12.1199998855591
50.6088009,12.4200000762939
50.6244259,11.2200002670288
50.6400509,8.89000034332275
50.6556759,6.05000019073486
50.6713009,3.07999992370605
50.6869259,0.180000007152557
50.7025509,-2.3199999332428
50.7181759,-4.13000011444092
50.7338009,-5.23000001907349
50.7494259,-5.65000009536743
50.7650509,-5.07000017166138
50.7806759,-2.99000000953674
50.7963009,0.449999988079071
50.8119259,4.17000007629395
50.8275509,6.67999982833862
50.8431759,7.30999994277954
50.8588009,6.69999980926514
50.8744259,6.21000003814697
50.8900509,6.86999988555908
50.9056759,8.75
50.9213009,11.1999998092651
50.9369259,13.5100002288818
50.9525509,15.1300001144409
50.9681759,15.4899997711182
50.9838009,14.0500001907349
50.9994259,10.6599998474121
51.0150509,5.90000009536743
51.0306759,0.970000028610229
51.0463009,-2.79999995231628
51.0619259,-4.59000015258789
51.0775509,-4.40000009536743
51.0931759,-3.25
51.1088009,-2.66000008583069
51.1244259,-3.73000001907349
51.1400509,-6.23000001907349
51.1556759,-8.86999988555908
51.1713009,-10.6400003433228
51.1869259,-11.6400003433228
51.2025509,-12.5
51.2181759,-13.539999961853
51.2338009,-14.5699996948242
51.2494259,-15.1899995803833
51.2650509,-14.9700002670288
51.2806759,-13.3800001144409
51.2963009,-9.93000030517578
51.3119259,-4.53000020980835
51.3275509,2.23000001907349
51.3431759,9.31999969482422
51.3588009,15.5100002288818
51.3744259,19.5499992370605
51.3900509,20.4099998474121
51.4056759,17.9500007629395
51.4213009,13.3400001525879
51.4369259,8.5
51.4525509,5.07999992370605
51.4681759,3.76999998092651
51.4838009,4.30000019073486
51.4994259,5.48000001907349
51.5150509,5.69999980926514
51.5306759,3.86999988555908
51.5463009,0.319999992847443
51.5619259,-3.3199999332428
51.5775509,-5.34000015258789
51.5931759,-5.19000005722046
51.6088009,-3.58999991416931
51.6244259,-1.77999997138977
51.6400509,-0.980000019073486
51.6556759,-1.86000001430511
51.6713009,-4.21000003814697
51.6869259,-7.1399998664856
51.7025509,-9.72999954223633
51.7181759,-11.6800003051758
51.7338009,-13.289999961853
51.7494259,-14.8299999237061
51.7650509,-15.8699998855591
51.7806759,-15.3599996566772
51.7963009,-12.25
51.8119259,-6.42000007629395
51.8275509,0.899999976158142
51.8431759,7.69999980926514
51.8588009,12.1800003051758
51.8744259,13.6899995803833
51.8900509,12.960000038147
51.9056759,11.6099996566772
51.9213009,11.0500001907349
51.9369259,11.6400003433228
51.9525509,12.5799999237061
51.9681759,12.5699996948242
51.9838009,10.789999961853
51.9994259,7.48999977111816
52.0150509,3.8199999332428
52.0306759,0.980000019073486
52.0463009,-0.479999989271164
52.0619259,-0.720000028610229
52.0775509,-0.409999996423721
52.0931759,-0.330000013113022
52.1088009,-0.810000002384186
52.1244259,-1.62000000476837
52.1400509,-2.25
52.1556759,-2.32999992370605
52.1713009,-1.87999999523163
52.1869259,-1.51999998092651
52.2025509,-2.33999991416931
52.2181759,-5.09000015258789
52.2338009,-9.22999954223633
52.2494259,-12.9300003051758
52.2650509,-14.3299999237061
52.2806759,-12.8100004196167
52.2963009,-9.0
52.3119259,-3.88000011444092
52.3275509,1.75
52.3431759,7.3600001335144
52.3588009,12.4399995803833
52.3744259,16.6100006103516
52.3900509,19.5300006866455
52.4056759,20.9300003051758
52.4213009,20.6499996185303
52.4369259,18.8799991607666
52.4525509,16.0400009155273
52.4681759,12.539999961853
52.4838009,8.69999980926514
52.4994259,4.63000011444092
52.5150509,0.129999995231628
52.5306759,-5.15000009536743
52.5463009,-11.1300001144409
52.5619259,-16.8500003814697
52.5775509,-21.0499992370605
52.5931759,-23.0900001525879
52.6088009,-23.4699993133545
52.6244259,-23.4599990844727
52.6400509,-24.1000003814697
52.6556759,-25.5699996948242
52.6713009,-27.1599998474121
52.6869259,-27.8999996185303
52.7025509,-27.25
52.7181759,-25.5400009155273
52.7338009,-23.6800003051758
52.7494259,-22.5
52.7650509,-22.0799999237061
52.7806759,-21.6800003051758
52.7963009,-20.3199996948242
52.8119259,-17.2600002288818
52.8275509,-12.3100004196167
52.8431759,-6.0
52.8588009,0.529999971389771
52.8744259,5.78999996185303
52.8900509,8.59000015258789
52.9056759,8.92000007629395
52.9213009,7.92999982833862
52.9369259,7.1100001335144
52.9525509,7.21000003814697
52.9681759,7.86999988555908
52.9838009,7.94999980926514
52.9994259,6.28000020980835
53.0150509,2.5
53.0306759,-2.71000003814697
53.0463009,-8.07999992370605
53.0619259,-12.4700002670288
53.0775509,-15.4499998092651
53.0931759,-17.4200000762939
53.1088009,-18.9400005340576
53.1244259,-19.9200000762939
53.1400509,-19.6100006103516
53.1556759,-17.6499996185303
53.1713009,-14.8000001907349
53.1869259,-12.460000038147
53.2025509,-11.6000003814697
53.2181759,-12.210000038147
53.2338009,-13.8100004196167
53.2494259,-15.7399997711182
53.2650509,-17.1200008392334
53.2806759,-17.0
53.2963009,-15.1199998855591
53.3119259,-12.0200004577637
53.3275509,-8.5
53.3431759,-5.0
53.3588009,-1.54999995231628
53.3744259,1.91999995708466
53.3900509,5.51999998092651
53.4056759,9.23999977111816
53.4213009,12.8800001144409
53.4369259,15.9399995803833
53.4525509,17.6599998474121
53.4681759,17.2600002288818
53.4838009,14.4099998474121
53.4994259,9.8100004196167
53.5150509,5.01000022888184
53.5306759,1.5
53.5463009,-0.200000002980232
53.5619259,-0.660000026226044
53.5775509,-0.819999992847443
53.5931759,-1.45000004768372
53.6088009,-2.75
53.6244259,-4.34000015258789
53.6400509,-5.42999982833862
53.6556759,-5.42000007629395
53.6713009,-4.44999980926514
53.6869259,-3.36999988555908
53.7025509,-3.08999991416931
53.7181759,-3.80999994277954
53.7338009,-4.90999984741211
53.7494259,-5.51000022888184
53.7650509,-5.01999998092651
53.7806759,-3.53999996185303
53.7963009,-1.64999997615814
53.8119259,0.0900000035762787
53.8275509,1.82000005245209
53.8431759,4.07000017166138
53.8588009,7.13000011444092
53.8744259,10.6899995803833
53.8900509,14.1199998855591
53.9056759,17.0799999237061
53.9213009,19.5499992370605
53.9369259,21.5400009155273
53.9525509,22.9400005340576
53.9681759,23.7199993133545
53.9838009,24.1000003814697
53.9994259,24.4200000762939
54.0150509,24.6900005340576
54.0306759,24.4099998474121
54.0463009,23.0900001525879
54.0619259,20.6299991607666
54.0775509,17.2800006866455
54.0931759,13.5699996948242
54.1088009,10.2399997711182
54.1244259,7.80999994277954
54.1400509,6.30999994277954
54.1556759,5.55000019073486
54.1713009,5.53000020980835
54.1869259,6.34000015258789
54.2025509,7.73999977111816
54.2181759,9.02999973297119
54.2338009,9.26000022888184
54.2494259,7.82000017166138
54.2650509,5.03000020980835
54.2806759,2.1800000667572
54.2963009,0.490000009536743
54.3119259,0.170000001788139
54.3275509,0.699999988079071
54.3431759,1.67999994754791
54.3588009,3.09999990463257
54.3744259,5.0
54.3900509,7.1399998664856
54.4056759,9.14999961853027
54.4213009,10.7399997711182
54.4369259,11.9099998474121
54.4525509,12.8299999237061
54.4681759,13.6499996185303
54.4838009,14.4700002670288
54.4994259,15.1800003051758
54.5150509,15.25
54.5306759,13.9899997711182
54.5463009,11.1999998092651
54.5619259,7.40999984741211
54.5775509,3.36999988555908
54.5931759,-0.560000002384186
54.6088009,-4.23999977111816
54.6244259,-7.34999990463257
54.6400509,-9.38000011444092
54.6556759,-10.0699996948242
54.6713009,-9.64000034332275
54.6869259,-8.68000030517578
54.7025509,-7.8600001335144
54.7181759,-7.55999994277954
54.7338009,-7.78999996185303
54.7494259,-8.28999996185303
54.7650509,-8.81999969482422
54.7806759,-9.18000030517578
54.7963009,-9.36999988555908
54.8119259,-9.39000034332275
54.8275509,-9.02999973297119
54.8431759,-7.8600001335144
54.8588009,-5.75
54.8744259,-3.17000007629395
54.8900509,-0.839999973773956
54.9056759,0.920000016689301
54.9213009,2.66000008583069
54.9369259,5.38000011444092
54.9525509,9.52999973297119
54.9681759,14.3299999237061
54.9838009,18.0300006866455
54.9994259,18.7999992370605
55.0150509,15.5699996948242
55.0306759,8.77999973297119
55.0463009,0.610000014305115
55.0619259,-5.67999982833862
55.0775509,-7.63000011444092
55.0931759,-5.23000001907349
55.1088009,-0.939999997615814
55.1244259,1.99000000953674
55.1400509,1.62999999523163
55.1556759,-1.77999997138977
55.1713009,-6.53000020980835
55.1869259,-10.7200002670288
55.2025509,-13.1199998855591
55.2181759,-13.4899997711182
55.2338009,-12.4499998092651
55.2494259,-11.1000003814697
55.2650509,-10.460000038147
55.2806759,-10.8100004196167
55.2963009,-11.75
55.3119259,-12.8100004196167
55.3275509,-13.9099998474121
55.3431759,-15.0100002288818
55.3588009,-15.5600004196167
55.3744259,-14.5600004196167
55.3900509,-11.2299995422363
55.4056759,-5.59999990463257
55.4213009,1.21000003814697
55.4369259,7.48000001907349
55.4525509,11.6000003814697
55.4681759,12.9399995803833
55.4838009,12.039999961853
55.4994259,10.2399997711182
55.5150509,8.97999954223633
55.5306759,9.22999954223633
55.5463009,11.2299995422363
55.5619259,14.3699998855591
55.5775509,17.3299999237061
55.5931759,18.6200008392334
55.6088009,17.2999992370605
55.6244259,13.3500003814697
55.6400509,7.71000003814697
55.6556759,1.89999997615814
55.6713009,-2.60999989509583
55.6869259,-4.8600001335144
55.7025509,-4.48000001907349
55.7181759,-1.80999994277954
55.7338009,2.09999990463257
55.7494259,5.76999998092651
55.7650509,7.94999980926514
55.7806759,8.07999992370605
55.7963009,6.44999980926514
55.8119259,3.83999991416931
55.8275509,1.1599999666214
55.8431759,-0.959999978542328
55.8588009,-2.50999999046326
55.8744259,-3.85999989509583
55.8900509,-5.21000003814697
55.9056759,-6.30999994277954
55.9213009,-6.67000007629395
55.9369259,-6.03999996185303
55.9525509,-4.44000005722046
55.9681759,-2.08999991416931
55.9838009,0.529999971389771
55.9994259,2.92000007629395
56.0150509,4.82999992370605
56.0306759,6.34999990463257
56.0463009,7.51999998092651
56.0619259,7.98000001907349
56.0775509,7.28000020980835
56.0931759,5.25
56.1088009,2.05999994277954
56.1244259,-1.83000004291534
56.1400509,-5.67999982833862
56.1556759,-8.90999984741211
56.1713009,-11.5200004577637
56.1869259,-13.8800001144409
