Time(s),Value(%)
0.0912853,-9.89999961853027
0.1069103,-10.0500001907349
0.1225353,-10.1199998855591
0.1381603,-10.1999998092651
0.1537853,-10.4499998092651
0.1694103,-11.0600004196167
0.1850353,-12.1300001144409
0.2006603,-13.6300001144409
0.2162853,-15.5600004196167
0.2319103,-17.8999996185303
0.2475353,-20.5300006866455
0.2631603,-23.1599998474121
0.2787853,-25.3700008392334
0.2944103,-26.8400001525879
0.3100353,-27.4599990844727
0.3256603,-27.3999996185303
0.3412853,-26.9400005340576
0.3569103,-26.3099994659424
0.3725353,-25.6599998474121
0.3881603,-25.0400009155273
0.4037853,-24.4500007629395
0.4194103,-23.8600006103516
0.4350353,-23.25
0.4506603,-22.6100006103516
0.4662853,-21.9300003051758
0.4819103,-21.2099990844727
0.4975353,-20.4699993133545
0.5131603,-19.6599998474121
0.5287853,-18.7299995422363
0.5444103,-17.6200008392334
0.5600353,-16.3099994659424
0.5756603,-14.789999961853
0.5912853,-13.0100002288818
0.6069103,-10.789999961853
0.6225353,-7.90999984741211
0.6381603,-4.26999998092651
0.6537853,-0.0799999982118607
0.6694103,4.25
0.6850353,8.31999969482422
0.7006603,11.8999996185303
0.7162853,14.960000038147
0.7319103,17.5300006866455
0.7475353,19.6000003814697
0.7631603,21.1000003814697
0.7787853,22.0400009155273
0.7944103,22.5599994659424
0.8100353,22.7999992370605
0.8256603,22.9099998474121
0.8412853,22.9699993133545
0.8569103,22.9699993133545
0.8725353,22.7900009155273
0.8881603,22.2999992370605
0.9037853,21.4200000762939
0.9194103,20.1700000762939
0.9350353,18.7000007629395
0.9506603,17.1900005340576
0.9662853,15.7799997329712
0.9819103,14.5299997329712
0.9975353,13.4099998474121
1.0131603,12.3100004196167
1.0287853,11.1000003814697
1.0444103,9.67000007629395
1.0600353,7.96000003814697
1.0756603,5.88000011444092
1.0912853,3.21000003814697
1.1069103,-0.270000010728836
1.1225353,-4.53999996185303
1.1381603,-9.21000003814697
1.1537853,-13.6899995803833
1.1694103,-17.4500007629395
1.1850353,-20.2800006866455
1.2006603,-22.0900001525879
1.2162853,-22.8299999237061
1.2319103,-22.4799995422363
1.2475353,-21.1499996185303
1.2631603,-19.2099990844727
1.2787853,-17.0699996948242
1.2944103,-15.0500001907349
1.3100353,-13.3199996948242
1.3256603,-11.8800001144409
1.3412853,-10.6400003433228
1.3569103,-9.48999977111816
1.3725353,-8.34000015258789
1.3881603,-7.13000011444092
1.4037853,-5.90000009536743
1.4194103,-4.67999982833862
1.4350353,-3.5
1.4506603,-2.36999988555908
1.4662853,-1.26999998092651
1.4819103,-0.170000001788139
1.4975353,0.910000026226044
1.5131603,1.98000001907349
1.5287853,3
1.5444103,3.97000002861023
1.5600353,4.8899998664856
1.5756603,5.73999977111816
1.5912853,6.5
1.6069103,7.13000011444092
1.6225353,7.61999988555908
1.6381603,7.98000001907349
1.6537853,8.23999977111816
1.6694103,8.40999984741211
1.6850353,8.51000022888184
1.7006603,8.56999969482422
1.7162853,8.60999965667725
1.7319103,8.64999961853027
1.7475353,8.73999977111816
1.7631603,8.92000007629395
1.7787853,9.19999980926514
1.7944103,9.53999996185303
1.8100353,9.92000007629395
1.8256603,10.3199996948242
1.8412853,10.6999998092651
1.8569103,11.0299997329712
1.8725353,11.2600002288818
1.8881603,11.3500003814697
1.9037853,11.289999961853
1.9194103,11.1199998855591
1.9350353,10.8800001144409
1.9506603,10.5900001525879
1.9662853,10.2700004577637
1.9819103,9.89999961853027
1.9975353,9.52000045776367
2.0131603,9.14000034332275
2.0287853,8.78999996185303
2.0444103,8.48999977111816
2.0600353,8.22999954223633
2.0756603,8
2.0912853,7.76000022888184
2.1069103,7.48999977111816
2.1225353,7.15999984741211
2.1381603,6.76999998092651
2.1537853,6.32000017166138
2.1694103,5.78999996185303
2.1850353,5.19999980926514
2.2006603,4.57000017166138
2.2162853,3.95000004768372
2.2319103,3.38000011444092
2.2475353,2.86999988555908
2.2631603,2.40000009536743
2.2787853,1.96000003814697
2.2944103,1.52999997138977
2.3100353,1.0900000333786
2.3256603,0.660000026226044
2.3412853,0.219999998807907
2.3569103,-0.209999993443489
2.3725353,-0.680000007152557
2.3881603,-1.21000003814697
2.4037853,-1.79999995231628
2.4194103,-2.4300000667572
2.4350353,-3.05999994277954
2.4506603,-3.66000008583069
2.4662853,-4.17999982833862
2.4819103,-4.59999990463257
2.4975353,-4.8899998664856
2.5131603,-5.03999996185303
2.5287853,-5.09000015258789
2.5444103,-5.09000015258789
2.5600353,-5.07000017166138
2.5756603,-5.05999994277954
2.5912853,-5.03000020980835
2.6069103,-4.94999980926514
2.6225353,-4.80000019073486
2.6381603,-4.59999990463257
2.6537853,-4.3600001335144
2.6694103,-4.09999990463257
2.6850353,-3.83999991416931
2.7006603,-3.61999988555908
2.7162853,-3.5
2.7319103,-3.51999998092651
2.7475353,-3.71000003814697
2.7631603,-4.01000022888184
2.7787853,-4.3899998664856
2.7944103,-4.78999996185303
2.8100353,-5.19000005722046
2.8256603,-5.55999994277954
2.8412853,-5.90999984741211
2.8569103,-6.21999979019165
2.8725353,-6.46999979019165
2.8881603,-6.61999988555908
2.9037853,-6.67999982833862
2.9194103,-6.67000007629395
2.9350353,-6.65000009536743
2.9506603,-6.6399998664856
2.9662853,-6.67999982833862
2.9819103,-6.76000022888184
2.9975353,-6.90000009536743
3.0131603,-7.1100001335144
3.0287853,-7.38000011444092
3.0444103,-7.67999982833862
3.0600353,-7.98000001907349
3.0756603,-8.25
3.0912853,-8.46000003814697
3.1069103,-8.61999988555908
3.1225353,-8.76000022888184
3.1381603,-8.88000011444092
3.1537853,-9
3.1694103,-9.14000034332275
3.1850353,-9.27999973297119
3.2006603,-9.42000007629395
3.2162853,-9.52000045776367
3.2319103,-9.5600004196167
3.2475353,-9.55000019073486
3.2631603,-9.47999954223633
3.2787853,-9.38000011444092
3.2944103,-9.22999954223633
3.3100353,-9.05000019073486
3.3256603,-8.82999992370605
3.3412853,-8.59000015258789
3.3569103,-8.35999965667725
3.3725353,-8.15999984741211
3.3881603,-8
3.4037853,-7.8600001335144
3.4194103,-7.73000001907349
3.4350353,-7.59999990463257
3.4506603,-7.46999979019165
3.4662853,-7.34999990463257
3.4819103,-7.21999979019165
3.4975353,-7.07000017166138
3.5131603,-6.98999977111816
3.5287853,-6.86999988555908
3.5444103,-6.69999980926514
3.5600353,-6.53000020980835
3.5756603,-6.42000007629395
3.5912853,-6.40999984741211
3.6069103,-6.57999992370605
3.6225353,-6.92999982833862
3.6381603,-7.46000003814697
3.6537853,-8.18000030517578
3.6694103,-9.06999969482422
3.6850353,-10.1099996566772
3.7006603,-11.1800003051758
3.7162853,-12.1400003433228
3.7319103,-12.8900003433228
3.7475353,-13.4099998474121
3.7631603,-13.7399997711182
3.7787853,-13.8900003433228
3.7944103,-13.8400001525879
3.8100353,-13.6099996566772
3.8256603,-13.2200002670288
3.8412853,-12.75
3.8569103,-12.2600002288818
3.8725353,-11.8100004196167
3.8881603,-11.4099998474121
3.9037853,-11.0699996948242
3.9194103,-10.7600002288818
3.9350353,-10.4899997711182
3.9506603,-10.2600002288818
3.9662853,-10.0600004196167
3.9819103,-9.86999988555908
3.9975353,-9.60999965667725
4.0131603,-9.23999977111816
4.0287853,-8.77999973297119
4.0444103,-8.25
4.0600353,-7.71000003814697
4.0756603,-7.15000009536743
4.0912853,-6.57999992370605
4.1069103,-5.98000001907349
4.1225353,-5.36999988555908
4.1381603,-4.73000001907349
4.1537853,-4.05000019073486
4.1694103,-3.27999997138977
4.1850353,-2.44000005722046
4.2006603,-1.54999995231628
4.2162853,-0.649999976158142
4.2319103,0.219999998807907
4.2475353,1.04999995231628
4.2631603,1.82000005245209
4.2787853,2.53999996185303
4.2944103,3.21000003814697
4.3100353,3.86999988555908
4.3256603,4.55000019073486
4.3412853,5.26999998092651
4.3569103,6.01000022888184
4.3725353,6.73999977111816
4.3881603,7.42999982833862
4.4037853,8.0600004196167
4.4194103,8.67000007629395
4.4350353,9.27999973297119
4.4506603,9.93000030517578
4.4662853,10.6499996185303
4.4819103,11.4499998092651
4.4975353,12.4099998474121
4.5131603,13.9399995803833
4.5287853,15.710000038147
4.5444103,17.5900001525879
4.5600353,19.4200000762939
4.5756603,21.1000003814697
4.5912853,22.7600002288818
4.6069103,24.5599994659424
4.6225353,26.5400009155273
4.6381603,28.5400009155273
4.6537853,30.3400001525879
4.6694103,31.8099994659424
4.6850353,32.9700012207031
4.7006603,33.9900016784668
4.7162853,35.1300010681152
4.7319103,36.6300010681152
4.7475353,38.5400009155273
4.7631603,40.7299995422363
4.7787853,43.0299987792969
4.7944103,45.2999992370605
4.8100353,47.4000015258789
4.8256603,49.0699996948242
4.8412853,49.9000015258789
4.8569103,49.5099983215332
4.8725353,47.8400001525879
4.8881603,45.1800003051758
4.9037853,42
4.9194103,38.7000007629395
4.9350353,35.5099983215332
4.9506603,32.5200004577637
4.9662853,29.6900005340576
4.9819103,27
4.9975353,24.4300003051758
5.0131603,21.9899997711182
5.0287853,19.7099990844727
5.0444103,17.5900001525879
5.0600353,15.6300001144409
5.0756603,13.8199996948242
5.0912853,12.1599998474121
5.1069103,10.5799999237061
5.1225353,9.02999973297119
5.1381603,7.5
5.1537853,6.03000020980835
5.1694103,4.71000003814697
5.1850353,3.54999995231628
5.2006603,2.5
5.2162853,1.49000000953674
5.2319103,0.46000000834465
5.2475353,-0.600000023841858
5.2631603,-1.69000005722046
5.2787853,-2.80999994277954
5.2944103,-3.96000003814697
5.3100353,-5.15000009536743
5.3256603,-6.34000015258789
5.3412853,-7.51000022888184
5.3569103,-8.64000034332275
5.3725353,-9.71000003814697
5.3881603,-10.75
5.4037853,-11.789999961853
5.4194103,-12.8199996948242
5.4350353,-13.7600002288818
5.4506603,-14.5
5.4662853,-14.960000038147
5.4819103,-15.1899995803833
5.4975353,-15.2600002288818
5.5131603,-15.4300003051758
5.5287853,-15.6199998855591
5.5444103,-15.8400001525879
5.5600353,-16.0799999237061
5.5756603,-16.2999992370605
5.5912853,-16.4899997711182
5.6069103,-16.6200008392334
5.6225353,-16.6900005340576
5.6381603,-16.7000007629395
5.6537853,-16.6499996185303
5.6694103,-16.6299991607666
5.6850353,-16.7600002288818
5.7006603,-17.1700000762939
5.7162853,-17.9099998474121
5.7319103,-18.9300003051758
5.7475353,-20.1200008392334
5.7631603,-21.3700008392334
5.7787853,-22.6000003814697
5.7944103,-23.7999992370605
5.8100353,-24.9599990844727
5.8256603,-26.0400009155273
5.8412853,-27.0100002288818
5.8569103,-27.8199996948242
5.8725353,-28.4799995422363
5.8881603,-29.0200004577637
5.9037853,-29.4500007629395
5.9194103,-29.7800006866455
5.9350353,-29.9899997711182
5.9506603,-30.0900001525879
5.9662853,-30.0900001525879
5.9819103,-30.0200004577637
5.9975353,-29.8600006103516
6.0131603,-29.5900001525879
6.0287853,-29.2199993133545
6.0444103,-28.7700004577637
6.0600353,-28.2900009155273
6.0756603,-27.8299999237061
6.0912853,-27.4200000762939
6.1069103,-27.0300006866455
6.1225353,-26.6499996185303
6.1381603,-26.2299995422363
6.1537853,-25.6900005340576
6.1694103,-24.9899997711182
6.1850353,-24.1100006103516
6.2006603,-23.0599994659424
6.2162853,-21.9300003051758
6.2319103,-20.7700004577637
6.2475353,-19.6399993896484
6.2631603,-18.5900001525879
6.2787853,-17.6599998474121
6.2944103,-16.8899993896484
6.3100353,-16.2399997711182
6.3256603,-15.6800003051758
6.3412853,-15.1199998855591
6.3569103,-14.4899997711182
6.3725353,-13.7799997329712
6.3881603,-12.9899997711182
6.4037853,-12.1800003051758
6.4194103,-11.3599996566772
6.4350353,-10.5500001907349
6.4506603,-9.75
6.4662853,-8.94999980926514
6.4819103,-8.1899995803833
6.4975353,-7.46999979019165
6.5131603,-6.78999996185303
6.5287853,-6.1399998664856
6.5444103,-5.53000020980835
6.5600353,-5
6.5756603,-4.57000017166138
6.5912853,-4.23999977111816
6.6069103,-3.98000001907349
6.6225353,-3.69000005722046
6.6381603,-3.29999995231628
6.6537853,-2.78999996185303
6.6694103,-2.16000008583069
6.6850353,-1.44000005722046
6.7006603,-0.670000016689301
6.7162853,0.129999995231628
6.7319103,0.910000026226044
6.7475353,1.61000001430511
6.7631603,2.20000004768372
6.7787853,2.66000008583069
6.7944103,3.02999997138977
6.8100353,3.36999988555908
6.8256603,3.70000004768372
6.8412853,4.05999994277954
6.8569103,4.44000005722046
6.8725353,4.82999992370605
6.8881603,5.21999979019165
6.9037853,5.6100001335144
6.9194103,5.98999977111816
6.9350353,6.36999988555908
6.9506603,6.76000022888184
6.9662853,7.15999984741211
6.9819103,7.53999996185303
6.9975353,7.90000009536743
7.0131603,8.19999980926514
7.0287853,8.4399995803833
7.0444103,8.61999988555908
7.0600353,8.77000045776367
7.0756603,8.89999961853027
7.0912853,9.02999973297119
7.1069103,9.11999988555908
7.1225353,9.09000015258789
7.1381603,8.85000038146973
7.1537853,8.38000011444092
7.1694103,7.71000003814697
7.1850353,6.84999990463257
7.2006603,5.82000017166138
7.2162853,4.67000007629395
7.2319103,3.51999998092651
7.2475353,2.5699999332428
7.2631603,1.92999994754791
7.2787853,1.61000001430511
7.2944103,1.49000000953674
7.3100353,1.5
7.3256603,1.63999998569489
7.3412853,1.91999995708466
7.3569103,2.33999991416931
7.3725353,2.83999991416931
7.3881603,3.41000008583069
7.4037853,4.07999992370605
7.4194103,4.90999984741211
7.4350353,5.8899998664856
7.4506603,6.98999977111816
7.4662853,8.14999961853027
7.4819103,9.28999996185303
7.4975353,10.3699998855591
7.5131603,11.3100004196167
7.5287853,12.1499996185303
7.5444103,12.8999996185303
7.5600353,13.6000003814697
7.5756603,14.2700004577637
7.5912853,14.9300003051758
7.6069103,15.539999961853
7.6225353,16.1100006103516
7.6381603,16.6000003814697
7.6537853,17.0200004577637
7.6694103,17.3999996185303
7.6850353,17.75
7.7006603,18.0900001525879
7.7162853,18.4300003051758
7.7319103,18.75
7.7475353,19.0400009155273
7.7631603,19.2900009155273
7.7787853,19.5
7.7944103,19.6499996185303
7.8100353,19.7099990844727
7.8256603,19.7099990844727
7.8412853,19.6700000762939
7.8569103,19.6900005340576
7.8725353,19.7999992370605
7.8881603,19.9699993133545
7.9037853,20.1499996185303
7.9194103,20.25
7.9350353,20.2199993133545
7.9506603,20.0599994659424
7.9662853,19.7600002288818
7.9819103,19.3400001525879
7.9975353,18.8999996185303
8.0131603,18.5599994659424
8.0287853,18.3999996185303
8.0444103,18.4400005340576
8.0600353,18.6000003814697
8.0756603,18.7900009155273
8.0912853,18.9400005340576
8.1069103,19.0100002288818
8.1225353,19.0100002288818
8.1381603,18.9899997711182
8.1537853,18.9799995422363
8.1694103,18.9799995422363
8.1850353,19.0200004577637
8.2006603,19.1000003814697
8.2162853,19.2099990844727
8.2319103,19.2800006866455
8.2475353,19.2000007629395
8.2631603,18.9200000762939
8.2787853,18.4899997711182
8.2944103,18.0400009155273
8.3100353,17.6700000762939
8.3256603,17.3799991607666
8.3412853,17.1100006103516
8.3569103,16.7999992370605
8.3725353,16.4099998474121
8.3881603,15.8800001144409
8.4037853,15.1000003814697
8.4194103,13.9899997711182
8.4350353,12.5500001907349
8.4506603,10.8699998855591
8.4662853,9.09000015258789
8.4819103,7.32999992370605
8.4975353,5.63000011444092
8.5131603,4.03000020980835
8.5287853,2.60999989509583
8.5444103,1.4099999666214
8.5600353,0.419999986886978
8.5756603,-0.389999985694885
8.5912853,-1.07000005245209
8.6069103,-1.63999998569489
8.6225353,-2.14000010490417
8.6381603,-2.57999992370605
8.6537853,-3
8.6694103,-3.39000010490417
8.6850353,-3.75
8.7006603,-4.07999992370605
8.7162853,-4.3600001335144
8.7319103,-4.59999990463257
8.7475353,-4.80000019073486
8.7631603,-4.98000001907349
8.7787853,-5.13000011444092
8.7944103,-5.28000020980835
8.8100353,-5.44999980926514
8.8256603,-5.67000007629395
8.8412853,-5.94000005722046
8.8569103,-6.26999998092651
8.8725353,-6.6399998664856
8.8881603,-7.03999996185303
8.9037853,-7.44000005722046
8.9194103,-7.82000017166138
8.9350353,-8.17000007629395
8.9506603,-8.48999977111816
8.9662853,-8.77000045776367
8.9819103,-9.01000022888184
8.9975353,-9.21000003814697
9.0131603,-9.36999988555908
9.0287853,-9.5
9.0444103,-9.59000015258789
9.0600353,-9.63000011444092
9.0756603,-9.64999961853027
9.0912853,-9.64999961853027
9.1069103,-9.60999965667725
9.1225353,-9.53999996185303
9.1381603,-9.43000030517578
9.1537853,-9.27999973297119
9.1694103,-9.13000011444092
9.1850353,-8.98999977111816
9.2006603,-8.88000011444092
9.2162853,-8.80000019073486
9.2319103,-8.73999977111816
9.2475353,-8.69999980926514
9.2631603,-8.6899995803833
9.2787853,-8.71000003814697
9.2944103,-8.76000022888184
9.3100353,-8.84000015258789
9.3256603,-8.94999980926514
9.3412853,-9.09000015258789
9.3569103,-9.22999954223633
9.3725353,-9.36999988555908
9.3881603,-9.5
9.4037853,-9.57999992370605
9.4194103,-9.60999965667725
9.4350353,-9.5600004196167
9.4506603,-9.43000030517578
9.4662853,-9.23999977111816
9.4819103,-9.02000045776367
9.4975353,-8.80000019073486
9.5131603,-8.52999973297119
9.5287853,-8.32999992370605
9.5444103,-8.22999954223633
9.5600353,-8.19999980926514
9.5756603,-8.22000026702881
9.5912853,-8.22999954223633
9.6069103,-8.21000003814697
9.6225353,-8.11999988555908
9.6381603,-7.98000001907349
9.6537853,-7.80999994277954
9.6694103,-7.6100001335144
9.6850353,-7.42999982833862
9.7006603,-7.30999994277954
9.7162853,-7.28000020980835
9.7319103,-7.30000019073486
9.7475353,-7.34999990463257
9.7631603,-7.34999990463257
9.7787853,-7.28000020980835
9.7944103,-7.13000011444092
9.8100353,-6.8899998664856
9.8256603,-6.59000015258789
9.8412853,-6.25
9.8569103,-5.90999984741211
9.8725353,-5.63000011444092
9.8881603,-5.44000005722046
9.9037853,-5.32000017166138
9.9194103,-5.26000022888184
9.9350353,-5.19999980926514
9.9506603,-5.1100001335144
9.9662853,-4.92000007629395
9.9819103,-4.59999990463257
9.9975353,-4.15000009536743
10.0131603,-3.61999988555908
10.0287853,-3.0699999332428
10.0444103,-2.53999996185303
10.0600353,-2.05999994277954
10.0756603,-1.64999997615814
10.0912853,-1.32000005245209
10.1069103,-1.12000000476837
10.1225353,-1.04999995231628
10.1381603,-1.08000004291534
10.1537853,-1.20000004768372
10.1694103,-1.35000002384186
10.1850353,-1.49000000953674
10.2006603,-1.60000002384186
10.2162853,-1.67999994754791
10.2319103,-1.71000003814697
10.2475353,-1.64999997615814
10.2631603,-1.45000004768372
10.2787853,-1.12000000476837
10.2944103,-0.709999978542328
10.3100353,-0.28999999165535
10.3256603,0.0599999986588955
10.3412853,0.319999992847443
10.3569103,0.479999989271164
10.3725353,0.550000011920929
10.3881603,0.529999971389771
10.4037853,0.46000000834465
10.4194103,0.379999995231628
10.4350353,0.370000004768372
10.4506603,0.430000007152557
10.4662853,0.569999992847443
10.4819103,0.75
10.4975353,0.939999997615814
10.5131603,1.07000005245209
10.5287853,1.14999997615814
10.5444103,1.14999997615814
10.5600353,1.08000004291534
10.5756603,0.959999978542328
10.5912853,0.810000002384186
10.6069103,0.639999985694885
10.6225353,0.449999988079071
10.6381603,0.25
10.6537853,0.0700000002980232
10.6694103,-0.0500000007450581
10.6850353,-0.119999997317791
10.7006603,-0.0900000035762787
10.7162853,0.0299999993294477
10.7319103,0.239999994635582
10.7475353,0.5
10.7631603,0.769999980926514
10.7787853,1.02999997138977
10.7944103,1.23000001907349
10.8100353,1.37000000476837
10.8256603,1.41999995708466
10.8412853,1.39999997615814
10.8569103,1.32000005245209
10.8725353,1.23000001907349
10.8881603,1.14999997615814
10.9037853,1.0900000333786
10.9194103,1.05999994277954
10.9350353,1.07000005245209
10.9506603,1.12000000476837
10.9662853,1.22000002861023
10.9819103,1.3400000333786
10.9975353,1.45000004768372
11.0131603,1.53999996185303
11.0287853,1.5900000333786
11.0444103,1.61000001430511
11.0600353,1.5900000333786
11.0756603,1.53999996185303
11.0912853,1.48000001907349
11.1069103,1.41999995708466
11.1225353,1.37999999523163
11.1381603,1.38999998569489
11.1537853,1.45000004768372
11.1694103,1.58000004291534
11.1850353,1.76999998092651
11.2006603,1.98000001907349
11.2162853,2.17000007629395
11.2319103,2.3199999332428
11.2475353,2.41000008583069
11.2631603,2.40000009536743
11.2787853,2.28999996185303
11.2944103,2.09999990463257
11.3100353,1.85000002384186
11.3256603,1.58000004291534
11.3412853,1.32000005245209
11.3569103,1.10000002384186
11.3725353,0.939999997615814
11.3881603,0.850000023841858
11.4037853,0.819999992847443
11.4194103,0.829999983310699
11.4350353,0.870000004768372
11.4506603,0.910000026226044
11.4662853,0.949999988079071
11.4819103,0.990000009536743
11.4975353,1.02999997138977
11.5131603,1.04999995231628
11.5287853,1.07000005245209
11.5444103,1.05999994277954
11.5600353,1.02999997138977
11.5756603,0.970000028610229
11.5912853,0.889999985694885
11.6069103,0.800000011920929
11.6225353,0.720000028610229
11.6381603,0.649999976158142
11.6537853,0.589999973773956
11.6694103,0.529999971389771
11.6850353,0.490000009536743
11.7006603,0.449999988079071
11.7162853,0.449999988079071
11.7319103,0.509999990463257
11.7475353,0.620000004768372
11.7631603,0.779999971389771
11.7787853,0.959999978542328
11.7944103,1.17999994754791
11.8100353,1.47000002861023
11.8256603,1.85000002384186
11.8412853,2.30999994277954
11.8569103,2.76999998092651
11.8725353,3.20000004768372
11.8881603,3.53999996185303
11.9037853,3.80999994277954
11.9194103,4
11.9350353,4.09999990463257
11.9506603,4.09999990463257
11.9662853,3.98000001907349
11.9819103,3.80999994277954
11.9975353,3.64000010490417
12.0131603,3.53999996185303
12.0287853,3.52999997138977
12.0444103,3.57999992370605
12.0600353,3.65000009536743
12.0756603,3.70000004768372
12.0912853,3.72000002861023
12.1069103,3.70000004768372
12.1225353,3.65000009536743
12.1381603,3.55999994277954
12.1537853,3.46000003814697
12.1694103,3.36999988555908
12.1850353,3.30999994277954
12.2006603,3.28999996185303
12.2162853,3.26999998092651
12.2319103,3.24000000953674
12.2475353,3.17000007629395
12.2631603,3.0699999332428
12.2787853,2.9300000667572
12.2944103,2.75
12.3100353,2.51999998092651
12.3256603,2.25999999046326
12.3412853,1.98000001907349
12.3569103,1.74000000953674
12.3725353,1.60000002384186
12.3881603,1.60000002384186
12.4037853,1.73000001907349
12.4194103,1.97000002861023
12.4350353,2.25
12.4506603,2.51999998092651
12.4662853,2.76999998092651
12.4819103,2.94000005722046
12.4975353,2.98000001907349
12.5131603,2.83999991416931
12.5287853,2.5
12.5444103,1.96000003814697
12.5600353,1.30999994277954
12.5756603,0.600000023841858
12.5912853,-0.0799999982118607
12.6069103,-0.720000028610229
12.6225353,-1.30999994277954
12.6381603,-1.92999994754791
12.6537853,-2.72000002861023
12.6694103,-3.78999996185303
12.6850353,-5.17999982833862
12.7006603,-6.78000020980835
12.7162853,-8.47000026702881
12.7319103,-10.1199998855591
12.7475353,-11.6700000762939
12.7631603,-13
12.7787853,-13.960000038147
12.7944103,-14.4399995803833
12.8100353,-14.460000038147
12.8256603,-14.1599998474121
12.8412853,-13.6899995803833
12.8569103,-13.1899995803833
12.8725353,-12.710000038147
12.8881603,-12.25
12.9037853,-11.8400001525879
12.9194103,-11.6400003433228
12.9350353,-12.0299997329712
12.9506603,-13.3199996948242
12.9662853,-15.5500001907349
12.9819103,-18.3299999237061
12.9975353,-21.0400009155273
13.0131603,-23.1399993896484
13.0287853,-24.3700008392334
13.0444103,-24.6599998474121
13.0600353,-23.9099998474121
13.0756603,-21.8899993896484
13.0912853,-18.3999996185303
13.1069103,-13.5500001907349
13.1225353,-7.88000011444092
13.1381603,-2.19000005722046
13.1537853,2.91000008583069
13.1694103,7.19000005722046
13.1850353,10.7200002670288
13.2006603,13.6899995803833
13.2162853,16.1800003051758
13.2319103,18.1800003051758
13.2475353,19.6900005340576
13.2631603,20.8299999237061
13.2787853,21.8099994659424
13.2944103,22.8500003814697
13.3100353,24.0499992370605
13.3256603,25.25
13.3412853,26.1900005340576
13.3569103,26.5699996948242
13.3725353,26.3500003814697
13.3881603,25.6499996185303
13.4037853,24.6599998474121
13.4194103,23.5300006866455
13.4350353,22.3400001525879
13.4506603,21.1399993896484
13.4662853,19.9500007629395
13.4819103,18.7999992370605
13.4975353,17.7099990844727
13.5131603,17.0699996948242
13.5287853,16.4300003051758
13.5444103,15.8000001907349
13.5600353,15.2200002670288
13.5756603,14.6999998092651
13.5912853,14.25
13.6069103,13.8100004196167
13.6225353,13.3000001907349
13.6381603,12.710000038147
13.6537853,12.1099996566772
13.6694103,11.6199998855591
13.6850353,11.289999961853
13.7006603,11.0600004196167
13.7162853,10.8299999237061
13.7319103,10.539999961853
13.7475353,10.1400003433228
13.7631603,9.67000007629395
13.7787853,9.1899995803833
13.7944103,8.76000022888184
13.8100353,8.39999961853027
13.8256603,8.06999969482422
13.8412853,7.69000005722046
13.8569103,7.19999980926514
13.8725353,6.57000017166138
13.8881603,5.76000022888184
13.9037853,4.67000007629395
13.9194103,3.19000005722046
13.9350353,1.22000002861023
13.9506603,-1.20000004768372
13.9662853,-3.91000008583069
13.9819103,-6.63000011444092
13.9975353,-9.14999961853027
14.0131603,-11.3800001144409
14.0287853,-13.3299999237061
14.0444103,-15.0699996948242
14.0600353,-16.6800003051758
14.0756603,-18.1900005340576
14.0912853,-19.5599994659424
14.1069103,-20.6800003051758
14.1225353,-21.2900009155273
14.1381603,-21.1700000762939
14.1537853,-20.2900009155273
14.1694103,-18.8199996948242
14.1850353,-16.9500007629395
14.2006603,-14.6599998474121
14.2162853,-11.6999998092651
14.2319103,-7.92000007629395
14.2475353,-3.55999994277954
14.2631603,0.819999992847443
14.2787853,4.80000019073486
14.2944103,8.23999977111816
14.3100353,11.2299995422363
14.3256603,13.7399997711182
14.3412853,15.4899997711182
14.3569103,16.1000003814697
14.3725353,15.4399995803833
14.3881603,13.710000038147
14.4037853,11.2600002288818
14.4194103,8.47999954223633
14.4350353,5.65999984741211
14.4506603,2.96000003814697
14.4662853,0.430000007152557
14.4819103,-2.02999997138977
14.4975353,-4.71000003814697
14.5131603,-7.8899998664856
14.5287853,-11.5699996948242
14.5444103,-15.4399995803833
14.5600353,-18.9300003051758
14.5756603,-21.5599994659424
14.5912853,-23.1200008392334
14.6069103,-23.6800003051758
14.6225353,-23.3600006103516
14.6381603,-22.2299995422363
14.6537853,-20.4200000762939
14.6694103,-18.2299995422363
14.6850353,-16.2000007629395
14.7006603,-14.8100004196167
14.7162853,-14.2700004577637
14.7319103,-14.4399995803833
14.7475353,-14.9499998092651
14.7631603,-15.3599996566772
14.7787853,-15.289999961853
14.7944103,-14.539999961853
14.8100353,-13.1599998474121
14.8256603,-11.2700004577637
14.8412853,-8.9399995803833
14.8569103,-6.15999984741211
14.8725353,-3.02999997138977
14.8881603,0.159999996423721
14.9037853,2.98000001907349
14.9194103,5.19000005722046
14.9350353,7.03000020980835
14.9506603,8.94999980926514
14.9662853,11.1199998855591
14.9819103,13.3400001525879
14.9975353,15.2600002288818
15.0131603,16.6800003051758
15.0287853,17.6299991607666
15.0444103,18.3799991607666
15.0600353,19.3099994659424
15.0756603,20.75
15.0912853,22.7600002288818
15.1069103,25.1599998474121
15.1225353,27.7199993133545
15.1381603,30.2199993133545
15.1537853,32.4900016784668
15.1694103,34.1599998474121
15.1850353,34.6300010681152
15.2006603,33.2999992370605
15.2162853,29.9899997711182
15.2319103,25.0799999237061
15.2475353,19.2700004577637
15.2631603,13.2600002288818
15.2787853,7.55000019073486
15.2944103,2.33999991416931
15.3100353,-2.34999990463257
15.3256603,-6.61999988555908
15.3412853,-10.4899997711182
15.3569103,-13.9300003051758
15.3725353,-16.9500007629395
15.3881603,-19.5799999237061
15.4037853,-21.9099998474121
15.4194103,-24.0100002288818
15.4350353,-25.9300003051758
15.4506603,-27.6900005340576
15.4662853,-29.2800006866455
15.4819103,-30.7199993133545
15.4975353,-32.0299987792969
15.5131603,-33.310001373291
15.5287853,-34.5999984741211
15.5444103,-35.9300003051758
15.5600353,-37.25
15.5756603,-38.5
15.5912853,-39.6100006103516
15.6069103,-40.5400009155273
15.6225353,-41.2299995422363
15.6381603,-41.6599998474121
15.6537853,-41.8199996948242
15.6694103,-41.7200012207031
15.6850353,-41.2999992370605
15.7006603,-40.5200004577637
15.7162853,-39.3800010681152
15.7319103,-38
15.7475353,-36.5200004577637
15.7631603,-35.0900001525879
15.7787853,-33.8199996948242
15.7944103,-32.810001373291
15.8100353,-32.1300010681152
15.8256603,-31.8400001525879
15.8412853,-31.8799991607666
15.8569103,-32.0999984741211
15.8725353,-32.3699989318848
15.8881603,-32.7799987792969
15.9037853,-33.6800003051758
15.9194103,-35.4300003051758
15.9350353,-38.1399993896484
15.9506603,-41.5800018310547
15.9662853,-45.3899993896484
15.9819103,-49.2799987792969
15.9975353,-52.9700012207031
16.0131603,-56.1100006103516
16.0287853,-58.2099990844727
16.0444103,-58.8499984741211
16.0600353,-57.9900016784668
16.0756603,-55.939998626709
16.0912853,-53.1399993896484
16.1069103,-49.9799995422363
16.1225353,-46.7000007629395
16.1381603,-43.4300003051758
16.1537853,-40.2400016784668
16.1694103,-37.1399993896484
16.1850353,-34.0800018310547
16.2006603,-31.0400009155273
16.2162853,-28.0300006866455
16.2319103,-25.1299991607666
16.2475353,-22.5
16.2631603,-20.3099994659424
16.2787853,-18.5900001525879
16.2944103,-17.2199993133545
16.3100353,-16.0599994659424
16.3256603,-15.0299997329712
16.3412853,-14.1499996185303
16.3569103,-13.4399995803833
16.3725353,-12.789999961853
16.3881603,-12.0699996948242
16.4037853,-11.2799997329712
16.4194103,-10.5600004196167
16.4350353,-10.0299997329712
16.4506603,-9.63000011444092
16.4662853,-9.17000007629395
16.4819103,-8.36999988555908
16.4975353,-7.07999992370605
16.5131603,-5.1399998664856
16.5287853,-2.72000002861023
16.5444103,0.0799999982118607
16.5600353,3.14000010490417
16.5756603,6.23999977111816
16.5912853,9.27000045776367
16.6069103,12.4399995803833
16.6225353,16.2900009155273
16.6381603,21.3799991607666
16.6537853,27.7600002288818
16.6694103,34.8600006103516
16.6850353,41.8199996948242
16.7006603,47.8899993896484
16.7162853,52.6800003051758
16.7319103,56.0499992370605
16.7475353,57.7599983215332
16.7631603,57.6399993896484
16.7787853,55.8499984741211
16.7944103,53.0099983215332
16.8100353,49.9500007629395
16.8256603,47.3600006103516
16.8412853,45.5400009155273
16.8569103,44.4000015258789
16.8725353,43.6199989318848
16.8881603,42.8499984741211
16.9037853,41.8800010681152
16.9194103,40.6500015258789
16.9350353,39.189998626709
16.9506603,37.4799995422363
16.9662853,35.3300018310547
16.9819103,32.5499992370605
16.9975353,29.1100006103516
17.0131603,25.2900009155273
17.0287853,21.5100002288818
17.0444103,18.1599998474121
17.0600353,15.4399995803833
17.0756603,13.4799995422363
17.0912853,12.3999996185303
17.1069103,12.2700004577637
17.1225353,12.9700002670288
17.1381603,14.1899995803833
17.1537853,15.5100002288818
17.1694103,16.2700004577637
17.1850353,15.6400003433228
17.2006603,13
17.2162853,8.22999954223633
17.2319103,1.4099999666214
17.2475353,-7.75
17.2631603,-19.6100006103516
17.2787853,-33.8199996948242
17.2944103,-48.9900016784668
17.3100353,-62.9700012207031
17.3256603,-73.6500015258789
17.3412853,-79.5999984741211
17.3569103,-80.1600036621094
17.3725353,-75.2300033569336
17.3881603,-65.4300003051758
17.4037853,-52.1800003051758
17.4194103,-37.4000015258789
17.4350353,-22.7900009155273
17.4506603,-9.0600004196167
17.4662853,4.21000003814697
17.4819103,17.9300003051758
17.4975353,32.6800003051758
17.5131603,48.2200012207031
17.5287853,64.5999984741211
17.5444103,81.629997253418
17.5600353,98.7600021362305
17.5756603,114.660003662109
17.5912853,127.349998474121
17.6069103,135.139999389648
17.6225353,137.600006103516
17.6381603,135.559997558594
17.6537853,130.330001831055
17.6694103,123.160003662109
17.6850353,115.050003051758
17.7006603,106.75
17.7162853,98.5599975585938
17.7319103,89.7600021362305
17.7475353,78.5500030517578
17.7631603,63.2099990844727
17.7787853,43.4500007629395
17.7944103,20.5699996948242
17.8100353,-3.48000001907349
17.8256603,-27.1000003814697
17.8412853,-49.0999984741211
17.8569103,-68.1600036621094
17.8725353,-82.3600006103516
17.8881603,-89.9800033569336
17.9037853,-90.6800003051758
17.9194103,-85.7399978637695
17.9350353,-77.2699966430664
17.9506603,-67.3499984741211
17.9662853,-57.4500007629395
17.9819103,-48.3400001525879
17.9975353,-40.2599983215332
18.0131603,-33.5900001525879
18.0287853,-29.1399993896484
18.0444103,-27.7299995422363
18.0600353,-29.4200000762939
18.0756603,-33.4500007629395
18.0912853,-38.7299995422363
18.1069103,-44.3199996948242
18.1225353,-49.5900001525879
18.1381603,-53.9199981689453
18.1537853,-56.5
18.1694103,-56.6800003051758
18.1850353,-54.310001373291
18.2006603,-49.8400001525879
18.2162853,-43.9599990844727
18.2319103,-37.3600006103516
18.2475353,-30.5699996948242
18.2631603,-23.9699993133545
18.2787853,-17.7299995422363
18.2944103,-11.8199996948242
18.3100353,-6.05000019073486
18.3256603,-0.200000002980232
18.3412853,5.78000020980835
18.3569103,11.8000001907349
18.3725353,17.6499996185303
18.3881603,23.1700000762939
18.4037853,28.2299995422363
18.4194103,32.6800003051758
18.4350353,36.2999992370605
18.4506603,38.8800010681152
18.4662853,40.4500007629395
18.4819103,41.2799987792969
18.4975353,41.7099990844727
18.5131603,42.060001373291
18.5287853,42.4599990844727
18.5444103,42.9300003051758
18.5600353,43.4000015258789
18.5756603,43.7700004577637
18.5912853,43.9700012207031
18.6069103,43.9799995422363
18.6225353,43.7999992370605
18.6381603,43.4700012207031
18.6537853,42.9799995422363
18.6694103,42.2999992370605
18.6850353,41.439998626709
18.7006603,40.4700012207031
18.7162853,39.4500007629395
18.7319103,38.4799995422363
18.7475353,37.5699996948242
18.7631603,36.75
18.7787853,36.0299987792969
18.7944103,35.4500007629395
18.8100353,35
18.8256603,34.6500015258789
18.8412853,34.3499984741211
18.8569103,34.0400009155273
18.8725353,33.6800003051758
18.8881603,33.3899993896484
18.9037853,33.3699989318848
18.9194103,33.8300018310547
18.9350353,34.7799987792969
18.9506603,36.0200004577637
18.9662853,37.2799987792969
18.9819103,38.3400001525879
18.9975353,39.1300010681152
19.0131603,39.8499984741211
19.0287853,40.9000015258789
19.0444103,42.6699981689453
19.0600353,45.2900009155273
19.0756603,48.7299995422363
19.0912853,53.0400009155273
19.1069103,58.310001373291
19.1225353,64.3099975585938
19.1381603,70.3399963378906
19.1537853,75.3600006103516
19.1694103,78.6399993896484
19.1850353,80.2799987792969
19.2006603,80.870002746582
19.2162853,80.8000030517578
19.2319103,80.0299987792969
19.2475353,78.3899993896484
19.2631603,75.9300003051758
19.2787853,72.7799987792969
19.2944103,68.8399963378906
19.3100353,63.4799995422363
19.3256603,55.9900016784668
19.3412853,46.2299995422363
19.3569103,34.7099990844727
19.3725353,22.1200008392334
19.3881603,9.02999973297119
19.4037853,-4.01999998092651
19.4194103,-16.4200000762939
19.4350353,-27.2999992370605
19.4506603,-35.7099990844727
19.4662853,-40.810001373291
19.4819103,-42.2400016784668
19.4975353,-40.2700004577637
19.5131603,-35.6800003051758
19.5287853,-29.7999992370605
19.5444103,-23.7600002288818
19.5600353,-18.4099998474121
19.5756603,-14.4399995803833
19.5912853,-12.5799999237061
19.6069103,-13.3199996948242
19.6225353,-16.5
19.6381603,-21.2999992370605
19.6537853,-26.6299991607666
19.6694103,-31.6399993896484
19.6850353,-35.9199981689453
19.7006603,-39.4199981689453
19.7162853,-42.2299995422363
19.7319103,-44.5
19.7475353,-46.3899993896484
19.7631603,-48.0800018310547
19.7787853,-49.6699981689453
19.7944103,-51.2000007629395
19.8100353,-52.6699981689453
19.8256603,-54.0200004577637
19.8412853,-55.2400016784668
19.8569103,-56.3199996948242
19.8725353,-57.25
19.8881603,-58.0299987792969
19.9037853,-58.6800003051758
19.9194103,-59.2299995422363
19.9350353,-59.7299995422363
19.9506603,-60.2099990844727
19.9662853,-60.689998626709
19.9819103,-61.1300010681152
19.9975353,-61.4799995422363
20.0131603,-61.7200012207031
20.0287853,-61.8800010681152
20.0444103,-62
20.0600353,-62.1100006103516
20.0756603,-62.1599998474121
20.0912853,-62.1300010681152
20.1069103,-61.9900016784668
20.1225353,-61.7299995422363
20.1381603,-61.3300018310547
20.1537853,-60.7099990844727
20.1694103,-59.810001373291
20.1850353,-58.6399993896484
20.2006603,-57.2900009155273
20.2162853,-55.8699989318848
20.2319103,-54.5200004577637
20.2475353,-53.2900009155273
20.2631603,-52.189998626709
20.2787853,-51.2099990844727
20.2944103,-50.3699989318848
20.3100353,-49.689998626709
20.3256603,-49.1800003051758
20.3412853,-48.7599983215332
20.3569103,-48.3499984741211
20.3725353,-47.8499984741211
20.3881603,-47.2200012207031
20.4037853,-46.4900016784668
20.4194103,-45.6800003051758
20.4350353,-44.8199996948242
20.4506603,-43.939998626709
20.4662853,-43.0299987792969
20.4819103,-42.1199989318848
20.4975353,-41.2599983215332
20.5131603,-40.4700012207031
20.5287853,-39.7700004577637
20.5444103,-39.0900001525879
20.5600353,-38.3300018310547
20.5756603,-37.4099998474121
20.5912853,-36.2900009155273
20.6069103,-35.0099983215332
20.6225353,-33.5900001525879
20.6381603,-32.0699996948242
20.6537853,-30.4699993133545
20.6694103,-28.8199996948242
20.6850353,-27.1599998474121
20.7006603,-25.5200004577637
20.7162853,-23.8999996185303
20.7319103,-22.2900009155273
20.7475353,-20.6800003051758
20.7631603,-19.0799999237061
20.7787853,-17.5100002288818
20.7944103,-16
20.8100353,-14.5500001907349
20.8256603,-13.1599998474121
20.8412853,-11.8100004196167
20.8569103,-10.4899997711182
20.8725353,-9.14999961853027
20.8881603,-7.75
20.9037853,-6.30000019073486
20.9194103,-4.80000019073486
20.9350353,-3.32999992370605
20.9506603,-1.94000005722046
20.9662853,-0.680000007152557
20.9819103,0.439999997615814
20.9975353,1.46000003814697
21.0131603,2.36999988555908
21.0287853,3.17000007629395
21.0444103,3.91000008583069
21.0600353,4.63000011444092
21.0756603,5.3899998664856
21.0912853,6.21999979019165
21.1069103,7.09000015258789
21.1225353,7.98999977111816
21.1381603,8.90999984741211
21.1537853,9.85999965667725
21.1694103,10.8900003433228
21.1850353,12.0100002288818
21.2006603,13.1999998092651
21.2162853,14.4300003051758
21.2319103,15.6700000762939
21.2475353,16.9099998474121
21.2631603,18.0900001525879
21.2787853,19.1599998474121
21.2944103,20.0799999237061
21.3100353,20.8400001525879
21.3256603,21.4599990844727
21.3412853,21.9699993133545
21.3569103,22.3799991607666
21.3725353,22.7199993133545
21.3881603,23
21.4037853,23.25
21.4194103,23.4799995422363
21.4350353,23.7000007629395
21.4506603,23.8999996185303
21.4662853,24.0599994659424
21.4819103,24.2099990844727
21.4975353,24.3400001525879
21.5131603,24.4500007629395
21.5287853,24.5599994659424
21.5444103,24.6599998474121
21.5600353,24.7600002288818
21.5756603,24.8400001525879
21.5912853,24.8799991607666
21.6069103,24.8500003814697
21.6225353,24.7399997711182
21.6381603,24.5799999237061
21.6537853,24.3700008392334
21.6694103,24.1599998474121
21.6850353,23.9599990844727
21.7006603,23.7900009155273
21.7162853,23.6800003051758
21.7319103,23.6399993896484
21.7475353,23.6599998474121
21.7631603,23.6900005340576
21.7787853,23.6399993896484
21.7944103,23.4099998474121
21.8100353,23
21.8256603,22.4400005340576
21.8412853,21.8199996948242
21.8569103,21.1800003051758
21.8725353,20.5699996948242
21.8881603,20.0100002288818
21.9037853,19.5300006866455
21.9194103,19.1900005340576
21.9350353,19
21.9506603,18.9400005340576
21.9662853,18.9300003051758
21.9819103,18.9400005340576
21.9975353,18.9699993133545
22.0131603,19.0599994659424
22.0287853,19.2099990844727
22.0444103,19.4099998474121
22.0600353,19.6200008392334
22.0756603,19.8099994659424
22.0912853,19.9400005340576
22.1069103,20
22.1225353,19.9799995422363
22.1381603,19.8700008392334
22.1537853,19.6900005340576
22.1694103,19.4599990844727
22.1850353,19.2099990844727
22.2006603,18.9699993133545
22.2162853,18.7299995422363
22.2319103,18.5
22.2475353,18.2700004577637
22.2631603,18.0499992370605
22.2787853,17.8799991607666
22.2944103,17.7900009155273
22.3100353,17.7800006866455
22.3256603,17.8500003814697
22.3412853,17.9400005340576
22.3569103,18.0400009155273
22.3725353,18.1200008392334
22.3881603,18.1399993896484
22.4037853,18.0599994659424
22.4194103,17.8600006103516
22.4350353,17.5300006866455
22.4506603,17.1299991607666
22.4662853,16.7000007629395
22.4819103,16.25
22.4975353,15.8000001907349
22.5131603,15.3500003814697
22.5287853,14.8999996185303
22.5444103,14.4399995803833
22.5600353,13.9899997711182
22.5756603,13.5699996948242
22.5912853,13.1700000762939
22.6069103,12.8000001907349
22.6225353,12.4499998092651
22.6381603,12.1000003814697
22.6537853,11.7600002288818
22.6694103,11.3999996185303
22.6850353,10.9899997711182
22.7006603,10.5299997329712
22.7162853,10.0600004196167
22.7319103,9.61999988555908
22.7475353,9.23999977111816
22.7631603,8.93000030517578
22.7787853,8.63000011444092
22.7944103,8.32999992370605
22.8100353,7.98999977111816
22.8256603,7.6399998664856
22.8412853,7.28000020980835
22.8569103,6.92999982833862
22.8725353,6.6100001335144
22.8881603,6.34000015258789
22.9037853,6.11999988555908
22.9194103,5.98999977111816
22.9350353,5.94000005722046
22.9506603,5.90999984741211
22.9662853,5.80999994277954
22.9819103,5.59000015258789
22.9975353,5.25
23.0131603,4.84000015258789
23.0287853,4.40000009536743
23.0444103,3.94000005722046
23.0600353,3.44000005722046
23.0756603,2.91000008583069
23.0912853,2.36999988555908
23.1069103,1.79999995231628
23.1225353,1.20000004768372
23.1381603,0.529999971389771
23.1537853,-0.209999993443489
23.1694103,-1.03999996185303
23.1850353,-1.89999997615814
23.2006603,-2.75999999046326
23.2162853,-3.58999991416931
23.2319103,-4.38000011444092
23.2475353,-5.11999988555908
23.2631603,-5.78999996185303
23.2787853,-6.3600001335144
23.2944103,-6.80000019073486
23.3100353,-7.09999990463257
23.3256603,-7.30999994277954
23.3412853,-7.46999979019165
23.3569103,-7.65000009536743
23.3725353,-7.84999990463257
23.3881603,-8.10999965667725
23.4037853,-8.43000030517578
23.4194103,-8.82999992370605
23.4350353,-9.32999992370605
23.4506603,-9.92000007629395
23.4662853,-10.5600004196167
23.4819103,-11.1800003051758
23.4975353,-11.7600002288818
23.5131603,-12.3199996948242
23.5287853,-12.8199996948242
23.5444103,-13.2799997329712
23.5600353,-13.7299995422363
23.5756603,-14.1700000762939
23.5912853,-14.6300001144409
23.6069103,-15.1000003814697
23.6225353,-15.5799999237061
23.6381603,-16.0900001525879
23.6537853,-16.6000003814697
23.6694103,-17.0900001525879
23.6850353,-17.5
23.7006603,-17.7900009155273
23.7162853,-17.9300003051758
23.7319103,-17.9500007629395
23.7475353,-17.8700008392334
23.7631603,-17.7099990844727
23.7787853,-17.5
23.7944103,-17.25
23.8100353,-16.9799995422363
23.8256603,-16.6700000762939
23.8412853,-16.2900009155273
23.8569103,-15.8000001907349
23.8725353,-15.1899995803833
23.8881603,-14.5
23.9037853,-13.7700004577637
23.9194103,-13.0699996948242
23.9350353,-12.4200000762939
23.9506603,-11.8000001907349
23.9662853,-11.1800003051758
23.9819103,-10.5200004577637
23.9975353,-9.81999969482422
24.0131603,-9.09000015258789
24.0287853,-8.39999961853027
24.0444103,-7.76999998092651
24.0600353,-7.25
24.0756603,-6.84000015258789
24.0912853,-6.59999990463257
24.1069103,-6.55000019073486
24.1225353,-6.69999980926514
24.1381603,-7
24.1537853,-7.34999990463257
24.1694103,-7.65000009536743
24.1850353,-7.86999988555908
24.2006603,-7.98999977111816
24.2162853,-8.06999969482422
24.2319103,-8.10999965667725
24.2475353,-8.13000011444092
24.2631603,-8.14000034332275
24.2787853,-8.14000034332275
24.2944103,-8.15999984741211
24.3100353,-8.21000003814697
24.3256603,-8.27000045776367
24.3412853,-8.31999969482422
24.3569103,-8.35000038146973
24.3725353,-8.35999965667725
24.3881603,-8.38000011444092
24.4037853,-8.48999977111816
24.4194103,-8.76000022888184
24.4350353,-9.21000003814697
24.4506603,-9.80000019073486
24.4662853,-10.4700002670288
24.4819103,-11.1899995803833
24.4975353,-11.8999996185303
24.5131603,-12.9099998474121
24.5287853,-13.6999998092651
24.5444103,-14.1599998474121
24.5600353,-14.2299995422363
24.5756603,-13.9700002670288
24.5912853,-13.460000038147
24.6069103,-12.7700004577637
24.6225353,-11.9899997711182
24.6381603,-11.1599998474121
24.6537853,-10.3100004196167
24.6694103,-9.46000003814697
24.6850353,-8.63000011444092
24.7006603,-7.82000017166138
24.7162853,-7.01999998092651
24.7319103,-6.23999977111816
24.7475353,-5.48999977111816
24.7631603,-4.76999998092651
24.7787853,-4.09999990463257
24.7944103,-3.47000002861023
24.8100353,-2.84999990463257
24.8256603,-2.25
24.8412853,-1.63999998569489
24.8569103,-1.02999997138977
24.8725353,-0.409999996423721
24.8881603,0.230000004172325
24.9037853,0.889999985694885
24.9194103,1.57000005245209
24.9350353,2.24000000953674
24.9506603,2.88000011444092
24.9662853,3.48000001907349
24.9819103,4.03000020980835
24.9975353,4.53999996185303
25.0131603,5
25.0287853,5.42000007629395
25.0444103,5.76999998092651
25.0600353,6.07000017166138
25.0756603,6.32999992370605
25.0912853,6.57000017166138
25.1069103,6.84000015258789
25.1225353,7.1399998664856
25.1381603,7.48999977111816
25.1537853,7.90000009536743
25.1694103,8.39000034332275
25.1850353,8.98999977111816
25.2006603,9.69999980926514
25.2162853,10.5100002288818
25.2319103,11.3599996566772
25.2475353,12.1800003051758
25.2631603,12.960000038147
25.2787853,13.7600002288818
25.2944103,14.6300001144409
25.3100353,15.5799999237061
25.3256603,16.5100002288818
25.3412853,17.3400001525879
25.3569103,18.0100002288818
25.3725353,18.5400009155273
25.3881603,18.9599990844727
25.4037853,19.3099994659424
25.4194103,19.6100006103516
25.4350353,19.8799991607666
25.4506603,20.1399993896484
25.4662853,20.4300003051758
25.4819103,20.7999992370605
25.4975353,21.25
25.5131603,21.9500007629395
25.5287853,22.5200004577637
25.5444103,22.8600006103516
25.5600353,23
25.5756603,23.0300006866455
25.5912853,23.0100002288818
25.6069103,22.9699993133545
25.6225353,22.8500003814697
25.6381603,22.6299991607666
25.6537853,22.3299999237061
25.6694103,22
25.6850353,21.7399997711182
25.7006603,21.6399993896484
25.7162853,21.7099990844727
25.7319103,21.8999996185303
25.7475353,22.1200008392334
25.7631603,22.2800006866455
25.7787853,22.3400001525879
25.7944103,22.2299995422363
25.8100353,21.8299999237061
25.8256603,21.1200008392334
25.8412853,20.2600002288818
25.8569103,19.5100002288818
25.8725353,19.0599994659424
25.8881603,18.9400005340576
25.9037853,19.0100002288818
25.9194103,19.1000003814697
25.9350353,19.0900001525879
25.9506603,18.9099998474121
25.9662853,18.5499992370605
25.9819103,18.0300006866455
25.9975353,17.3999996185303
26.0131603,16.7700004577637
26.0287853,16.3099994659424
26.0444103,16.1599998474121
26.0600353,16.3199996948242
26.0756603,16.6200008392334
26.0912853,16.7999992370605
26.1069103,16.6399993896484
26.1225353,16.1900005340576
26.1381603,15.6000003814697
26.1537853,14.9700002670288
26.1694103,14.25
26.1850353,13.3900003433228
26.2006603,12.3599996566772
26.2162853,11.210000038147
26.2319103,10.0200004577637
26.2475353,8.88000011444092
26.2631603,7.84999990463257
26.2787853,6.90999984741211
26.2944103,6.01999998092651
26.3100353,5.07999992370605
26.3256603,4.03000020980835
26.3412853,2.82999992370605
26.3569103,1.45000004768372
26.3725353,-0.150000005960464
26.3881603,-2.0699999332428
26.4037853,-4.28999996185303
26.4194103,-6.67999982833862
26.4350353,-9.02999973297119
26.4506603,-11.1599998474121
26.4662853,-12.9799995422363
26.4819103,-14.5299997329712
26.4975353,-15.8800001144409
26.5131603,-17.3099994659424
26.5287853,-18.7600002288818
26.5444103,-20.25
26.5600353,-21.7900009155273
26.5756603,-23.4099998474121
26.5912853,-25.2399997711182
26.6069103,-27.3999996185303
26.6225353,-29.8999996185303
26.6381603,-32.5800018310547
26.6537853,-35.189998626709
26.6694103,-37.5099983215332
26.6850353,-39.3899993896484
26.7006603,-40.7599983215332
26.7162853,-41.5299987792969
26.7319103,-41.6599998474121
26.7475353,-41.2299995422363
26.7631603,-40.4099998474121
26.7787853,-39.4599990844727
26.7944103,-38.6599998474121
26.8100353,-38.310001373291
26.8256603,-38.5999984741211
26.8412853,-39.5299987792969
26.8569103,-40.8499984741211
26.8725353,-42.2900009155273
26.8881603,-43.6399993896484
26.9037853,-44.7700004577637
26.9194103,-45.5499992370605
26.9350353,-45.8499984741211
26.9506603,-45.6100006103516
26.9662853,-45.0200004577637
26.9819103,-44.3800010681152
26.9975353,-43.9500007629395
27.0131603,-43.75
27.0287853,-43.6699981689453
27.0444103,-43.5499992370605
27.0600353,-43.3199996948242
27.0756603,-43.1199989318848
27.0912853,-43.3499984741211
27.1069103,-44.3899993896484
27.1225353,-46.3899993896484
27.1381603,-49.4300003051758
27.1537853,-53.7799987792969
27.1694103,-59.7000007629395
27.1850353,-66.9800033569336
27.2006603,-74.7399978637695
27.2162853,-81.6500015258789
27.2319103,-86.75
27.2475353,-90.0100021362305
27.2631603,-91.9000015258789
27.2787853,-92.620002746582
27.2944103,-91.9899978637695
27.3100353,-89.9000015258789
27.3256603,-86.5800018310547
27.3412853,-82.5199966430664
27.3569103,-78.0800018310547
27.3725353,-73.2200012207031
27.3881603,-67.7200012207031
27.4037853,-61.5800018310547
27.4194103,-55.060001373291
27.4350353,-48.5800018310547
27.4506603,-42.4000015258789
27.4662853,-36.6300010681152
27.4819103,-31.2199993133545
27.4975353,-26.0400009155273
27.5131603,-20.7000007629395
27.5287853,-15.3400001525879
27.5444103,-9.81999969482422
27.5600353,-4.15000009536743
27.5756603,1.54999995231628
27.5912853,7.17999982833862
27.6069103,12.6499996185303
27.6225353,17.8899993896484
27.6381603,22.8500003814697
27.6537853,27.4500007629395
27.6694103,31.6599998474121
27.6850353,35.5299987792969
27.7006603,39.1300010681152
27.7162853,42.4599990844727
27.7319103,45.4900016784668
27.7475353,48.1800003051758
27.7631603,50.5299987792969
27.7787853,52.5999984741211
27.7944103,54.4500007629395
27.8100353,56.0800018310547
27.8256603,57.4799995422363
27.8412853,58.6500015258789
27.8569103,59.5800018310547
27.8725353,60.2700004577637
27.8881603,60.7000007629395
27.9037853,60.9099998474121
27.9194103,60.939998626709
27.9350353,60.8400001525879
27.9506603,60.6300010681152
27.9662853,60.2700004577637
27.9819103,59.7700004577637
27.9975353,59.1699981689453
28.0131603,58.5699996948242
28.0287853,58.0400009155273
28.0444103,57.5900001525879
28.0600353,57.189998626709
28.0756603,56.7900009155273
28.0912853,56.3199996948242
28.1069103,55.7900009155273
28.1225353,55.189998626709
28.1381603,54.5299987792969
28.1537853,53.7900009155273
28.1694103,52.9599990844727
28.1850353,52.0400009155273
28.2006603,51.0800018310547
28.2162853,50.1599998474121
28.2319103,49.4000015258789
28.2475353,48.8400001525879
28.2631603,48.4900016784668
28.2787853,48.3300018310547
28.2944103,48.2599983215332
28.3100353,48.2099990844727
28.3256603,48.1100006103516
28.3412853,47.9300003051758
28.3569103,47.6399993896484
28.3725353,47.2700004577637
28.3881603,46.8400001525879
28.4037853,46.3699989318848
28.4194103,45.8899993896484
28.4350353,45.439998626709
28.4506603,45.0499992370605
28.4662853,44.7299995422363
28.4819103,44.4199981689453
28.4975353,44
28.5131603,43.0800018310547
28.5287853,41.9799995422363
28.5444103,40.7299995422363
28.5600353,39.3600006103516
28.5756603,37.8899993896484
28.5912853,36.3400001525879
28.6069103,34.7299995422363
28.6225353,33.1300010681152
28.6381603,31.5900001525879
28.6537853,30.1900005340576
28.6694103,28.9699993133545
28.6850353,27.9400005340576
28.7006603,27.0400009155273
28.7162853,26.2000007629395
28.7319103,25.3600006103516
28.7475353,24.4899997711182
28.7631603,23.5400009155273
28.7787853,22.4599990844727
28.7944103,21.2399997711182
28.8100353,19.9300003051758
28.8256603,18.6599998474121
28.8412853,17.4799995422363
28.8569103,16.4200000762939
28.8725353,15.4200000762939
28.8881603,14.4399995803833
28.9037853,13.4200000762939
28.9194103,12.3199996948242
28.9350353,11.1199998855591
28.9506603,9.77000045776367
28.9662853,8.30000019073486
28.9819103,6.78000020980835
28.9975353,5.32000017166138
29.0131603,4.01000022888184
29.0287853,2.88000011444092
29.0444103,1.88999998569489
29.0600353,0.959999978542328
29.0756603,0.0199999995529652
29.0912853,-0.939999997615814
29.1069103,-1.96000003814697
29.1225353,-3.03999996185303
29.1381603,-4.19999980926514
29.1537853,-5.42999982833862
29.1694103,-6.69999980926514
29.1850353,-7.96999979019165
29.2006603,-9.17000007629395
29.2162853,-10.25
29.2319103,-11.1499996185303
29.2475353,-11.8900003433228
29.2631603,-12.5
29.2787853,-13.0100002288818
29.2944103,-13.4300003051758
29.3100353,-13.789999961853
29.3256603,-14.1400003433228
29.3412853,-14.539999961853
29.3569103,-15
29.3725353,-15.3999996185303
29.3881603,-15.5900001525879
29.4037853,-15.5299997329712
29.4194103,-15.1999998092651
29.4350353,-14.5799999237061
29.4506603,-13.6499996185303
29.4662853,-12.4399995803833
29.4819103,-11.1499996185303
29.4975353,-10.0299997329712
29.5131603,-9.15999984741211
29.5287853,-8.60000038146973
29.5444103,-8.22000026702881
29.5600353,-7.94000005722046
29.5756603,-7.82999992370605
29.5912853,-7.96999979019165
29.6069103,-8.35000038146973
29.6225353,-8.89000034332275
29.6381603,-9.40999984741211
29.6537853,-9.71000003814697
29.6694103,-9.65999984741211
29.6850353,-9.22999954223633
29.7006603,-8.4399995803833
29.7162853,-7.26999998092651
29.7319103,-5.67999982833862
29.7475353,-3.74000000953674
29.7631603,-1.74000000953674
29.7787853,-0.109999999403954
29.7944103,0.800000011920929
29.8100353,0.980000019073486
29.8256603,0.620000004768372
29.8412853,-0.119999997317791
29.8569103,-1.21000003814697
29.8725353,-2.61999988555908
29.8881603,-4.23999977111816
29.9037853,-5.96000003814697
29.9194103,-7.65000009536743
29.9350353,-9.27999973297119
29.9506603,-10.8400001525879
29.9662853,-12.3500003814697
29.9819103,-13.8500003814697
29.9975353,-15.3100004196167
30.0131603,-16.7399997711182
30.0287853,-18.1200008392334
30.0444103,-19.4599990844727
30.0600353,-20.8099994659424
30.0756603,-22.2399997711182
30.0912853,-23.75
30.1069103,-25.3199996948242
30.1225353,-26.8799991607666
30.1381603,-28.3299999237061
30.1537853,-29.6299991607666
30.1694103,-30.7800006866455
30.1850353,-31.7900009155273
30.2006603,-32.7000007629395
30.2162853,-33.5099983215332
30.2319103,-34.2400016784668
30.2475353,-34.8899993896484
30.2631603,-35.4700012207031
30.2787853,-36
30.2944103,-36.5299987792969
30.3100353,-37.0499992370605
30.3256603,-37.5400009155273
30.3412853,-37.9799995422363
30.3569103,-38.3400001525879
30.3725353,-38.6399993896484
30.3881603,-38.9099998474121
30.4037853,-39.1599998474121
30.4194103,-39.3400001525879
30.4350353,-39.4300003051758
30.4506603,-39.4000015258789
30.4662853,-39.2599983215332
30.4819103,-38.9900016784668
30.4975353,-38.5299987792969
30.5131603,-37.6300010681152
30.5287853,-36.4900016784668
30.5444103,-35.189998626709
30.5600353,-33.8199996948242
30.5756603,-32.4500007629395
30.5912853,-31.1399993896484
30.6069103,-29.9099998474121
30.6225353,-28.7900009155273
30.6381603,-27.7999992370605
30.6537853,-26.8999996185303
30.6694103,-26.0400009155273
30.6850353,-25.1700000762939
30.7006603,-24.2700004577637
30.7162853,-23.3600006103516
30.7319103,-22.4400005340576
30.7475353,-21.5400009155273
30.7631603,-20.6599998474121
30.7787853,-19.7900009155273
30.7944103,-18.9400005340576
30.8100353,-18.1000003814697
30.8256603,-17.2700004577637
30.8412853,-16.4599990844727
30.8569103,-15.6599998474121
30.8725353,-14.8699998855591
30.8881603,-14.1199998855591
30.9037853,-13.3999996185303
30.9194103,-12.7299995422363
30.9350353,-12.1300001144409
30.9506603,-11.5699996948242
30.9662853,-11.0299997329712
30.9819103,-10.4899997711182
30.9975353,-9.93000030517578
31.0131603,-9.32999992370605
31.0287853,-8.71000003814697
31.0444103,-8.09000015258789
31.0600353,-7.5
31.0756603,-6.96999979019165
31.0912853,-6.48000001907349
31.1069103,-6.05000019073486
31.1225353,-5.67000007629395
31.1381603,-5.34000015258789
31.1537853,-5.07000017166138
31.1694103,-4.80999994277954
31.1850353,-4.51000022888184
31.2006603,-4.1399998664856
31.2162853,-3.74000000953674
31.2319103,-3.33999991416931
31.2475353,-2.96000003814697
31.2631603,-2.58999991416931
31.2787853,-2.1800000667572
31.2944103,-1.71000003814697
31.3100353,-1.17999994754791
31.3256603,-0.569999992847443
31.3412853,0.150000005960464
31.3569103,1.08000004291534
31.3725353,2.19000005722046
31.3881603,3.4300000667572
31.4037853,4.69000005722046
31.4194103,5.86999988555908
31.4350353,6.92999982833862
31.4506603,7.8600001335144
31.4662853,8.64999961853027
31.4819103,9.30000019073486
31.4975353,9.8100004196167
31.5131603,10.1899995803833
31.5287853,10.5
31.5444103,10.8000001907349
31.5600353,11.1199998855591
31.5756603,11.4700002670288
31.5912853,11.8400001525879
31.6069103,12.1899995803833
31.6225353,12.460000038147
31.6381603,12.6099996566772
31.6537853,12.6499996185303
31.6694103,12.6099996566772
31.6850353,12.5799999237061
31.7006603,12.6199998855591
31.7162853,12.7600002288818
31.7319103,13
31.7475353,13.3699998855591
31.7631603,13.8900003433228
31.7787853,14.5699996948242
31.7944103,15.3699998855591
31.8100353,16.2000007629395
31.8256603,16.9799995422363
31.8412853,17.6499996185303
31.8569103,18.2199993133545
31.8725353,18.7199993133545
31.8881603,19.1599998474121
31.9037853,19.5400009155273
31.9194103,19.8199996948242
31.9350353,19.9400005340576
31.9506603,19.8899993896484
31.9662853,19.6599998474121
31.9819103,19.3199996948242
31.9975353,18.9400005340576
32.0131603,18.5699996948242
32.0287853,18.25
32.0444103,18.0200004577637
32.0600353,17.9500007629395
32.0756603,18.0900001525879
32.0912853,18.4400005340576
32.1069103,18.9500007629395
32.1225353,19.5499992370605
32.1381603,20.1800003051758
32.1537853,20.7900009155273
32.1694103,21.3500003814697
32.1850353,21.7800006866455
32.2006603,22
32.2162853,21.9300003051758
32.2319103,21.5100002288818
32.2475353,20.75
32.2631603,19.75
32.2787853,18.6299991607666
32.2944103,17.5100002288818
32.3100353,16.4599990844727
32.3256603,15.4099998474121
32.3412853,14.1800003051758
32.3569103,12.6000003814697
32.3725353,10.6400003433228
32.3881603,8.42000007629395
32.4037853,6.17000007629395
32.4194103,4.05999994277954
32.4350353,2.23000001907349
32.4506603,0.779999971389771
32.4662853,-0.0399999991059303
32.4819103,0.0299999993294477
32.4975353,1.30999994277954
32.5131603,3.86999988555908
32.5287853,7.44000005722046
32.5444103,11.4799995422363
32.5600353,15.4799995422363
32.5756603,19.0900001525879
32.5912853,22.2000007629395
32.6069103,24.8799991607666
32.6225353,27.2800006866455
32.6381603,29.4899997711182
32.6537853,31.5799999237061
32.6694103,33.6599998474121
32.6850353,35.9300003051758
32.7006603,38.5499992370605
32.7162853,41.5099983215332
32.7319103,44.4799995422363
32.7475353,46.9000015258789
32.7631603,48.310001373291
32.7787853,48.5999984741211
32.7944103,48
32.8100353,46.7900009155273
32.8256603,45.1100006103516
32.8412853,43.0900001525879
32.8569103,40.8499984741211
32.8725353,38.4799995422363
32.8881603,36
32.9037853,33.2299995422363
32.9194103,29.9799995422363
32.9350353,26.2099990844727
32.9506603,22.1000003814697
32.9662853,17.9599990844727
32.9819103,14.0600004196167
32.9975353,10.5500001907349
33.0131603,7.5
33.0287853,4.96999979019165
33.0444103,3.01999998092651
33.0600353,1.62999999523163
33.0756603,0.649999976158142
33.0912853,-0.109999999403954
33.1069103,-0.870000004768372
33.1225353,-1.74000000953674
33.1381603,-2.72000002861023
33.1537853,-3.76999998092651
33.1694103,-4.82999992370605
33.1850353,-5.94000005722046
33.2006603,-7.11999988555908
33.2162853,-8.39999961853027
33.2319103,-9.69999980926514
33.2475353,-10.8999996185303
33.2631603,-11.8800001144409
33.2787853,-12.5900001525879
33.2944103,-13.0699996948242
33.3100353,-13.3900003433228
33.3256603,-13.6099996566772
33.3412853,-13.789999961853
33.3569103,-14.0200004577637
33.3725353,-14.3599996566772
33.3881603,-14.8900003433228
33.4037853,-15.5900001525879
33.4194103,-16.3999996185303
33.4350353,-17.2299995422363
33.4506603,-18.0699996948242
33.4662853,-19.0100002288818
33.4819103,-20.1499996185303
33.4975353,-21.5300006866455
33.5131603,-23
33.5287853,-24.4200000762939
33.5444103,-25.6399993896484
33.5600353,-26.5699996948242
33.5756603,-27.1800003051758
33.5912853,-27.4300003051758
33.6069103,-27.3500003814697
33.6225353,-27.0400009155273
33.6381603,-26.7099990844727
33.6537853,-26.5599994659424
33.6694103,-26.6700000762939
33.6850353,-26.9899997711182
33.7006603,-27.4099998474121
33.7162853,-27.8099994659424
33.7319103,-28.1299991607666
33.7475353,-28.4099998474121
33.7631603,-28.7099990844727
33.7787853,-29.0499992370605
33.7944103,-29.3099994659424
33.8100353,-29.25
33.8256603,-28.6200008392334
33.8412853,-27.3500003814697
33.8569103,-25.5499992370605
33.8725353,-23.3700008392334
33.8881603,-20.8799991607666
33.9037853,-18.1200008392334
33.9194103,-15.1899995803833
33.9350353,-12.3999996185303
33.9506603,-10.0799999237061
33.9662853,-8.42000007629395
33.9819103,-7.36999988555908
33.9975353,-6.71000003814697
34.0131603,-6.25
34.0287853,-5.92000007629395
34.0444103,-5.84000015258789
34.0600353,-6.19999980926514
34.0756603,-7.07000017166138
34.0912853,-8.36999988555908
34.1069103,-9.89000034332275
34.1225353,-11.3900003433228
34.1381603,-12.6899995803833
34.1537853,-13.789999961853
34.1694103,-14.8599996566772
34.1850353,-16.2000007629395
34.2006603,-18.1200008392334
34.2162853,-20.6599998474121
34.2319103,-23.6000003814697
34.2475353,-26.5799999237061
34.2631603,-29.3199996948242
34.2787853,-31.6299991607666
34.2944103,-33.3199996948242
34.3100353,-34.0800018310547
34.3256603,-33.6300010681152
34.3412853,-31.9500007629395
34.3569103,-29.3099994659424
34.3725353,-26.1900005340576
34.3881603,-23.0699996948242
34.4037853,-20.2099990844727
34.4194103,-17.7000007629395
34.4350353,-15.4499998092651
34.4506603,-13.289999961853
34.4662853,-11.0299997329712
34.4819103,-8.56999969482422
34.4975353,-5.90000009536743
34.5131603,-3.09999990463257
34.5287853,-0.239999994635582
34.5444103,2.61999988555908
34.5600353,5.44000005722046
34.5756603,8.07999992370605
34.5912853,10.3599996566772
34.6069103,12.0900001525879
34.6225353,13.2700004577637
34.6381603,14.0200004577637
34.6537853,14.4799995422363
34.6694103,14.7600002288818
34.6850353,14.9300003051758
34.7006603,15.0299997329712
34.7162853,15.0900001525879
34.7319103,15.1499996185303
34.7475353,15.2600002288818
34.7631603,15.4399995803833
34.7787853,15.6800003051758
34.7944103,15.9099998474121
34.8100353,16.0100002288818
34.8256603,15.8500003814697
34.8412853,15.3999996185303
34.8569103,14.7299995422363
34.8725353,13.8800001144409
34.8881603,12.8800001144409
34.9037853,11.6999998092651
34.9194103,10.3599996566772
34.9350353,8.97000026702881
34.9506603,7.71000003814697
34.9662853,6.69999980926514
34.9819103,5.96000003814697
34.9975353,5.42999982833862
35.0131603,5.07999992370605
35.0287853,4.96999979019165
35.0444103,5.23000001907349
35.0600353,5.8600001335144
35.0756603,6.76999998092651
35.0912853,7.78999996185303
35.1069103,8.77999973297119
35.1225353,9.64000034332275
35.1381603,10.3299999237061
35.1537853,10.8199996948242
35.1694103,11.0799999237061
35.1850353,11.1400003433228
35.2006603,11.0900001525879
35.2162853,10.9899997711182
35.2319103,10.8900003433228
35.2475353,10.8100004196167
35.2631603,10.75
35.2787853,10.6700000762939
35.2944103,10.5699996948242
35.3100353,10.3699998855591
35.3256603,10.0600004196167
35.3412853,9.61999988555908
35.3569103,9.10000038146973
35.3725353,8.55000019073486
35.3881603,7.98999977111816
35.4037853,7.44999980926514
35.4194103,6.96000003814697
35.4350353,6.55000019073486
35.4506603,6.23999977111816
35.4662853,6.03000020980835
35.4819103,5.8899998664856
35.4975353,5.78000020980835
35.5131603,5.67000007629395
35.5287853,5.55000019073486
35.5444103,5.44000005722046
35.5600353,5.34000015258789
35.5756603,5.26999998092651
35.5912853,5.26000022888184
35.6069103,5.34999990463257
35.6225353,5.53000020980835
35.6381603,5.76999998092651
35.6537853,5.98999977111816
35.6694103,6.1399998664856
35.6850353,6.19000005722046
35.7006603,6.15000009536743
35.7162853,6.01999998092651
35.7319103,5.76999998092651
35.7475353,5.40999984741211
35.7631603,4.92999982833862
35.7787853,4.38000011444092
35.7944103,3.83999991416931
35.8100353,3.34999990463257
35.8256603,2.9300000667572
35.8412853,2.57999992370605
35.8569103,2.26999998092651
35.8725353,1.97000002861023
35.8881603,1.6599999666214
35.9037853,1.3400000333786
35.9194103,1.02999997138977
35.9350353,0.730000019073486
35.9506603,0.449999988079071
35.9662853,0.200000002980232
35.9819103,0.00999999977648258
35.9975353,-0.0500000007450581
36.0131603,0.0599999986588955
36.0287853,0.370000004768372
36.0444103,0.839999973773956
36.0600353,1.42999994754791
36.0756603,2.10999989509583
36.0912853,2.83999991416931
36.1069103,3.54999995231628
36.1225353,4.15000009536743
36.1381603,4.59999990463257
36.1537853,4.8899998664856
36.1694103,5.03000020980835
36.1850353,5.03000020980835
36.2006603,4.92000007629395
36.2162853,4.71999979019165
36.2319103,4.46000003814697
36.2475353,4.19999980926514
36.2631603,3.96000003814697
36.2787853,3.75
36.2944103,3.5699999332428
36.3100353,3.44000005722046
36.3256603,3.36999988555908
36.3412853,3.35999989509583
36.3569103,3.4300000667572
36.3725353,3.57999992370605
36.3881603,3.84999990463257
36.4037853,4.21000003814697
36.4194103,4.61999988555908
36.4350353,4.98999977111816
36.4506603,5.21999979019165
36.4662853,5.30999994277954
36.4819103,5.23999977111816
36.4975353,5.03999996185303
36.5131603,4.84000015258789
36.5287853,4.48999977111816
36.5444103,4.03000020980835
36.5600353,3.51999998092651
36.5756603,2.98000001907349
36.5912853,2.46000003814697
36.6069103,1.92999994754791
36.6225353,1.38999998569489
36.6381603,0.810000002384186
36.6537853,0.180000007152557
36.6694103,-0.509999990463257
36.6850353,-1.27999997138977
36.7006603,-2.08999991416931
36.7162853,-2.88000011444092
36.7319103,-3.65000009536743
36.7475353,-4.40999984741211
36.7631603,-5.17000007629395
36.7787853,-5.92000007629395
36.7944103,-6.6399998664856
36.8100353,-7.26999998092651
36.8256603,-7.82000017166138
36.8412853,-8.27999973297119
36.8569103,-8.67000007629395
36.8725353,-8.97999954223633
36.8881603,-9.1899995803833
36.9037853,-9.30000019073486
36.9194103,-9.31999969482422
36.9350353,-9.28999996185303
36.9506603,-9.26000022888184
36.9662853,-9.23999977111816
36.9819103,-9.25
36.9975353,-9.32999992370605
37.0131603,-9.48999977111816
37.0287853,-9.72999954223633
37.0444103,-10.0299997329712
37.0600353,-10.3599996566772
37.0756603,-10.6800003051758
37.0912853,-10.9799995422363
37.1069103,-11.2399997711182
37.1225353,-11.3999996185303
37.1381603,-11.4799995422363
37.1537853,-11.5
37.1694103,-11.5200004577637
37.1850353,-11.6099996566772
37.2006603,-11.75
37.2162853,-11.9200000762939
37.2319103,-12.1000003814697
37.2475353,-12.2700004577637
37.2631603,-12.3900003433228
37.2787853,-12.4099998474121
37.2944103,-12.3299999237061
37.3100353,-12.1700000762939
37.3256603,-12.0200004577637
37.3412853,-11.9200000762939
37.3569103,-11.8800001144409
37.3725353,-11.8500003814697
37.3881603,-11.8000001907349
37.4037853,-11.7200002670288
37.4194103,-11.710000038147
37.4350353,-11.960000038147
37.4506603,-12.6599998474121
37.4662853,-13.8400001525879
37.4819103,-15.3400001525879
37.4975353,-16.9400005340576
37.5131603,-18.9699993133545
37.5287853,-20.8099994659424
37.5444103,-22.2800006866455
37.5600353,-23.1599998474121
37.5756603,-23.2399997711182
37.5912853,-22.4899997711182
37.6069103,-21.1299991607666
37.6225353,-19.4599990844727
37.6381603,-17.7800006866455
37.6537853,-16.2299995422363
37.6694103,-14.8299999237061
37.6850353,-13.5299997329712
37.7006603,-12.25
37.7162853,-10.9700002670288
37.7319103,-9.71000003814697
37.7475353,-8.48999977111816
37.7631603,-7.28000020980835
37.7787853,-6.01999998092651
37.7944103,-4.6399998664856
37.8100353,-3.10999989509583
37.8256603,-1.46000003814697
37.8412853,0.230000004172325
37.8569103,1.87999999523163
37.8725353,3.30999994277954
37.8881603,4.3600001335144
37.9037853,4.94999980926514
37.9194103,5.09000015258789
37.9350353,4.92000007629395
37.9506603,4.59999990463257
37.9662853,4.32000017166138
37.9819103,4.17999982833862
37.9975353,4.28000020980835
38.0131603,4.67000007629395
38.0287853,5.28999996185303
38.0444103,6.07000017166138
38.0600353,6.90000009536743
38.0756603,7.69999980926514
38.0912853,8.4399995803833
38.1069103,9.14000034332275
38.1225353,9.82999992370605
38.1381603,10.5699996948242
38.1537853,11.3900003433228
38.1694103,12.2799997329712
38.1850353,13.1899995803833
38.2006603,14.0600004196167
38.2162853,14.8400001525879
38.2319103,15.5200004577637
38.2475353,16.1299991607666
38.2631603,16.7399997711182
38.2787853,17.4899997711182
38.2944103,18.4899997711182
38.3100353,19.7700004577637
38.3256603,21.2900009155273
38.3412853,23.0200004577637
38.3569103,24.9699993133545
38.3725353,27.0599994659424
38.3881603,29.1200008392334
38.4037853,30.8799991607666
38.4194103,32.1100006103516
38.4350353,32.7200012207031
38.4506603,32.75
38.4662853,32.2900009155273
38.4819103,31.4500007629395
38.4975353,30.4200000762939
38.5131603,29.7299995422363
38.5287853,29.1499996185303
38.5444103,28.7199993133545
38.5600353,28.4099998474121
38.5756603,28.1299991607666
38.5912853,27.7399997711182
38.6069103,27.1299991607666
38.6225353,26.2000007629395
38.6381603,24.9300003051758
38.6537853,23.3700008392334
38.6694103,21.6700000762939
38.6850353,19.9599990844727
38.7006603,18.3400001525879
38.7162853,16.8500003814697
38.7319103,15.4899997711182
38.7475353,14.2399997711182
38.7631603,13.0600004196167
38.7787853,11.9399995803833
38.7944103,10.8800001144409
38.8100353,9.88000011444092
38.8256603,8.94999980926514
38.8412853,8.11999988555908
38.8569103,7.3600001335144
38.8725353,6.65999984741211
38.8881603,5.92999982833862
38.9037853,5.11999988555908
38.9194103,4.19999980926514
38.9350353,3.21000003814697
38.9506603,2.20000004768372
38.9662853,1.20000004768372
38.9819103,0.270000010728836
38.9975353,-0.579999983310699
39.0131603,-1.37000000476837
39.0287853,-2.08999991416931
39.0444103,-2.71000003814697
39.0600353,-3.15000009536743
39.0756603,-3.29999995231628
39.0912853,-3.16000008583069
39.1069103,-2.79999995231628
39.1225353,-2.3199999332428
39.1381603,-1.80999994277954
39.1537853,-1.33000004291534
39.1694103,-0.949999988079071
39.1850353,-0.759999990463257
39.2006603,-0.879999995231628
39.2162853,-1.28999996185303
39.2319103,-1.92999994754791
39.2475353,-2.65000009536743
39.2631603,-3.29999995231628
39.2787853,-3.74000000953674
39.2944103,-3.90000009536743
39.3100353,-3.78999996185303
39.3256603,-3.52999997138977
39.3412853,-3.21000003814697
39.3569103,-2.9300000667572
39.3725353,-2.73000001907349
39.3881603,-2.65000009536743
39.4037853,-2.74000000953674
39.4194103,-3.03999996185303
39.4350353,-3.50999999046326
39.4506603,-4.03000020980835
39.4662853,-4.51999998092651
39.4819103,-4.92999982833862
39.4975353,-5.26000022888184
39.5131603,-5.51999998092651
39.5287853,-5.76999998092651
39.5444103,-5.98000001907349
39.5600353,-6.03999996185303
39.5756603,-5.8600001335144
39.5912853,-5.44000005722046
39.6069103,-4.84999990463257
39.6225353,-4.26999998092651
39.6381603,-3.83999991416931
39.6537853,-3.61999988555908
39.6694103,-3.66000008583069
39.6850353,-4
39.7006603,-4.71999979019165
39.7162853,-5.80000019073486
39.7319103,-7.1399998664856
39.7475353,-8.53999996185303
39.7631603,-9.81999969482422
39.7787853,-10.8800001144409
39.7944103,-11.7200002670288
39.8100353,-12.3999996185303
39.8256603,-12.9799995422363
39.8412853,-13.4799995422363
39.8569103,-13.8599996566772
39.8725353,-14.1099996566772
39.8881603,-14.2399997711182
39.9037853,-14.289999961853
39.9194103,-14.3000001907349
39.9350353,-14.289999961853
39.9506603,-14.2799997329712
39.9662853,-14.289999961853
39.9819103,-14.3000001907349
39.9975353,-14.289999961853
40.0131603,-14.210000038147
40.0287853,-14.0500001907349
40.0444103,-13.8299999237061
40.0600353,-13.5799999237061
40.0756603,-13.3400001525879
40.0912853,-13.1199998855591
40.1069103,-12.8800001144409
40.1225353,-12.539999961853
40.1381603,-12.0500001907349
40.1537853,-11.3900003433228
40.1694103,-10.6499996185303
40.1850353,-9.94999980926514
40.2006603,-9.40999984741211
40.2162853,-9.09000015258789
40.2319103,-8.97999954223633
40.2475353,-9.10999965667725
40.2631603,-9.5
40.2787853,-10.1599998474121
40.2944103,-11.0299997329712
40.3100353,-11.9700002670288
40.3256603,-12.8100004196167
40.3412853,-13.4399995803833
40.3569103,-13.8599996566772
40.3725353,-14.1300001144409
40.3881603,-14.3299999237061
40.4037853,-14.5299997329712
40.4194103,-14.7700004577637
40.4350353,-15.0500001907349
40.4506603,-15.4200000762939
40.4662853,-15.9799995422363
40.4819103,-16.8700008392334
40.4975353,-18.0699996948242
40.5131603,-19.3099994659424
40.5287853,-20.4699993133545
40.5444103,-21.2999992370605
40.5600353,-21.6599998474121
40.5756603,-21.4799995422363
40.5912853,-20.7399997711182
40.6069103,-19.4599990844727
40.6225353,-17.7800006866455
40.6381603,-15.8699998855591
40.6537853,-13.9200000762939
40.6694103,-12.1099996566772
40.6850353,-10.5600004196167
40.7006603,-9.34000015258789
40.7162853,-8.47000026702881
40.7319103,-7.92999982833862
40.7475353,-7.6399998664856
40.7631603,-7.5
40.7787853,-7.40000009536743
40.7944103,-7.28999996185303
40.8100353,-7.1100001335144
40.8256603,-6.84999990463257
40.8412853,-6.44999980926514
40.8569103,-5.8600001335144
40.8725353,-5.09999990463257
40.8881603,-4.19999980926514
40.9037853,-3.23000001907349
40.9194103,-2.24000000953674
40.9350353,-1.25999999046326
40.9506603,-0.319999992847443
40.9662853,0.540000021457672
40.9819103,1.29999995231628
40.9975353,1.87000000476837
41.0131603,2.21000003814697
41.0287853,2.28999996185303
41.0444103,2.17000007629395
41.0600353,1.94000005722046
41.0756603,1.69000005722046
41.0912853,1.50999999046326
41.1069103,1.50999999046326
41.1225353,1.85000002384186
41.1381603,2.67000007629395
41.1537853,3.97000002861023
41.1694103,5.57000017166138
41.1850353,7.19999980926514
41.2006603,8.65999984741211
41.2162853,9.84000015258789
41.2319103,10.710000038147
41.2475353,11.2399997711182
41.2631603,11.3900003433228
41.2787853,11.1300001144409
41.2944103,10.5299997329712
41.3100353,9.72000026702881
41.3256603,8.89000034332275
41.3412853,8.17000007629395
41.3569103,7.6100001335144
41.3725353,7.17999982833862
41.3881603,6.78000020980835
41.4037853,6.34000015258789
41.4194103,5.78000020980835
41.4350353,5.09999990463257
41.4506603,4.32000017166138
41.4662853,3.47000002861023
41.4819103,2.5699999332428
41.4975353,1.6599999666214
41.5131603,0.829999983310699
41.5287853,0.200000002980232
41.5444103,-0.0500000007450581
41.5600353,0.119999997317791
41.5756603,0.709999978542328
41.5912853,1.5900000333786
41.6069103,2.65000009536743
41.6225353,3.76999998092651
41.6381603,4.88000011444092
41.6537853,5.90999984741211
41.6694103,6.84000015258789
41.6850353,7.61999988555908
41.7006603,8.22000026702881
41.7162853,8.64999961853027
41.7319103,8.9399995803833
41.7475353,9.10999965667725
41.7631603,9.19999980926514
41.7787853,9.21000003814697
41.7944103,9.1899995803833
41.8100353,9.17000007629395
41.8256603,9.1899995803833
41.8412853,9.30000019073486
41.8569103,9.52999973297119
41.8725353,9.88000011444092
41.8881603,10.3400001525879
41.9037853,10.8800001144409
41.9194103,11.4300003051758
41.9350353,11.960000038147
41.9506603,12.3999996185303
41.9662853,12.6999998092651
41.9819103,12.8400001525879
41.9975353,12.8199996948242
42.0131603,12.710000038147
42.0287853,12.5600004196167
42.0444103,12.4499998092651
42.0600353,12.3999996185303
42.0756603,12.3999996185303
42.0912853,12.4399995803833
42.1069103,12.4799995422363
42.1225353,12.4399995803833
42.1381603,12.2600002288818
42.1537853,11.8900003433228
42.1694103,11.3699998855591
42.1850353,10.7600002288818
42.2006603,10.1300001144409
42.2162853,9.55000019073486
42.2319103,9.0600004196167
42.2475353,8.6899995803833
42.2631603,8.48999977111816
42.2787853,8.42000007629395
42.2944103,8.42000007629395
42.3100353,8.35000038146973
42.3256603,8.11999988555908
42.3412853,7.69000005722046
42.3569103,7.11999988555908
42.3725353,6.51000022888184
42.3881603,5.94000005722046
42.4037853,5.42999982833862
42.4194103,5
42.4350353,4.69000005722046
42.4506603,4.51000022888184
42.4662853,4.46999979019165
42.4819103,4.53999996185303
42.4975353,4.65999984741211
42.5131603,4.75
42.5287853,4.84000015258789
42.5444103,4.98000001907349
42.5600353,5.17000007629395
42.5756603,5.44000005722046
42.5912853,5.82999992370605
42.6069103,6.36999988555908
42.6225353,7.03000020980835
42.6381603,7.75
42.6537853,8.43000030517578
42.6694103,9
42.6850353,9.4399995803833
42.7006603,9.72999954223633
42.7162853,9.88000011444092
42.7319103,9.84000015258789
42.7475353,9.63000011444092
42.7631603,9.27999973297119
42.7787853,8.88000011444092
42.7944103,8.47999954223633
42.8100353,8.14000034332275
42.8256603,7.88000011444092
42.8412853,7.67999982833862
42.8569103,7.55000019073486
42.8725353,7.46999979019165
42.8881603,7.48000001907349
42.9037853,7.55999994277954
42.9194103,7.67000007629395
42.9350353,7.73000001907349
42.9506603,7.65000009536743
42.9662853,7.32999992370605
42.9819103,6.71999979019165
42.9975353,5.82000017166138
43.0131603,4.69000005722046
43.0287853,3.44000005722046
43.0444103,2.17000007629395
43.0600353,0.959999978542328
43.0756603,-0.100000001490116
43.0912853,-0.970000028610229
43.1069103,-1.60000002384186
43.1225353,-1.99000000953674
43.1381603,-2.23000001907349
43.1537853,-2.39000010490417
43.1694103,-2.53999996185303
43.1850353,-2.71000003814697
43.2006603,-2.90000009536743
43.2162853,-3.09999990463257
43.2319103,-3.29999995231628
43.2475353,-3.48000001907349
43.2631603,-3.65000009536743
43.2787853,-3.80999994277954
43.2944103,-3.99000000953674
43.3100353,-4.23999977111816
43.3256603,-4.59999990463257
43.3412853,-5.07999992370605
43.3569103,-5.61999988555908
43.3725353,-6.17000007629395
43.3881603,-6.6399998664856
43.4037853,-6.8899998664856
43.4194103,-6.84000015258789
43.4350353,-6.44000005722046
43.4506603,-5.75
43.4662853,-4.88000011444092
43.4819103,-3.98000001907349
43.4975353,-3.16000008583069
43.5131603,-2.52999997138977
43.5287853,-2.30999994277954
43.5444103,-2.60999989509583
43.5600353,-3.39000010490417
43.5756603,-4.44999980926514
43.5912853,-5.53000020980835
43.6069103,-6.40000009536743
43.6225353,-6.96999979019165
43.6381603,-7.26000022888184
43.6537853,-7.28999996185303
43.6694103,-7.13000011444092
43.6850353,-6.90000009536743
43.7006603,-6.78000020980835
43.7162853,-6.86999988555908
43.7319103,-7.21999979019165
43.7475353,-7.76000022888184
43.7631603,-8.36999988555908
43.7787853,-8.9399995803833
43.7944103,-9.4399995803833
43.8100353,-9.85999965667725
43.8256603,-10.25
43.8412853,-10.6700000762939
43.8569103,-11.1999998092651
43.8725353,-12.0200004577637
43.8881603,-13.2600002288818
43.9037853,-14.9099998474121
43.9194103,-16.7600002288818
43.9350353,-18.4899997711182
43.9506603,-19.8400001525879
43.9662853,-20.6700000762939
43.9819103,-20.9599990844727
43.9975353,-20.7000007629395
44.0131603,-19.9099998474121
44.0287853,-18.6599998474121
44.0444103,-17.1399993896484
44.0600353,-15.5600004196167
44.0756603,-14.1099996566772
44.0912853,-12.9099998474121
44.1069103,-12.0100002288818
44.1225353,-11.3900003433228
44.1381603,-10.9499998092651
44.1537853,-10.6300001144409
44.1694103,-10.3800001144409
44.1850353,-10.1700000762939
44.2006603,-9.97000026702881
44.2162853,-9.6899995803833
44.2319103,-9.28999996185303
44.2475353,-8.77999973297119
44.2631603,-8.22000026702881
44.2787853,-7.6399998664856
44.2944103,-7.05000019073486
44.3100353,-6.42000007629395
44.3256603,-5.75
44.3412853,-5.05999994277954
44.3569103,-4.34000015258789
44.3725353,-3.57999992370605
44.3881603,-2.72000002861023
44.4037853,-1.76999998092651
44.4194103,-0.790000021457672
44.4350353,0.119999997317791
44.4506603,0.910000026226044
44.4662853,1.53999996185303
44.4819103,2.01999998092651
44.4975353,2.41000008583069
44.5131603,2.69000005722046
44.5287853,2.97000002861023
44.5444103,3.30999994277954
44.5600353,3.75999999046326
44.5756603,4.28999996185303
44.5912853,4.86999988555908
44.6069103,5.42999982833862
44.6225353,5.94000005722046
44.6381603,6.34999990463257
44.6537853,6.6399998664856
44.6694103,6.82000017166138
44.6850353,6.92000007629395
44.7006603,6.98000001907349
44.7162853,7.05000019073486
44.7319103,7.13000011444092
44.7475353,7.21999979019165
44.7631603,7.32000017166138
44.7787853,7.40000009536743
44.7944103,7.44000005722046
44.8100353,7.42000007629395
44.8256603,7.32000017166138
44.8412853,7.15000009536743
44.8569103,6.92000007629395
44.8725353,6.6399998664856
44.8881603,6.30999994277954
44.9037853,5.94000005722046
44.9194103,5.55999994277954
44.9350353,5.21000003814697
44.9506603,4.92000007629395
44.9662853,4.71999979019165
44.9819103,4.6399998664856
44.9975353,4.65999984741211
45.0131603,4.78000020980835
45.0287853,4.96000003814697
45.0444103,5.15999984741211
45.0600353,5.34000015258789
45.0756603,5.48999977111816
45.0912853,5.59999990463257
45.1069103,5.67000007629395
45.1225353,5.71999979019165
45.1381603,5.76000022888184
45.1537853,5.80000019073486
45.1694103,5.84000015258789
45.1850353,5.90000009536743
45.2006603,5.94999980926514
45.2162853,5.96999979019165
45.2319103,5.98000001907349
45.2475353,6.01999998092651
45.2631603,6.15999984741211
45.2787853,6.40999984741211
45.2944103,6.73000001907349
45.3100353,7.07999992370605
45.3256603,7.36999988555908
45.3412853,7.6100001335144
45.3569103,7.78000020980835
45.3725353,7.94000005722046
45.3881603,8.11999988555908
45.4037853,8.34000015258789
45.4194103,8.63000011444092
45.4350353,9.05000019073486
45.4506603,9.65999984741211
45.4662853,10.4300003051758
45.4819103,11.2600002288818
45.4975353,11.960000038147
45.5131603,12.3800001144409
45.5287853,12.4200000762939
45.5444103,12.0699996948242
45.5600353,11.3800001144409
45.5756603,10.3999996185303
45.5912853,9.22999954223633
45.6069103,7.96999979019165
45.6225353,6.73000001907349
45.6381603,5.57999992370605
45.6537853,4.55999994277954
45.6694103,3.67000007629395
45.6850353,2.89000010490417
45.7006603,2.1800000667572
45.7162853,1.47000002861023
45.7319103,0.720000028610229
45.7475353,-0.0599999986588955
45.7631603,-0.860000014305115
45.7787853,-1.63999998569489
45.7944103,-2.38000011444092
45.8100353,-3.11999988555908
45.8256603,-3.91000008583069
45.8412853,-4.73999977111816
45.8569103,-5.57999992370605
45.8725353,-6.38000011444092
45.8881603,-7.07999992370605
45.9037853,-7.69999980926514
45.9194103,-8.22999954223633
45.9350353,-8.6899995803833
45.9506603,-9.09000015258789
45.9662853,-9.43000030517578
45.9819103,-9.78999996185303
45.9975353,-10.25
46.0131603,-10.9300003051758
46.0287853,-11.8199996948242
46.0444103,-12.8400001525879
46.0600353,-13.8199996948242
46.0756603,-14.6800003051758
46.0912853,-15.4300003051758
46.1069103,-16.1100006103516
46.1225353,-16.7199993133545
46.1381603,-17.1800003051758
46.1537853,-17.4300003051758
46.1694103,-17.4699993133545
46.1850353,-17.3400001525879
46.2006603,-17.0699996948242
46.2162853,-16.6200008392334
46.2319103,-15.8900003433228
46.2475353,-14.8800001144409
46.2631603,-13.6499996185303
46.2787853,-12.2799997329712
46.2944103,-10.8800001144409
46.3100353,-9.5
46.3256603,-8.21000003814697
46.3412853,-7.03999996185303
46.3569103,-6.03999996185303
46.3725353,-5.21000003814697
46.3881603,-4.53999996185303
46.4037853,-4.01999998092651
46.4194103,-3.60999989509583
46.4350353,-3.29999995231628
46.4506603,-3.03999996185303
46.4662853,-2.80999994277954
46.4819103,-2.58999991416931
46.4975353,-2.38000011444092
46.5131603,-2.25
46.5287853,-2.14000010490417
46.5444103,-2.07999992370605
46.5600353,-2.07999992370605
46.5756603,-2.1800000667572
46.5912853,-2.38000011444092
46.6069103,-2.61999988555908
46.6225353,-2.83999991416931
46.6381603,-2.95000004768372
46.6537853,-2.88000011444092
46.6694103,-2.5699999332428
46.6850353,-2.01999998092651
46.7006603,-1.25
46.7162853,-0.349999994039536
46.7319103,0.589999973773956
46.7475353,1.50999999046326
46.7631603,2.34999990463257
46.7787853,3.13000011444092
46.7944103,3.84999990463257
46.8100353,4.55999994277954
46.8256603,5.34999990463257
46.8412853,6.36999988555908
46.8569103,7.78999996185303
46.8725353,9.60000038146973
46.8881603,11.6300001144409
46.9037853,13.6199998855591
46.9194103,15.3599996566772
46.9350353,16.7600002288818
46.9506603,17.8299999237061
46.9662853,18.5100002288818
46.9819103,18.7600002288818
46.9975353,18.5699996948242
47.0131603,18.0900001525879
47.0287853,17.4699993133545
47.0444103,16.8299999237061
47.0600353,16.2199993133545
47.0756603,15.6199998855591
47.0912853,15
47.1069103,14.3900003433228
47.1225353,13.789999961853
47.1381603,13.1999998092651
47.1537853,12.6300001144409
47.1694103,12.0500001907349
47.1850353,11.4700002670288
47.2006603,10.9200000762939
47.2162853,10.460000038147
47.2319103,10.1400003433228
47.2475353,9.97000026702881
47.2631603,9.90999984741211
47.2787853,9.90999984741211
47.2944103,9.92000007629395
47.3100353,9.89000034332275
47.3256603,9.78999996185303
47.3412853,9.52999973297119
47.3569103,9.0600004196167
47.3725353,8.44999980926514
47.3881603,7.80999994277954
47.4037853,7.23999977111816
47.4194103,6.78000020980835
47.4350353,6.40000009536743
47.4506603,6.03000020980835
47.4662853,5.65999984741211
47.4819103,5.26999998092651
47.4975353,4.90999984741211
47.5131603,4.71000003814697
47.5287853,4.59999990463257
47.5444103,4.6399998664856
47.5600353,4.92000007629395
47.5756603,5.53000020980835
47.5912853,6.46999979019165
47.6069103,7.55999994277954
47.6225353,8.55000019073486
47.6381603,9.21000003814697
47.6537853,9.47999954223633
47.6694103,9.40999984741211
47.6850353,9.02999973297119
47.7006603,8.31999969482422
47.7162853,7.30000019073486
47.7319103,6.05999994277954
47.7475353,4.71000003814697
47.7631603,3.32999992370605
47.7787853,1.89999997615814
47.7944103,0.340000003576279
47.8100353,-1.37000000476837
47.8256603,-3.19000005722046
47.8412853,-5
47.8569103,-6.69000005722046
47.8725353,-8.1899995803833
47.8881603,-9.5
47.9037853,-10.5900001525879
47.9194103,-11.4899997711182
47.9350353,-12.2399997711182
47.9506603,-12.8900003433228
47.9662853,-13.5200004577637
47.9819103,-14.1800003051758
47.9975353,-14.8900003433228
48.0131603,-15.6099996566772
48.0287853,-16.2999992370605
48.0444103,-16.8999996185303
48.0600353,-17.3299999237061
48.0756603,-17.5400009155273
48.0912853,-17.5599994659424
48.1069103,-17.4400005340576
48.1225353,-17.2999992370605
48.1381603,-17.2099990844727
48.1537853,-17.2299995422363
48.1694103,-17.3400001525879
48.1850353,-17.5499992370605
48.2006603,-17.8600006103516
48.2162853,-18.2199993133545
48.2319103,-18.5900001525879
48.2475353,-18.8799991607666
48.2631603,-19.0400009155273
48.2787853,-19.0699996948242
48.2944103,-18.9799995422363
48.3100353,-18.8400001525879
48.3256603,-18.7099990844727
48.3412853,-18.6200008392334
48.3569103,-18.6000003814697
48.3725353,-18.6499996185303
48.3881603,-18.7299995422363
48.4037853,-18.8099994659424
48.4194103,-18.8500003814697
48.4350353,-18.8500003814697
48.4506603,-18.7900009155273
48.4662853,-18.6599998474121
48.4819103,-18.4500007629395
48.4975353,-18.1800003051758
48.5131603,-18.0499992370605
48.5287853,-17.8799991607666
48.5444103,-17.6900005340576
48.5600353,-17.4699993133545
48.5756603,-17.2199993133545
48.5912853,-16.9400005340576
48.6069103,-16.6299991607666
48.6225353,-16.2800006866455
48.6381603,-15.8900003433228
48.6537853,-15.4700002670288
48.6694103,-15
48.6850353,-14.4799995422363
48.7006603,-13.8900003433228
48.7162853,-13.2299995422363
48.7319103,-12.5100002288818
48.7475353,-11.7600002288818
48.7631603,-11
48.7787853,-10.2299995422363
48.7944103,-9.46000003814697
48.8100353,-8.72000026702881
48.8256603,-8.02000045776367
48.8412853,-7.36999988555908
48.8569103,-6.75
48.8725353,-6.1399998664856
48.8881603,-5.53000020980835
48.9037853,-4.92000007629395
48.9194103,-4.34999990463257
48.9350353,-3.83999991416931
48.9506603,-3.4300000667572
48.9662853,-3.11999988555908
48.9819103,-2.89000010490417
48.9975353,-2.70000004768372
49.0131603,-2.52999997138977
49.0287853,-2.39000010490417
49.0444103,-2.30999994277954
49.0600353,-2.26999998092651
49.0756603,-2.21000003814697
49.0912853,-2.05999994277954
49.1069103,-1.77999997138977
49.1225353,-1.3400000333786
49.1381603,-0.730000019073486
49.1537853,0.0199999995529652
49.1694103,0.910000026226044
49.1850353,1.88999998569489
49.2006603,2.86999988555908
49.2162853,3.75
49.2319103,4.44000005722046
49.2475353,4.90999984741211
49.2631603,5.17000007629395
49.2787853,5.30000019073486
49.2944103,5.36999988555908
49.3100353,5.44000005722046
49.3256603,5.55999994277954
49.3412853,5.69999980926514
49.3569103,5.82999992370605
49.3725353,5.94999980926514
49.3881603,6.07000017166138
49.4037853,6.23000001907349
49.4194103,6.5
49.4350353,6.88000011444092
49.4506603,7.3600001335144
49.4662853,7.92000007629395
49.4819103,8.51000022888184
49.4975353,9.0600004196167
49.5131603,9.5
49.5287853,9.71000003814697
49.5444103,9.6899995803833
49.5600353,9.48999977111816
49.5756603,9.21000003814697
49.5912853,8.90999984741211
49.6069103,8.60000038146973
49.6225353,8.14999961853027
49.6381603,7.44000005722046
49.6537853,6.42999982833862
49.6694103,5.21999979019165
49.6850353,3.97000002861023
49.7006603,2.82999992370605
49.7162853,1.9099999666214
49.7319103,1.27999997138977
49.7475353,1.05999994277954
49.7631603,1.32000005245209
49.7787853,1.96000003814697
49.7944103,2.74000000953674
49.8100353,3.42000007629395
49.8256603,3.85999989509583
49.8412853,4.07999992370605
49.8569103,4.15999984741211
49.8725353,4.23000001907349
49.8881603,4.36999988555908
49.9037853,4.63000011444092
49.9194103,5.03999996185303
49.9350353,5.53999996185303
49.9506603,6.09999990463257
49.9662853,6.65999984741211
49.9819103,7.17999982833862
49.9975353,7.65999984741211
50.0131603,8.19999980926514
50.0287853,8.97000026702881
50.0444103,10.1099996566772
50.0600353,11.6400003433228
50.0756603,13.4399995803833
50.0912853,15.3000001907349
50.1069103,17.0599994659424
50.1225353,18.6100006103516
50.1381603,19.8899993896484
50.1537853,20.8299999237061
50.1694103,21.3799991607666
50.1850353,21.6000003814697
50.2006603,21.5900001525879
50.2162853,21.5200004577637
50.2319103,21.4899997711182
50.2475353,21.6000003814697
50.2631603,21.8899993896484
50.2787853,22.3299999237061
50.2944103,22.8199996948242
50.3100353,23.25
50.3256603,23.4899997711182
50.3412853,23.4300003051758
50.3569103,22.9799995422363
50.3725353,22.1200008392334
50.3881603,20.9099998474121
50.4037853,19.4899997711182
50.4194103,18.0200004577637
50.4350353,16.6100006103516
50.4506603,15.3999996185303
50.4662853,14.4799995422363
50.4819103,13.9399995803833
50.4975353,13.7600002288818
50.5131603,13.9899997711182
50.5287853,14.4700002670288
50.5444103,15.1899995803833
50.5600353,16.1100006103516
50.5756603,17.1100006103516
50.5912853,18.0799999237061
50.6069103,18.8999996185303
50.6225353,19.5200004577637
50.6381603,19.9300003051758
50.6537853,20.0699996948242
50.6694103,19.8799991607666
50.6850353,19.3500003814697
50.7006603,18.5799999237061
50.7162853,17.6800003051758
50.7319103,16.7900009155273
50.7475353,15.9799995422363
50.7631603,15.2700004577637
50.7787853,14.6199998855591
50.7944103,13.9899997711182
50.8100353,13.289999961853
50.8256603,12.4899997711182
50.8412853,11.5699996948242
50.8569103,10.5799999237061
50.8725353,9.52000045776367
50.8881603,8.44999980926514
50.9037853,7.40999984741211
50.9194103,6.46999979019165
50.9350353,5.69999980926514
50.9506603,5.09999990463257
50.9662853,4.65999984741211
50.9819103,4.30000019073486
50.9975353,3.94000005722046
51.0131603,3.49000000953674
51.0287853,2.82999992370605
51.0444103,1.86000001430511
51.0600353,0.589999973773956
51.0756603,-0.810000002384186
51.0912853,-2.15000009536743
51.1069103,-3.22000002861023
51.1225353,-3.95000004768372
51.1381603,-4.36999988555908
51.1537853,-4.53999996185303
51.1694103,-4.55000019073486
51.1850353,-4.55000019073486
51.2006603,-4.71999979019165
51.2162853,-5.21000003814697
51.2319103,-6.07000017166138
51.2475353,-7.21999979019165
51.2631603,-8.5
51.2787853,-9.75
51.2944103,-10.8100004196167
51.3100353,-11.6000003814697
51.3256603,-12.0500001907349
51.3412853,-12.2200002670288
51.3569103,-12.1999998092651
51.3725353,-12.1400003433228
51.3881603,-12.1000003814697
51.4037853,-12.1300001144409
51.4194103,-12.1899995803833
51.4350353,-12.289999961853
51.4506603,-12.4399995803833
51.4662853,-12.7700004577637
51.4819103,-13.4099998474121
51.4975353,-14.3699998855591
51.5131603,-15.7299995422363
51.5287853,-17.2399997711182
51.5444103,-18.7900009155273
51.5600353,-20.2900009155273
51.5756603,-21.6299991607666
51.5912853,-22.6399993896484
51.6069103,-23.1399993896484
51.6225353,-23.0599994659424
51.6381603,-22.4500007629395
51.6537853,-21.4400005340576
51.6694103,-20.2099990844727
51.6850353,-18.8899993896484
51.7006603,-17.6000003814697
51.7162853,-16.3899993896484
51.7319103,-15.3199996948242
51.7475353,-14.4499998092651
51.7631603,-13.8500003814697
51.7787853,-13.5299997329712
51.7944103,-13.4700002670288
51.8100353,-13.710000038147
51.8256603,-14.2799997329712
51.8412853,-15.1499996185303
51.8569103,-16.1900005340576
51.8725353,-17.2399997711182
51.8881603,-18.2399997711182
51.9037853,-19.3299999237061
51.9194103,-20.6800003051758
51.9350353,-22.2299995422363
51.9506603,-23.7600002288818
51.9662853,-25.0100002288818
51.9819103,-25.8600006103516
51.9975353,-26.4200000762939
52.0131603,-27.0499992370605
52.0287853,-28.3700008392334
52.0444103,-30.8999996185303
52.0600353,-34.7200012207031
52.0756603,-39.5900001525879
52.0912853,-45.2200012207031
52.1069103,-51.3699989318848
52.1225353,-57.75
52.1381603,-63.689998626709
52.1537853,-68.2200012207031
52.1694103,-70.6399993896484
52.1850353,-71.120002746582
52.2006603,-70.4300003051758
52.2162853,-69.2099990844727
52.2319103,-67.6999969482422
52.2475353,-65.8300018310547
52.2631603,-63.5699996948242
52.2787853,-61.0499992370605
52.2944103,-58.75
52.3100353,-57.5299987792969
52.3256603,-58.1100006103516
52.3412853,-60.6800003051758
52.3569103,-65.129997253418
52.3725353,-71.5199966430664
52.3881603,-79.9700012207031
52.4037853,-90.0599975585938
52.4194103,-100.419998168945
52.4350353,-109.029998779297
52.4506603,-114.419998168945
52.4662853,-116.680000305176
52.4819103,-116.819999694824
52.4975353,-115.540000915527
52.5131603,-112.290000915527
52.5287853,-107.470001220703
52.5444103,-101.26000213623
52.5600353,-94.2799987792969
52.5756603,-87.5299987792969
52.5912853,-82.0699996948242
52.6069103,-78.6600036621094
52.6225353,-77.3099975585938
52.6381603,-77.5
52.6537853,-78.6900024414063
52.6694103,-80.4599990844727
52.6850353,-82.4000015258789
52.7006603,-83.5899963378906
52.7162853,-82.5199966430664
52.7319103,-77.8600006103516
52.7475353,-69.3000030517578
52.7631603,-57.6599998474121
52.7787853,-44.2099990844727
52.7944103,-30.1200008392334
52.8100353,-16.2000007629395
52.8256603,-2.90000009536743
52.8412853,9.77999973297119
52.8569103,22.75
52.8725353,37.810001373291
52.8881603,56.5999984741211
52.9037853,79.5199966430664
52.9194103,106.069999694824
52.9350353,135.910003662109
52.9506603,168.889999389648
52.9662853,204.039993286133
52.9819103,238.820007324219
52.9975353,269.609985351563
53.0131603,293.839996337891
53.0287853,311.570007324219
53.0444103,324.459991455078
53.0600353,327.670013427734
53.0756603,327.670013427734
53.0912853,327.670013427734
53.1069103,327.670013427734
53.1225353,327.670013427734
53.1381603,327.670013427734
53.1537853,327.670013427734
53.1694103,327.670013427734
53.1850353,320.760009765625
53.2006603,309.769989013672
53.2162853,297.089996337891
53.2319103,283.359985351563
53.2475353,269.049987792969
53.2631603,254.580001831055
53.2787853,240.240005493164
53.2944103,226.130004882813
53.3100353,212.130004882813
53.3256603,198.029998779297
53.3412853,183.75
53.3569103,169.399993896484
53.3725353,155.160003662109
53.3881603,141.220001220703
53.4037853,127.709999084473
53.4194103,114.699996948242
53.4350353,102.220001220703
53.4506603,90.1900024414063
53.4662853,78.4300003051758
53.4819103,66.7799987792969
53.4975353,55.189998626709
53.5131603,43.1300010681152
53.5287853,31.7999992370605
53.5444103,21.2999992370605
53.5600353,11.6199998855591
53.5756603,2.75999999046326
53.5912853,-5.25
53.6069103,-12.3800001144409
53.6225353,-18.6800003051758
53.6381603,-24.2199993133545
53.6537853,-29.1000003814697
53.6694103,-33.3499984741211
53.6850353,-37.060001373291
53.7006603,-40.3699989318848
53.7162853,-43.4099998474121
53.7319103,-46.2599983215332
53.7475353,-48.9300003051758
53.7631603,-51.4199981689453
53.7787853,-53.8400001525879
53.7944103,-56.3199996948242
53.8100353,-58.9300003051758
53.8256603,-61.6500015258789
53.8412853,-64.3600006103516
53.8569103,-67.0100021362305
53.8725353,-69.6500015258789
53.8881603,-72.3600006103516
53.9037853,-75.1699981689453
53.9194103,-77.9700012207031
53.9350353,-80.5599975585938
53.9506603,-82.7399978637695
53.9662853,-84.4400024414063
53.9819103,-85.6999969482422
53.9975353,-86.5999984741211
54.0131603,-87.1600036621094
54.0287853,-87.3600006103516
54.0444103,-87.2099990844727
54.0600353,-86.8300018310547
54.0756603,-86.4100036621094
54.0912853,-86.1100006103516
54.1069103,-85.9700012207031
54.1225353,-85.9499969482422
54.1381603,-86.0199966430664
54.1537853,-86.2099990844727
54.1694103,-86.620002746582
54.1850353,-87.2399978637695
54.2006603,-87.9599990844727
54.2162853,-88.5999984741211
54.2319103,-88.9700012207031
54.2475353,-89
54.2631603,-88.7200012207031
54.2787853,-88.2200012207031
54.2944103,-87.5800018310547
54.3100353,-86.8300018310547
54.3256603,-85.9800033569336
54.3412853,-85.0899963378906
54.3569103,-84.25
54.3725353,-83.4899978637695
54.3881603,-82.8099975585938
54.4037853,-82.1500015258789
54.4194103,-81.4599990844727
54.4350353,-80.7200012207031
54.4506603,-79.9599990844727
54.4662853,-79.1699981689453
54.4819103,-78.3300018310547
54.4975353,-77.370002746582
54.5131603,-74.629997253418
54.5287853,-71.8399963378906
54.5444103,-69.0599975585938
54.5600353,-66.3600006103516
54.5756603,-63.7900009155273
54.5912853,-61.3600006103516
54.6069103,-59.0800018310547
54.6225353,-56.9300003051758
54.6381603,-54.939998626709
54.6537853,-53.0999984741211
54.6694103,-51.3899993896484
54.6850353,-49.7700004577637
54.7006603,-48.2200012207031
54.7162853,-46.7599983215332
54.7319103,-45.4300003051758
54.7475353,-44.2200012207031
54.7631603,-43.0699996948242
54.7787853,-41.8600006103516
54.7944103,-40.4900016784668
54.8100353,-38.9099998474121
54.8256603,-37.1699981689453
54.8412853,-35.3400001525879
54.8569103,-33.439998626709
54.8725353,-31.4899997711182
54.8881603,-29.4899997711182
54.9037853,-27.5300006866455
54.9194103,-25.7099990844727
54.9350353,-24.0900001525879
54.9506603,-22.6499996185303
54.9662853,-21.3700008392334
54.9819103,-20.2700004577637
54.9975353,-19.5400009155273
55.0131603,-19.3600006103516
55.0287853,-19.7700004577637
55.0444103,-20.6800003051758
55.0600353,-21.9799995422363
55.0756603,-23.5699996948242
55.0912853,-25.3400001525879
55.1069103,-27.0400009155273
55.1225353,-28.3600006103516
55.1381603,-29.0300006866455
55.1537853,-29.0100002288818
55.1694103,-28.4099998474121
55.1850353,-27.3400001525879
55.2006603,-25.8500003814697
55.2162853,-24
55.2319103,-21.9099998474121
55.2475353,-19.7099990844727
55.2631603,-17.5100002288818
55.2787853,-15.3699998855591
55.2944103,-13.2200002670288
55.3100353,-10.9700002670288
55.3256603,-8.51000022888184
55.3412853,-5.86999988555908
55.3569103,-3.15000009536743
55.3725353,-0.490000009536743
55.3881603,2.01999998092651
55.4037853,4.34999990463257
55.4194103,6.53999996185303
55.4350353,8.65999984741211
55.4506603,10.7799997329712
55.4662853,12.8999996185303
55.4819103,14.9200000762939
55.4975353,16.6399993896484
55.5131603,17.6000003814697
55.5287853,18.0400009155273
55.5444103,18.0200004577637
55.5600353,17.6399993896484
55.5756603,16.8999996185303
55.5912853,15.710000038147
55.6069103,14.1300001144409
55.6225353,12.3699998855591
55.6381603,10.7700004577637
55.6537853,9.57999992370605
55.6694103,8.82999992370605
55.6850353,8.43000030517578
55.7006603,8.3100004196167
55.7162853,8.51000022888184
55.7319103,9.14000034332275
55.7475353,10.2399997711182
55.7631603,11.8100004196167
55.7787853,13.9300003051758
55.7944103,16.6299991607666
55.8100353,19.8400001525879
55.8256603,23.2900009155273
55.8412853,26.6700000762939
55.8569103,29.7999992370605
55.8725353,32.689998626709
55.8881603,35.4000015258789
55.9037853,37.7900009155273
55.9194103,39.6199989318848
55.9350353,40.7400016784668
55.9506603,41.2400016784668
55.9662853,41.3300018310547
55.9819103,41.25
55.9975353,41.1100006103516
56.0131603,40.9099998474121
56.0287853,40.6199989318848
56.0444103,40.1699981689453
56.0600353,39.5200004577637
56.0756603,38.6599998474121
56.0912853,37.6100006103516
56.1069103,36.4000015258789
56.1225353,35.0099983215332
56.1381603,33.3800010681152
56.1537853,31.4300003051758
56.1694103,29.1599998474121
56.1850353,26.7299995422363
56.2006603,24.3600006103516
56.2162853,22.2199993133545
56.2319103,20.3600006103516
56.2475353,18.7099990844727
56.2631603,17.0900001525879
56.2787853,15.210000038147
56.2944103,12.8699998855591
56.3100353,10.0299997329712
56.3256603,6.92000007629395
56.3412853,3.80999994277954
56.3569103,0.970000028610229
56.3725353,-1.46000003814697
56.3881603,-3.38000011444092
56.4037853,-4.57999992370605
56.4194103,-4.84999990463257
56.4350353,-4.15999984741211
56.4506603,-2.72000002861023
56.4662853,-0.899999976158142
56.4819103,0.910000026226044
56.4975353,2.49000000953674
56.5131603,3.76999998092651
56.5287853,4.80999994277954
56.5444103,5.69999980926514
56.5600353,6.51000022888184
56.5756603,7.21000003814697
56.5912853,7.80999994277954
56.6069103,8.27999973297119
56.6225353,8.60000038146973
56.6381603,8.75
56.6537853,8.77000045776367
56.6694103,8.67000007629395
56.6850353,8.48999977111816
56.7006603,8.25
56.7162853,8.02000045776367
56.7319103,7.90000009536743
56.7475353,7.96999979019165
56.7631603,8.23999977111816
56.7787853,8.67000007629395
56.7944103,9.17000007629395
56.8100353,9.64999961853027
56.8256603,10.1099996566772
56.8412853,10.6099996566772
56.8569103,11.25
56.8725353,12.0699996948242
56.8881603,13.0699996948242
56.9037853,14.2399997711182
56.9194103,15.5799999237061
56.9350353,17.0200004577637
56.9506603,18.4300003051758
56.9662853,19.5599994659424
56.9819103,20.2299995422363
56.9975353,20.4200000762939
57.0131603,20.2199993133545
57.0287853,19.7299995422363
57.0444103,19.0200004577637
57.0600353,18.1399993896484
57.0756603,17.1499996185303
57.0912853,16.1200008392334
57.1069103,15.1000003814697
57.1225353,14.1300001144409
57.1381603,13.1999998092651
57.1537853,12.3100004196167
57.1694103,11.460000038147
57.1850353,10.6599998474121
57.2006603,9.92000007629395
57.2162853,9.26000022888184
57.2319103,8.63000011444092
57.2475353,8
57.2631603,7.34000015258789
57.2787853,6.67999982833862
57.2944103,6.07000017166138
57.3100353,5.53000020980835
57.3256603,5.05000019073486
57.3412853,4.61999988555908
57.3569103,4.23999977111816
57.3725353,3.89000010490417
57.3881603,3.55999994277954
57.4037853,3.16000008583069
57.4194103,2.64000010490417
57.4350353,1.98000001907349
57.4506603,1.17999994754791
57.4662853,0.280000001192093
57.4819103,-0.670000016689301
57.4975353,-1.6599999666214
57.5131603,-2.65000009536743
57.5287853,-3.59999990463257
57.5444103,-4.48999977111816
57.5600353,-5.30000019073486
57.5756603,-6.01999998092651
57.5912853,-6.65999984741211
57.6069103,-7.23000001907349
57.6225353,-7.78000020980835
57.6381603,-8.31999969482422
57.6537853,-8.86999988555908
57.6694103,-9.40999984741211
57.6850353,-9.96000003814697
57.7006603,-10.5100002288818
57.7162853,-11.0900001525879
57.7319103,-11.6999998092651
57.7475353,-12.3299999237061
57.7631603,-12.9499998092651
57.7787853,-13.5299997329712
57.7944103,-14.0500001907349
57.8100353,-14.5100002288818
57.8256603,-14.9300003051758
57.8412853,-15.3599996566772
57.8569103,-15.8199996948242
57.8725353,-16.3199996948242
57.8881603,-16.8500003814697
57.9037853,-17.4099998474121
57.9194103,-18
57.9350353,-18.6100006103516
57.9506603,-19.1700000762939
57.9662853,-19.6100006103516
57.9819103,-19.8700008392334
57.9975353,-19.9300003051758
58.0131603,-19.7900009155273
58.0287853,-19.5100002288818
58.0444103,-19.1200008392334
58.0600353,-18.6599998474121
58.0756603,-18.1700000762939
58.0912853,-17.6900005340576
58.1069103,-17.2399997711182
58.1225353,-16.8799991607666
58.1381603,-16.6499996185303
58.1537853,-16.5400009155273
58.1694103,-16.4899997711182
58.1850353,-16.3899993896484
58.2006603,-16.1599998474121
58.2162853,-15.7700004577637
58.2319103,-15.2299995422363
58.2475353,-14.5699996948242
58.2631603,-13.8299999237061
58.2787853,-13.0699996948242
58.2944103,-12.3500003814697
58.3100353,-11.75
58.3256603,-11.3199996948242
58.3412853,-11.0600004196167
58.3569103,-10.8900003433228
58.3725353,-10.75
58.3881603,-10.5900001525879
58.4037853,-10.3500003814697
58.4194103,-10.0500001907349
58.4350353,-9.69999980926514
58.4506603,-9.32999992370605
58.4662853,-8.97000026702881
58.4819103,-8.64000034332275
58.4975353,-8.34000015258789
58.5131603,-8.13000011444092
58.5287853,-7.92000007629395
58.5444103,-7.75
58.5600353,-7.71999979019165
58.5756603,-7.94999980926514
58.5912853,-8.46000003814697
58.6069103,-9.15999984741211
58.6225353,-9.90999984741211
58.6381603,-10.5900001525879
58.6537853,-11.1199998855591
58.6694103,-11.460000038147
58.6850353,-11.5500001907349
58.7006603,-11.3299999237061
58.7162853,-10.8199996948242
58.7319103,-10.1099996566772
58.7475353,-9.35000038146973
58.7631603,-8.65999984741211
58.7787853,-8.09000015258789
58.7944103,-7.6100001335144
58.8100353,-7.15000009536743
58.8256603,-6.65000009536743
58.8412853,-6.09000015258789
58.8569103,-5.48000001907349
58.8725353,-4.8600001335144
58.8881603,-4.23000001907349
58.9037853,-3.57999992370605
58.9194103,-2.92000007629395
58.9350353,-2.26999998092651
58.9506603,-1.67999994754791
58.9662853,-1.20000004768372
58.9819103,-0.920000016689301
58.9975353,-0.829999983310699
59.0131603,-0.920000016689301
59.0287853,-1.19000005722046
59.0444103,-1.62999999523163
59.0600353,-2.21000003814697
59.0756603,-2.80999994277954
59.0912853,-3.26999998092651
59.1069103,-3.42000007629395
59.1225353,-3.13000011444092
59.1381603,-2.38000011444092
59.1537853,-1.19000005722046
59.1694103,0.360000014305115
59.1850353,2.20000004768372
59.2006603,4.25
59.2162853,6.38000011444092
59.2319103,8.44999980926514
59.2475353,10.3000001907349
59.2631603,11.8699998855591
59.2787853,13.210000038147
59.2944103,14.4700002670288
59.3100353,15.710000038147
59.3256603,16.8799991607666
59.3412853,17.9099998474121
59.3569103,18.7600002288818
59.3725353,19.4599990844727
59.3881603,20.0499992370605
59.4037853,20.6200008392334
59.4194103,21.2399997711182
59.4350353,21.9099998474121
59.4506603,22.5900001525879
59.4662853,23.25
59.4819103,23.8199996948242
59.4975353,24.2800006866455
59.5131603,24.8600006103516
59.5287853,25.1100006103516
59.5444103,24.8999996185303
59.5600353,24.2000007629395
59.5756603,23.1100006103516
59.5912853,21.7600002288818
59.6069103,20.2800006866455
59.6225353,18.7399997711182
59.6381603,17.2199993133545
59.6537853,15.7799997329712
59.6694103,14.4399995803833
59.6850353,13.1599998474121
59.7006603,11.8900003433228
59.7162853,10.6599998474121
59.7319103,9.52000045776367
59.7475353,8.52999973297119
59.7631603,7.67000007629395
59.7787853,6.92000007629395
59.7944103,6.23999977111816
59.8100353,5.65000009536743
59.8256603,5.17000007629395
59.8412853,4.76999998092651
59.8569103,4.3899998664856
59.8725353,3.99000000953674
59.8881603,3.54999995231628
59.9037853,3.07999992370605
59.9194103,2.61999988555908
59.9350353,2.1800000667572
59.9506603,1.78999996185303
59.9662853,1.47000002861023
59.9819103,1.21000003814697
59.9975353,1.02999997138977
60.0131603,1.01999998092651
60.0287853,1.3400000333786
60.0444103,2.16000008583069
60.0600353,3.47000002861023
60.0756603,5.1399998664856
60.0912853,6.96999979019165
60.1069103,8.93000030517578
60.1225353,11.2600002288818
60.1381603,14.1400003433228
60.1537853,17.4500007629395
60.1694103,20.7600002288818
60.1850353,23.6299991607666
60.2006603,25.8700008392334
60.2162853,27.4799995422363
60.2319103,28.4200000762939
60.2475353,28.4200000762939
60.2631603,27.1599998474121
60.2787853,24.6200008392334
60.2944103,21.1100006103516
60.3100353,17.0699996948242
60.3256603,12.8900003433228
60.3412853,8.82999992370605
60.3569103,5.07999992370605
60.3725353,1.78999996185303
60.3881603,-0.980000019073486
60.4037853,-3.34999990463257
60.4194103,-5.46000003814697
60.4350353,-7.3899998664856
60.4506603,-9.10000038146973
60.4662853,-10.539999961853
60.4819103,-11.710000038147
60.4975353,-12.6999998092651
60.5131603,-13.789999961853
60.5287853,-15.1300001144409
60.5444103,-16.9400005340576
60.5600353,-19.2399997711182
60.5756603,-21.8099994659424
60.5912853,-24.3700008392334
60.6069103,-26.6299991607666
60.6225353,-28.4699993133545
60.6381603,-29.7600002288818
60.6537853,-30.3099994659424
60.6694103,-29.8400001525879
60.6850353,-28.1299991607666
60.7006603,-25.1800003051758
60.7162853,-21.3600006103516
60.7319103,-17.2299995422363
60.7475353,-13.289999961853
60.7631603,-9.80000019073486
60.7787853,-6.78999996185303
60.7944103,-4.07000017166138
60.8100353,-1.38999998569489
60.8256603,1.4099999666214
60.8412853,4.3899998664856
60.8569103,7.34999990463257
60.8725353,10
60.8881603,12.0699996948242
60.9037853,13.4499998092651
60.9194103,14.1000003814697
60.9350353,13.8299999237061
60.9506603,12.3999996185303
60.9662853,9.61999988555908
60.9819103,5.67000007629395
60.9975353,1.10000002384186
61.0131603,-3.39000010490417
61.0287853,-7.30000019073486
61.0444103,-10.460000038147
61.0600353,-13.0200004577637
61.0756603,-15.2399997711182
61.0912853,-17.3600006103516
61.1069103,-19.5100002288818
61.1225353,-21.6599998474121
61.1381603,-23.7199993133545
61.1537853,-25.5799999237061
61.1694103,-27.1599998474121
61.1850353,-28.4300003051758
61.2006603,-29.2999992370605
61.2162853,-29.5599994659424
61.2319103,-28.9899997711182
61.2475353,-27.5300006866455
61.2631603,-25.3500003814697
61.2787853,-22.8199996948242
61.2944103,-20.3299999237061
61.3100353,-18.1399993896484
61.3256603,-16.3400001525879
61.3412853,-14.8599996566772
61.3569103,-13.5900001525879
61.3725353,-12.4899997711182
61.3881603,-11.5500001907349
61.4037853,-10.7200002670288
61.4194103,-9.9399995803833
61.4350353,-9.13000011444092
61.4506603,-8.22999954223633
61.4662853,-7.23000001907349
61.4819103,-6.17999982833862
61.4975353,-5.15000009536743
61.5131603,-4.17000007629395
61.5287853,-3.25999999046326
61.5444103,-2.44000005722046
61.5600353,-1.67999994754791
61.5756603,-0.980000019073486
61.5912853,-0.349999994039536
61.6069103,0.189999997615814
61.6225353,0.639999985694885
61.6381603,1
61.6537853,1.27999997138977
61.6694103,1.5
61.6850353,1.72000002861023
61.7006603,2.03999996185303
61.7162853,2.5
61.7319103,3.10999989509583
61.7475353,3.8199999332428
61.7631603,4.55999994277954
61.7787853,5.25
61.7944103,5.84000015258789
61.8100353,6.28000020980835
61.8256603,6.53000020980835
61.8412853,6.63000011444092
61.8569103,6.63000011444092
61.8725353,6.61999988555908
61.8881603,6.67999982833862
61.9037853,6.82999992370605
61.9194103,7.05000019073486
61.9350353,7.28999996185303
61.9506603,7.51999998092651
61.9662853,7.73999977111816
61.9819103,7.94000005722046
61.9975353,8.10999965667725
62.0131603,8.23999977111816
62.0287853,8.3100004196167
62.0444103,8.3100004196167
62.0600353,8.27999973297119
62.0756603,8.23999977111816
62.0912853,8.21000003814697
62.1069103,8.21000003814697
62.1225353,8.23999977111816
62.1381603,8.27999973297119
62.1537853,8.30000019073486
62.1694103,8.28999996185303
62.1850353,8.23999977111816
62.2006603,8.13000011444092
62.2162853,7.96999979019165
62.2319103,7.71000003814697
62.2475353,7.34000015258789
62.2631603,6.84999990463257
62.2787853,6.30000019073486
62.2944103,5.71999979019165
62.3100353,5.17000007629395
62.3256603,4.67999982833862
62.3412853,4.25
62.3569103,3.84999990463257
62.3725353,3.48000001907349
62.3881603,3.10999989509583
62.4037853,2.75999999046326
62.4194103,2.4300000667572
62.4350353,2.15000009536743
62.4506603,1.94000005722046
62.4662853,1.80999994277954
62.4819103,1.74000000953674
62.4975353,1.75
62.5131603,1.83000004291534
62.5287853,1.97000002861023
62.5444103,2.15000009536743
62.5600353,2.30999994277954
62.5756603,2.41000008583069
62.5912853,2.4300000667572
62.6069103,2.39000010490417
62.6225353,2.30999994277954
62.6381603,2.22000002861023
62.6537853,2.11999988555908
62.6694103,2.00999999046326
62.6850353,1.87000000476837
62.7006603,1.72000002861023
62.7162853,1.60000002384186
62.7319103,1.53999996185303
62.7475353,1.55999994277954
62.7631603,1.63999998569489
62.7787853,1.75999999046326
62.7944103,1.87000000476837
62.8100353,1.94000005722046
62.8256603,1.9099999666214
62.8412853,1.75
62.8569103,1.45000004768372
62.8725353,1.07000005245209
62.8881603,0.649999976158142
62.9037853,0.239999994635582
62.9194103,-0.100000001490116
62.9350353,-0.370000004768372
62.9506603,-0.569999992847443
62.9662853,-0.699999988079071
62.9819103,-0.790000021457672
62.9975353,-0.860000014305115
63.0131603,-0.930000007152557
63.0287853,-1
63.0444103,-1.08000004291534
63.0600353,-1.12000000476837
63.0756603,-1.12999999523163
63.0912853,-1.0900000333786
63.1069103,-1.00999999046326
63.1225353,-0.910000026226044
63.1381603,-0.790000021457672
63.1537853,-0.670000016689301
63.1694103,-0.550000011920929
63.1850353,-0.439999997615814
63.2006603,-0.330000013113022
63.2162853,-0.230000004172325
63.2319103,-0.140000000596046
63.2475353,-0.0799999982118607
63.2631603,-0.0299999993294477
63.2787853,-0.00999999977648258
63.2944103,-0.00999999977648258
63.3100353,-0.00999999977648258
63.3256603,-0.00999999977648258
63.3412853,-0.00999999977648258
63.3569103,0
63.3725353,0.0799999982118607
63.3881603,0.230000004172325
63.4037853,0.469999998807907
63.4194103,0.850000023841858
63.4350353,1.45000004768372
63.4506603,2.35999989509583
63.4662853,3.5699999332428
63.4819103,4.94999980926514
63.4975353,6.32000017166138
63.5131603,7.69000005722046
63.5287853,8.9399995803833
63.5444103,10.1099996566772
63.5600353,11.1300001144409
63.5756603,11.8800001144409
63.5912853,12.2799997329712
63.6069103,12.3599996566772
63.6225353,12.2200002670288
63.6381603,11.9300003051758
63.6537853,11.4700002670288
63.6694103,10.75
63.6850353,9.75
63.7006603,8.52999973297119
63.7162853,7.21999979019165
63.7319103,5.94999980926514
63.7475353,4.80000019073486
63.7631603,3.78999996185303
63.7787853,2.92000007629395
63.7944103,2.1800000667572
63.8100353,1.52999997138977
63.8256603,0.899999976158142
63.8412853,0.270000010728836
63.8569103,-0.389999985694885
63.8725353,-1.08000004291534
63.8881603,-1.76999998092651
63.9037853,-2.44000005722046
63.9194103,-3.04999995231628
63.9350353,-3.57999992370605
63.9506603,-4
63.9662853,-4.32000017166138
63.9819103,-4.55999994277954
63.9975353,-4.78000020980835
64.0131603,-4.98000001907349
64.0287853,-5.19000005722046
64.0444103,-5.42000007629395
64.0600353,-5.69000005722046
64.0756603,-6
64.0912853,-6.38000011444092
64.1069103,-6.80000019073486
64.1225353,-7.26999998092651
64.1381603,-7.80999994277954
64.1537853,-8.39000034332275
64.1694103,-8.97999954223633
64.1850353,-9.53999996185303
64.2006603,-10.0500001907349
64.2162853,-10.5100002288818
64.2319103,-10.9499998092651
64.2475353,-11.3800001144409
64.2631603,-11.7700004577637
64.2787853,-12.1000003814697
64.2944103,-12.3999996185303
64.3100353,-12.6999998092651
64.3256603,-12.960000038147
64.3412853,-13.1700000762939
64.3569103,-13.289999961853
64.3725353,-13.3199996948242
64.3881603,-13.3100004196167
64.4037853,-13.2799997329712
64.4194103,-13.210000038147
64.4350353,-13.1000003814697
64.4506603,-12.9399995803833
64.4662853,-12.7299995422363
64.4819103,-12.5299997329712
64.4975353,-12.3699998855591
64.5131603,-12.2799997329712
64.5287853,-12.3000001907349
64.5444103,-12.4499998092651
64.5600353,-12.7700004577637
64.5756603,-13.3299999237061
64.5912853,-14.0900001525879
64.6069103,-14.9300003051758
64.6225353,-15.6800003051758
64.6381603,-16.2000007629395
64.6537853,-16.5300006866455
64.6694103,-16.75
64.6850353,-16.8700008392334
64.7006603,-16.8500003814697
64.7162853,-16.6200008392334
64.7319103,-16.2000007629395
64.7475353,-15.6499996185303
64.7631603,-15.0600004196167
64.7787853,-14.5200004577637
64.7944103,-14.0600004196167
64.8100353,-13.6999998092651
64.8256603,-13.3800001144409
64.8412853,-13.0600004196167
64.8569103,-12.7200002670288
64.8725353,-12.3199996948242
64.8881603,-11.8199996948242
64.9037853,-11.1400003433228
64.9194103,-10.1800003051758
64.9350353,-8.92000007629395
64.9506603,-7.42999982833862
64.9662853,-5.84000015258789
64.9819103,-4.26000022888184
64.9975353,-2.78999996185303
65.0131603,-1.44000005722046
65.0287853,-0.209999993443489
65.0444103,0.920000016689301
65.0600353,1.99000000953674
65.0756603,2.96000003814697
65.0912853,3.82999992370605
65.1069103,4.55999994277954
65.1225353,5.07000017166138
65.1381603,5.30000019073486
65.1537853,5.23999977111816
65.1694103,5
65.1850353,4.67000007629395
65.2006603,4.34999990463257
65.2162853,4.03000020980835
65.2319103,3.73000001907349
65.2475353,3.5
65.2631603,3.45000004768372
65.2787853,3.63000011444092
65.2944103,4.01000022888184
65.3100353,4.48000001907349
65.3256603,4.88000011444092
65.3412853,5
65.3569103,4.71000003814697
65.3725353,3.99000000953674
65.3881603,2.94000005722046
65.4037853,1.64999997615814
65.4194103,0.200000002980232
65.4350353,-1.3400000333786
65.4506603,-2.78999996185303
65.4662853,-3.86999988555908
65.4819103,-4.32999992370605
65.4975353,-4.05000019073486
65.5131603,-3.17000007629395
65.5287853,-1.71000003814697
65.5444103,0.150000005960464
65.5600353,2.26999998092651
65.5756603,4.48000001907349
65.5912853,6.65000009536743
65.6069103,8.68000030517578
65.6225353,10.5200004577637
65.6381603,12.2299995422363
65.6537853,14.039999961853
65.6694103,16.2099990844727
65.6850353,18.8400001525879
65.7006603,21.8199996948242
65.7162853,24.8999996185303
65.7319103,27.8299999237061
65.7475353,30.4599990844727
65.7631603,32.689998626709
65.7787853,34.4500007629395
65.7944103,35.689998626709
65.8100353,36.4300003051758
65.8256603,36.7900009155273
65.8412853,36.9099998474121
65.8569103,36.9099998474121
65.8725353,36.8199996948242
65.8881603,36.6300010681152
65.9037853,36.2599983215332
65.9194103,35.6599998474121
65.9350353,34.9500007629395
65.9506603,34.2999992370605
65.9662853,33.8899993896484
65.9819103,33.7599983215332
65.9975353,33.8199996948242
66.0131603,33.939998626709
66.0287853,34.0200004577637
66.0444103,34.2099990844727
66.0600353,34.8699989318848
66.0756603,36.4099998474121
66.0912853,38.9099998474121
66.1069103,42.1399993896484
66.1225353,45.7599983215332
66.1381603,49.4500007629395
66.1537853,52.9700012207031
66.1694103,55.9099998474121
66.1850353,57.7299995422363
66.2006603,57.939998626709
66.2162853,56.4700012207031
66.2319103,53.6800003051758
66.2475353,50.1100006103516
66.2631603,46.2099990844727
66.2787853,42.2799987792969
66.2944103,38.4599990844727
66.3100353,34.7900009155273
66.3256603,31.1900005340576
66.3412853,27.5200004577637
66.3569103,23.6299991607666
66.3725353,19.5
66.3881603,15.2200002670288
66.4037853,10.8800001144409
66.4194103,6.57000017166138
66.4350353,2.38000011444092
66.4506603,-1.55999994277954
66.4662853,-5.09999990463257
66.4819103,-8.02999973297119
66.4975353,-10.2600002288818
66.5131603,-11.7700004577637
66.5287853,-12.7399997711182
66.5444103,-13.3500003814697
66.5600353,-13.7700004577637
66.5756603,-14.1199998855591
66.5912853,-14.4799995422363
66.6069103,-14.7799997329712
66.6225353,-14.8599996566772
66.6381603,-14.539999961853
66.6537853,-13.8000001907349
66.6694103,-12.6999998092651
66.6850353,-11.3299999237061
66.7006603,-9.77999973297119
66.7162853,-8.14000034332275
66.7319103,-6.63000011444092
66.7475353,-5.53999996185303
66.7631603,-5.15000009536743
66.7787853,-5.5
66.7944103,-6.44000005722046
66.8100353,-7.78000020980835
66.8256603,-9.35999965667725
66.8412853,-11.039999961853
66.8569103,-12.7399997711182
66.8725353,-14.3800001144409
66.8881603,-15.9300003051758
66.9037853,-17.4099998474121
66.9194103,-18.8400001525879
66.9350353,-20.2399997711182
66.9506603,-21.6700000762939
66.9662853,-23.2099990844727
66.9819103,-24.9200000762939
66.9975353,-26.7999992370605
67.0131603,-28.75
67.0287853,-30.6299991607666
67.0444103,-32.310001373291
67.0600353,-33.7799987792969
67.0756603,-35
67.0912853,-35.9599990844727
67.1069103,-36.5900001525879
67.1225353,-36.9000015258789
67.1381603,-36.9500007629395
67.1537853,-36.8499984741211
67.1694103,-36.6800003051758
67.1850353,-36.439998626709
67.2006603,-36.1100006103516
67.2162853,-35.6800003051758
67.2319103,-35.25
67.2475353,-35.0299987792969
67.2631603,-35.2299995422363
67.2787853,-35.8899993896484
67.2944103,-36.8899993896484
67.3100353,-38.0099983215332
67.3256603,-39.0900001525879
67.3412853,-40.0400009155273
67.3569103,-40.7700004577637
67.3725353,-41.1500015258789
67.3881603,-41.0200004577637
67.4037853,-40.3699989318848
67.4194103,-39.3199996948242
