Time(s),Value(%)
1421.0125088,-16.9300003051758
1421.0281338,-18.5799999237061
1421.0437588,-20.6499996185303
1421.0593838,-23.1299991607666
1421.0750088,-25.6399993896484
1421.0906338,-27.5300006866455
1421.1062588,-28.2399997711182
1421.1218838,-27.5699996948242
1421.1375088,-25.5400009155273
1421.1531338,-22.0200004577637
1421.1687588,-16.6299991607666
1421.1843838,-9.0600004196167
1421.2000088,0.449999988079071
1421.2156338,10.9200000762939
1421.2312588,20.9899997711182
1421.2468838,29.6700000762939
1421.2625088,36.6599998474121
1421.2781338,42.2700004577637
1421.2937588,46.9099998474121
1421.3093838,50.75
1421.3250088,53.7400016784668
1421.3406338,55.810001373291
1421.3562588,57.0200004577637
1421.3718838,57.4700012207031
1421.3875088,57.3199996948242
1421.4031338,56.7000007629395
1421.4187588,55.6699981689453
1421.4343838,54.1100006103516
1421.4500088,51.7400016784668
1421.4656338,48.2900009155273
1421.4812588,43.7700004577637
1421.4968838,38.5499992370605
1421.5125088,33.5999984741211
1421.5281338,28.9899997711182
1421.5437588,24.9599990844727
1421.5593838,21.4400005340576
1421.5750088,18.1399993896484
1421.5906338,14.6599998474121
1421.6062588,10.7700004577637
1421.6218838,6.51000022888184
1421.6375088,2.53999996185303
1421.6531338,0.0
1421.6687588,-0.0500000007450581
1421.6843838,2.60999989509583
1421.7000088,7.53000020980835
1421.7156338,14.0600004196167
1421.7312588,22.1100006103516
1421.7468838,32.1500015258789
1421.7625088,44.2299995422363
1421.7781338,57.2299995422363
1421.7937588,69.2200012207031
1421.8093838,78.6900024414063
1421.8250088,85.2799987792969
1421.8406338,89.75
1421.8562588,93.620002746582
1421.8718838,98.6399993896484
1421.8875088,106.040000915527
1421.9031338,115.919998168945
1421.9187588,127.639999389648
1421.9343838,140.539993286133
1421.9500088,154.169998168945
1421.9656338,167.929992675781
1421.9812588,180.259994506836
1421.9968838,188.699996948242
1422.0125088,191.490005493164
1422.0281338,189.089996337891
1422.0437588,183.729995727539
1422.0593838,177.440002441406
1422.0750088,171.089996337891
1422.0906338,164.589996337891
1422.1062588,157.600006103516
1422.1218838,149.990005493164
1422.1375088,141.910003662109
1422.1531338,133.690002441406
1422.1687588,125.650001525879
1422.1843838,117.959999084473
1422.2000088,110.73999786377
1422.2156338,104.169998168945
1422.2312588,98.4000015258789
1422.2468838,93.2799987792969
1422.2625088,88.0299987792969
1422.2781338,81.3600006103516
1422.2937588,72.3300018310547
1422.3093838,61.2400016784668
1422.3250088,49.2799987792969
1422.3406338,37.6100006103516
1422.3562588,26.7000007629395
1422.3718838,16.4500007629395
1422.3875088,6.53999996185303
1422.4031338,-3.17000007629395
1422.4187588,-12.3000001907349
1422.4343838,-19.9400005340576
1422.4500088,-25.1700000762939
1422.4656338,-27.7199993133545
1422.4812588,-27.8299999237061
1422.4968838,-25.7299995422363
1422.5125088,-21.6299991607666
1422.5281338,-16.0
1422.5437588,-10.3400001525879
1422.5593838,-6.80999994277954
1422.5750088,-6.8899998664856
1422.5906338,-10.1000003814697
1422.6062588,-14.75
1422.6218838,-19.6100006103516
1422.6375088,-24.5499992370605
1422.6531338,-29.9799995422363
1422.6687588,-36.1199989318848
1422.6843838,-42.9500007629395
1422.7000088,-50.5800018310547
1422.7156338,-59.5999984741211
1422.7312588,-70.4100036621094
1422.7468838,-82.4599990844727
1422.7625088,-94.4000015258789
1422.7781338,-105.040000915527
1422.7937588,-113.970001220703
1422.8093838,-121.480003356934
1422.8250088,-128.160003662109
1422.8406338,-134.5
1422.8562588,-140.399993896484
1422.8718838,-145.169998168945
1422.8875088,-148.050003051758
1422.9031338,-148.779998779297
1422.9187588,-147.779998779297
1422.9343838,-145.759994506836
1422.9500088,-143.380004882813
1422.9656338,-141.190002441406
1422.9812588,-140.029998779297
1422.9968838,-141.259994506836
1423.0125088,-146.210006713867
1423.0281338,-155.350006103516
1423.0437588,-167.940002441406
1423.0593838,-182.479995727539
1423.0750088,-197.289993286133
1423.0906338,-211.160003662109
1423.1062588,-223.5
1423.1218838,-234.410003662109
1423.1375088,-244.649993896484
1423.1531338,-255.490005493164
1423.1687588,-268.0
1423.1843838,-282.459991455078
1423.2000088,-298.660003662109
1423.2156338,-316.640014648438
1423.2312588,-327.679992675781
1423.2468838,-327.679992675781
1423.2625088,-327.679992675781
1423.2781338,-327.679992675781
1423.2937588,-327.679992675781
1423.3093838,-327.679992675781
1423.3250088,-327.679992675781
1423.3406338,-327.679992675781
1423.3562588,-327.679992675781
1423.3718838,-327.679992675781
1423.3875088,-327.679992675781
1423.4031338,-327.679992675781
1423.4187588,-327.679992675781
1423.4343838,-327.679992675781
1423.4500088,-327.679992675781
1423.4656338,-327.679992675781
1423.4812588,-327.679992675781
1423.4968838,-327.679992675781
1423.5125088,-327.679992675781
1423.5281338,-308.230010986328
1423.5437588,-280.359985351563
1423.5593838,-252.169998168945
1423.5750088,-223.570007324219
1423.5906338,-193.660003662109
1423.6062588,-162.029998779297
1423.6218838,-129.850006103516
1423.6375088,-99.4100036621094
1423.6531338,-72.5299987792969
1423.6687588,-49.6699981689453
1423.6843838,-30.0300006866455
1423.7000088,-12.2700004577637
1423.7156338,4.80999994277954
1423.7312588,21.8500003814697
1423.7468838,38.8899993896484
1423.7625088,55.810001373291
1423.7781338,72.6800003051758
1423.7937588,89.6900024414063
1423.8093838,106.690002441406
1423.8250088,122.629997253418
1423.8406338,135.679992675781
1423.8562588,144.300003051758
1423.8718838,148.449996948242
1423.8875088,149.389999389648
1423.9031338,148.649993896484
1423.9187588,147.210006713867
1423.9343838,145.509994506836
1423.9500088,143.679992675781
1423.9656338,141.789993286133
1423.9812588,140.009994506836
1423.9968838,138.660003662109
1424.0125088,138.020004272461
1424.0281338,138.220001220703
1424.0437588,139.320007324219
1424.0593838,141.600006103516
1424.0750088,145.289993286133
1424.0906338,150.220001220703
1424.1062588,155.580001831055
1424.1218838,160.160003662109
1424.1375088,163.330001831055
1424.1531338,165.539993286133
1424.1687588,167.789993286133
1424.1843838,170.440002441406
1424.2000088,173.020004272461
1424.2156338,174.789993286133
1424.2312588,175.360000610352
1424.2468838,174.839996337891
1424.2625088,173.660003662109
1424.2781338,172.279998779297
1424.2937588,170.979995727539
1424.3093838,169.860000610352
1424.3250088,168.949996948242
1424.3406338,168.399993896484
1424.3562588,168.360000610352
1424.3718838,168.729995727539
1424.3875088,168.860000610352
1424.4031338,167.600006103516
1424.4187588,163.979995727539
1424.4343838,157.910003662109
1424.4500088,150.160003662109
1424.4656338,141.649993896484
1424.4812588,133.039993286133
1424.4968838,124.639999389648
1424.5125088,114.319999694824
1424.5281338,104.639999389648
1424.5437588,95.2099990844727
1424.5593838,85.4000015258789
1424.5750088,74.6500015258789
1424.5906338,62.8699989318848
1424.6062588,50.2400016784668
1424.6218838,36.7999992370605
1424.6375088,22.5400009155273
1424.6531338,7.75
1424.6687588,-6.73999977111816
1424.6843838,-19.9400005340576
1424.7000088,-31.4799995422363
1424.7156338,-42.060001373291
1424.7312588,-52.6800003051758
1424.7468838,-63.4900016784668
1424.7625088,-73.6900024414063
1424.7781338,-82.3399963378906
1424.7937588,-89.0100021362305
1424.8093838,-93.9300003051758
1424.8250088,-97.629997253418
1424.8406338,-100.629997253418
1424.8562588,-103.209999084473
1424.8718838,-105.440002441406
1424.8875088,-107.25
1424.9031338,-108.580001831055
1424.9187588,-109.379997253418
1424.9343838,-109.589996337891
1424.9500088,-108.860000610352
1424.9656338,-106.470001220703
1424.9812588,-101.769996643066
1424.9968838,-94.8199996948242
1425.0125088,-86.4700012207031
1425.0281338,-77.8499984741211
1425.0437588,-70.0199966430664
1425.0593838,-63.6500015258789
1425.0750088,-58.9199981689453
1425.0906338,-55.5200004577637
1425.1062588,-52.7900009155273
1425.1218838,-50.1300010681152
1425.1375088,-47.2900009155273
1425.1531338,-44.5
1425.1687588,-42.1100006103516
1425.1843838,-40.0900001525879
1425.2000088,-38.0299987792969
1425.2156338,-35.5
1425.2312588,-32.3499984741211
1425.2468838,-28.7399997711182
1425.2625088,-25.0599994659424
1425.2781338,-21.7900009155273
1425.2937588,-19.2399997711182
1425.3093838,-17.4799995422363
1425.3250088,-16.4400005340576
1425.3406338,-16.1700000762939
1425.3562588,-16.7199993133545
1425.3718838,-17.9500007629395
1425.3875088,-19.2700004577637
1425.4031338,-19.7199993133545
1425.4187588,-18.5799999237061
1425.4343838,-15.8500003814697
1425.4500088,-12.0699996948242
1425.4656338,-7.73000001907349
1425.4812588,-3.0
1425.4968838,2.03999996185303
1425.5125088,7.23000001907349
1425.5281338,12.3199996948242
1425.5437588,17.1900005340576
1425.5593838,21.7900009155273
1425.5750088,26.1200008392334
1425.5906338,30.2999992370605
1425.6062588,34.6300010681152
1425.6218838,39.6500015258789
1425.6375088,45.8300018310547
1425.6531338,53.1699981689453
1425.6687588,61.2299995422363
1425.6843838,69.5
1425.7000088,77.9499969482422
1425.7156338,87.0299987792969
1425.7312588,97.0599975585938
1425.7468838,107.550003051758
1425.7625088,117.379997253418
1425.7781338,125.589996337891
1425.7937588,131.869995117188
1425.8093838,136.520004272461
1425.8250088,140.149993896484
1425.8406338,143.25
1425.8562588,146.070007324219
1425.8718838,148.660003662109
1425.8875088,151.020004272461
1425.9031338,153.240005493164
1425.9187588,155.429992675781
1425.9343838,157.550003051758
1425.9500088,159.179992675781
1425.9656338,159.479995727539
1425.9812588,157.729995727539
1425.9968838,153.899993896484
1426.0125088,148.570007324219
1426.0281338,142.509994506836
1426.0437588,136.300003051758
1426.0593838,130.220001220703
1426.0750088,124.349998474121
1426.0906338,118.629997253418
1426.1062588,113.0
1426.1218838,107.400001525879
1426.1375088,101.790000915527
1426.1531338,96.1900024414063
1426.1687588,90.620002746582
1426.1843838,85.0800018310547
1426.2000088,79.5500030517578
1426.2156338,74.0500030517578
1426.2312588,68.5699996948242
1426.2468838,63.0800018310547
1426.2625088,57.3699989318848
1426.2781338,51.0699996948242
1426.2937588,43.9000015258789
1426.3093838,35.9099998474121
1426.3250088,27.5599994659424
1426.3406338,19.3600006103516
1426.3562588,11.6999998092651
1426.3718838,4.76000022888184
1426.3875088,-1.39999997615814
1426.4031338,-6.63000011444092
1426.4187588,-10.8000001907349
1426.4343838,-13.8599996566772
1426.4500088,-15.6499996185303
1426.4656338,-15.6899995803833
1426.4812588,-13.4799995422363
1426.4968838,-9.10999965667725
1426.5125088,-3.23000001907349
1426.5281338,3.07999992370605
1426.5437588,9.32999992370605
1426.5593838,15.4899997711182
1426.5750088,21.5300006866455
1426.5906338,26.7900009155273
1426.6062588,30.3500003814697
1426.6218838,31.7199993133545
1426.6375088,31.1599998474121
1426.6531338,29.3700008392334
1426.6687588,26.8299999237061
1426.6843838,23.3199996948242
1426.7000088,18.3299999237061
1426.7156338,11.5900001525879
1426.7312588,3.0699999332428
1426.7468838,-7.32000017166138
1426.7625088,-19.6700000762939
1426.7781338,-33.5800018310547
1426.7937588,-48.0
1426.8093838,-61.689998626709
1426.8250088,-74.0
1426.8406338,-85.2200012207031
1426.8562588,-95.9100036621094
1426.8718838,-105.879997253418
1426.8875088,-114.309997558594
1426.9031338,-120.480003356934
1426.9187588,-124.419998168945
1426.9343838,-126.790000915527
1426.9500088,-128.610000610352
1426.9656338,-130.919998168945
1426.9812588,-134.309997558594
1426.9968838,-138.800003051758
1427.0125088,-144.100006103516
1427.0281338,-149.970001220703
1427.0437588,-156.330001831055
1427.0593838,-162.899993896484
1427.0750088,-168.789993286133
1427.0906338,-172.509994506836
1427.1062588,-172.740005493164
1427.1218838,-169.179992675781
1427.1375088,-162.570007324219
1427.1531338,-154.009994506836
1427.1687588,-144.410003662109
1427.1843838,-134.429992675781
1427.2000088,-124.51000213623
1427.2156338,-114.849998474121
1427.2312588,-105.330001831055
1427.2468838,-95.5299987792969
1427.2625088,-85.0299987792969
1427.2781338,-73.7300033569336
1427.2937588,-61.9900016784668
1427.3093838,-50.4000015258789
1427.3250088,-39.4900016784668
1427.3406338,-29.5200004577637
1427.3562588,-20.7000007629395
1427.3718838,-13.25
1427.3875088,-7.30999994277954
1427.4031338,-2.73000001907349
1427.4187588,0.970000028610229
1427.4343838,4.3899998664856
1427.4500088,8.06999969482422
1427.4656338,12.3999996185303
1427.4812588,17.5200004577637
1427.4968838,23.2299995422363
1427.5125088,29.0699996948242
1427.5281338,34.6300010681152
1427.5437588,39.7099990844727
1427.5593838,44.4500007629395
1427.5750088,49.0499992370605
1427.5906338,53.4799995422363
1427.6062588,57.4599990844727
1427.6218838,60.7299995422363
1427.6375088,63.25
1427.6531338,65.1600036621094
1427.6687588,66.6699981689453
1427.6843838,67.9100036621094
1427.7000088,68.9000015258789
1427.7156338,69.6800003051758
1427.7312588,70.3600006103516
1427.7468838,71.1999969482422
1427.7625088,72.4700012207031
1427.7781338,74.2099990844727
1427.7937588,76.1699981689453
1427.8093838,77.9000015258789
1427.8250088,79.2300033569336
1427.8406338,80.4599990844727
1427.8562588,82.0299987792969
1427.8718838,84.0500030517578
1427.8875088,86.1999969482422
1427.9031338,88.0100021362305
1427.9187588,89.1699981689453
1427.9343838,89.6900024414063
1427.9500088,89.8600006103516
1427.9656338,90.0800018310547
1427.9812588,90.6999969482422
1427.9968838,91.8300018310547
1428.0125088,93.4199981689453
1428.0281338,95.4700012207031
1428.0437588,98.0199966430664
1428.0593838,100.900001525879
1428.0750088,103.519996643066
1428.0906338,104.910003662109
1428.1062588,104.370002746582
1428.1218838,101.949996948242
1428.1375088,98.3399963378906
1428.1531338,94.1900024414063
1428.1687588,89.8099975585938
1428.1843838,85.2300033569336
1428.2000088,80.4499969482422
1428.2156338,75.5400009155273
1428.2312588,70.6399993896484
1428.2468838,65.9599990844727
1428.2625088,61.6800003051758
1428.2781338,57.8499984741211
1428.2937588,54.4799995422363
1428.3093838,51.6699981689453
1428.3250088,49.5200004577637
1428.3406338,47.9300003051758
1428.3562588,46.5099983215332
1428.3718838,44.6100006103516
1428.3875088,41.7099990844727
1428.4031338,37.7999992370605
1428.4187588,33.2000007629395
1428.4343838,28.2199993133545
1428.4500088,23.0100002288818
1428.4656338,17.6299991607666
1428.4812588,12.1300001144409
1428.4968838,6.57000017166138
1428.5125088,0.660000026226044
1428.5281338,-6.30999994277954
1428.5437588,-15.0600004196167
1428.5593838,-25.7099990844727
1428.5750088,-37.8199996948242
1428.5906338,-50.7999992370605
1428.6062588,-64.1699981689453
1428.6218838,-77.4400024414063
1428.6375088,-89.9100036621094
1428.6531338,-100.639999389648
1428.6687588,-109.089996337891
1428.6843838,-115.589996337891
1428.7000088,-121.0
1428.7156338,-125.910003662109
1428.7312588,-130.309997558594
1428.7468838,-133.940002441406
1428.7625088,-136.660003662109
1428.7781338,-138.589996337891
1428.7937588,-140.220001220703
1428.8093838,-142.25
1428.8250088,-145.289993286133
1428.8406338,-149.479995727539
1428.8562588,-154.669998168945
1428.8718838,-160.770004272461
1428.8875088,-167.729995727539
1428.9031338,-175.25
1428.9187588,-182.360000610352
1428.9343838,-187.600006103516
1428.9500088,-189.949996948242
1428.9656338,-189.660003662109
1428.9812588,-187.839996337891
1428.9968838,-185.380004882813
1429.0125088,-182.460006713867
1429.0281338,-178.899993896484
1429.0437588,-174.580001831055
1429.0593838,-169.639999389648
1429.0750088,-164.520004272461
1429.0906338,-159.869995117188
1429.1062588,-156.160003662109
1429.1218838,-153.550003051758
1429.1375088,-151.960006713867
1429.1531338,-151.460006713867
1429.1687588,-152.119995117188
1429.1843838,-153.690002441406
1429.2000088,-155.220001220703
1429.2156338,-155.199996948242
1429.2312588,-152.449996948242
1429.2468838,-146.940002441406
1429.2625088,-139.509994506836
1429.2781338,-131.0
1429.2937588,-121.800003051758
1429.3093838,-112.069999694824
1429.3250088,-101.970001220703
1429.3406338,-91.6999969482422
1429.3562588,-81.4000015258789
1429.3718838,-70.9599990844727
1429.3875088,-60.1800003051758
1429.4031338,-49.0200004577637
1429.4187588,-37.6300010681152
1429.4343838,-26.2999992370605
1429.4500088,-15.2799997329712
1429.4656338,-4.73000001907349
1429.4812588,5.30999994277954
1429.4968838,14.9200000762939
1429.5125088,25.6800003051758
1429.5281338,37.3300018310547
1429.5437588,49.9000015258789
1429.5593838,63.2299995422363
1429.5750088,76.9599990844727
1429.5906338,90.6800003051758
1429.6062588,104.110000610352
1429.6218838,117.120002746582
1429.6375088,129.789993286133
1429.6531338,142.350006103516
1429.6687588,154.990005493164
1429.6843838,167.75
1429.7000088,180.429992675781
1429.7156338,192.770004272461
1429.7312588,204.490005493164
1429.7468838,215.419998168945
1429.7625088,225.289993286133
1429.7781338,233.649993896484
1429.7937588,239.929992675781
1429.8093838,243.720001220703
1429.8250088,245.020004272461
1429.8406338,244.309997558594
1429.8562588,242.199996948242
1429.8718838,239.059997558594
1429.8875088,234.960006713867
1429.9031338,230.0
1429.9187588,224.600006103516
1429.9343838,219.490005493164
1429.9500088,215.330001831055
1429.9656338,212.300003051758
1429.9812588,210.270004272461
1429.9968838,209.059997558594
1430.0125088,208.619995117188
1430.0281338,208.830001831055
1430.0437588,209.419998168945
1430.0593838,210.080001831055
1430.0750088,210.699996948242
1430.0906338,211.550003051758
1430.1062588,213.0
1430.1218838,215.179992675781
1430.1375088,217.830001831055
1430.1531338,220.490005493164
1430.1687588,222.710006713867
1430.1843838,224.259994506836
1430.2000088,225.119995117188
1430.2156338,225.449996948242
1430.2312588,225.429992675781
1430.2468838,225.190002441406
1430.2625088,224.839996337891
1430.2781338,224.509994506836
1430.2937588,224.289993286133
1430.3093838,224.139999389648
1430.3250088,223.710006713867
1430.3406338,222.460006713867
1430.3562588,219.970001220703
1430.3718838,216.289993286133
1430.3875088,211.830001831055
1430.4031338,206.949996948242
1430.4187588,201.880004882813
1430.4343838,196.75
1430.4500088,191.669998168945
1430.4656338,186.669998168945
1430.4812588,181.630004882813
1430.4968838,176.279998779297
1430.5125088,170.419998168945
1430.5281338,164.080001831055
1430.5437588,157.419998168945
1430.5593838,150.570007324219
1430.5750088,143.580001831055
1430.5906338,136.429992675781
1430.6062588,129.130004882813
1430.6218838,121.769996643066
1430.6375088,114.459999084473
1430.6531338,107.349998474121
1430.6687588,100.529998779297
1430.6843838,94.0800018310547
1430.7000088,88.2099990844727
1430.7156338,83.3899993896484
1430.7312588,80.0400009155273
1430.7468838,78.1800003051758
1430.7625088,77.2200012207031
1430.7781338,76.3099975585938
1430.7937588,74.9100036621094
1430.8093838,73.0500030517578
1430.8250088,70.9899978637695
1430.8406338,68.5800018310547
1430.8562588,65.3300018310547
1430.8718838,60.8499984741211
1430.8875088,55.2099990844727
1430.9031338,48.7799987792969
1430.9187588,41.8600006103516
1430.9343838,34.3199996948242
1430.9500088,25.8700008392334
1430.9656338,16.3799991607666
1430.9812588,6.01000022888184
1430.9968838,-4.96999979019165
1431.0125088,-16.3199996948242
1431.0281338,-27.7700004577637
1431.0437588,-39.0
1431.0593838,-49.7599983215332
1431.0750088,-60.0
1431.0906338,-70.0
1431.1062588,-80.0199966430664
1431.1218838,-89.9700012207031
1431.1375088,-99.4700012207031
1431.1531338,-108.129997253418
1431.1687588,-115.790000915527
1431.1843838,-122.610000610352
1431.2000088,-128.889999389648
1431.2156338,-135.009994506836
1431.2312588,-141.210006713867
1431.2468838,-147.509994506836
1431.2625088,-153.860000610352
1431.2781338,-160.190002441406
1431.2937588,-166.479995727539
1431.3093838,-172.639999389648
1431.3250088,-178.320007324219
1431.3406338,-182.889999389648
1431.3562588,-185.869995117188
1431.3718838,-187.199996948242
1431.3875088,-187.270004272461
1431.4031338,-186.550003051758
1431.4187588,-185.399993896484
1431.4343838,-184.0
