Time(s),Value(%)
373.006733,-130.919998168945
373.022358,-128.350006103516
373.037983,-124.069999694824
373.053608,-119.220001220703
373.069233,-114.529998779297
373.084858,-109.879997253418
373.100483,-104.779998779297
373.116108,-98.9000015258789
373.131733,-92.2900009155273
373.147358,-85.4000015258789
373.162983,-78.870002746582
373.178608,-73.1699981689453
373.194233,-68.4499969482422
373.209858,-64.5699996948242
373.225483,-61.4199981689453
373.241108,-58.9199981689453
373.256733,-56.810001373291
373.272358,-54.310001373291
373.287983,-50.0800018310547
373.303608,-43.0699996948242
373.319233,-33.3600006103516
373.334858,-21.9799995422363
373.350483,-10.1700000762939
373.366108,1.0900000333786
373.381733,11.1599998474121
373.397358,19.6499996185303
373.412983,26.6499996185303
373.428608,32.75
373.444233,38.7299995422363
373.459858,44.9799995422363
373.475483,51.1300010681152
373.491108,56.5400009155273
373.506733,61.9500007629395
373.522358,67.0400009155273
373.537983,72.4499969482422
373.553608,78.5199966430664
373.569233,85.129997253418
373.584858,91.7099990844727
373.600483,97.5299987792969
373.616108,101.980003356934
373.631733,104.889999389648
373.647358,106.25
373.662983,105.879997253418
373.678608,103.569999694824
373.694233,99.5599975585938
373.709858,95.0599975585938
373.725483,91.9899978637695
373.741108,91.8399963378906
373.756733,94.6600036621094
373.772358,99.4199981689453
373.787983,105.199996948242
373.803608,111.720001220703
373.819233,118.959999084473
373.834858,126.790000915527
373.850483,134.869995117188
373.866108,142.759994506836
373.881733,150.139999389648
373.897358,156.899993896484
373.912983,163.009994506836
373.928608,168.360000610352
373.944233,172.589996337891
373.959858,175.350006103516
373.975483,176.660003662109
373.991108,177.130004882813
374.006733,177.820007324219
374.022358,179.419998168945
374.037983,181.800003051758
374.053608,184.259994506836
374.069233,186.380004882813
374.084858,188.279998779297
374.100483,190.259994506836
374.116108,192.509994506836
374.131733,194.889999389648
374.147358,196.970001220703
374.162983,198.089996337891
374.178608,197.779998779297
374.194233,195.910003662109
374.209858,192.5
374.225483,187.419998168945
374.241108,180.479995727539
374.256733,171.960006713867
374.272358,162.929992675781
374.287983,155.050003051758
374.303608,149.589996337891
374.319233,146.589996337891
374.334858,145.220001220703
374.350483,144.830001831055
374.366108,145.25
374.381733,146.490005493164
374.397358,148.399993896484
374.412983,150.600006103516
374.428608,152.800003051758
374.444233,154.910003662109
374.459858,157.039993286133
374.475483,159.259994506836
374.491108,161.470001220703
374.506733,163.830001831055
374.522358,165.660003662109
374.537983,166.860000610352
374.553608,167.559997558594
374.569233,168.070007324219
374.584858,168.649993896484
374.600483,169.279998779297
374.616108,169.699996948242
374.631733,169.660003662109
374.647358,169.080001831055
374.662983,168.020004272461
374.678608,166.589996337891
374.694233,164.869995117188
374.709858,162.770004272461
374.725483,160.070007324219
374.741108,156.520004272461
374.756733,152.050003051758
374.772358,146.729995727539
374.787983,140.610000610352
374.803608,133.710006713867
374.819233,126.209999084473
374.834858,118.550003051758
374.850483,111.410003662109
374.866108,105.279998779297
374.881733,100.230003356934
374.897358,95.9400024414063
374.912983,92.129997253418
374.928608,88.6500015258789
374.944233,85.4599990844727
374.959858,82.4400024414063
374.975483,79.4400024414063
374.991108,76.3499984741211
375.006733,73.0899963378906
375.022358,69.6600036621094
375.037983,66.0800018310547
375.053608,62.3199996948242
375.069233,58.2700004577637
375.084858,53.8300018310547
375.100483,48.9799995422363
375.116108,43.8699989318848
375.131733,38.7599983215332
375.147358,33.7999992370605
375.162983,28.9300003051758
375.178608,23.9799995422363
375.194233,18.8899993896484
375.209858,13.7700004577637
375.225483,8.77999973297119
375.241108,4.0
375.256733,-0.610000014305115
375.272358,-5.19000005722046
375.287983,-9.9399995803833
375.303608,-15.0299997329712
375.319233,-20.4799995422363
375.334858,-26.25
375.350483,-32.310001373291
375.366108,-38.6599998474121
375.381733,-45.2000007629395
375.397358,-51.6500015258789
375.412983,-57.5499992370605
375.428608,-62.5699996948242
375.444233,-66.7600021362305
375.459858,-70.4100036621094
375.475483,-73.7900009155273
375.491108,-77.0599975585938
375.506733,-79.5
375.522358,-82.0599975585938
375.537983,-84.7900009155273
375.553608,-87.5699996948242
375.569233,-90.1500015258789
375.584858,-92.4300003051758
375.600483,-94.5500030517578
375.616108,-96.75
375.631733,-99.1100006103516
375.647358,-101.48999786377
375.662983,-103.680000305176
375.678608,-105.550003051758
375.694233,-107.139999389648
375.709858,-108.620002746582
375.725483,-110.25
375.741108,-112.26000213623
375.756733,-114.709999084473
375.772358,-117.589996337891
375.787983,-120.970001220703
375.803608,-124.949996948242
375.819233,-129.410003662109
375.834858,-133.899993896484
375.850483,-137.720001220703
375.866108,-140.449996948242
375.881733,-142.259994506836
375.897358,-143.649993896484
375.912983,-144.899993896484
375.928608,-145.940002441406
375.944233,-146.520004272461
375.959858,-146.550003051758
375.975483,-146.110000610352
375.991108,-145.479995727539
376.006733,-144.970001220703
376.022358,-144.830001831055
376.037983,-145.119995117188
376.053608,-145.860000610352
376.069233,-147.169998168945
376.084858,-149.179992675781
376.100483,-151.779998779297
376.116108,-154.440002441406
376.131733,-156.309997558594
376.147358,-156.800003051758
376.162983,-156.050003051758
376.178608,-154.649993896484
376.194233,-153.009994506836
376.209858,-151.130004882813
376.225483,-148.839996337891
376.241108,-146.070007324219
376.256733,-142.919998168945
376.272358,-139.679992675781
376.287983,-136.720001220703
376.303608,-134.300003051758
376.319233,-132.5
376.334858,-131.350006103516
376.350483,-130.979995727539
376.366108,-131.529998779297
376.381733,-132.880004882813
376.397358,-134.410003662109
376.412983,-135.130004882813
376.428608,-134.410003662109
376.444233,-132.410003662109
376.459858,-129.820007324219
376.475483,-127.099998474121
376.491108,-124.169998168945
376.506733,-120.540000915527
376.522358,-116.370002746582
376.537983,-111.76000213623
376.553608,-106.959999084473
376.569233,-102.129997253418
376.584858,-97.3899993896484
376.600483,-92.7799987792969
376.616108,-88.4800033569336
376.631733,-84.8199996948242
376.647358,-82.1500015258789
376.662983,-80.4400024414063
376.678608,-79.1999969482422
376.694233,-77.5899963378906
376.709858,-75.0100021362305
376.725483,-71.5400009155273
376.741108,-67.6600036621094
376.756733,-63.6800003051758
376.772358,-59.5400009155273
376.787983,-55.0699996948242
376.803608,-50.2000007629395
376.819233,-45.0800018310547
376.834858,-39.9300003051758
376.850483,-34.9500007629395
376.866108,-30.25
376.881733,-25.8500003814697
376.897358,-21.8299999237061
376.912983,-18.3600006103516
376.928608,-15.6199998855591
376.944233,-13.5900001525879
376.959858,-11.8900003433228
376.975483,-9.86999988555908
376.991108,-7.05000019073486
377.006733,-3.4300000667572
377.022358,0.629999995231628
377.037983,4.84999990463257
377.053608,9.14999961853027
377.069233,13.5699996948242
377.084858,18.1000003814697
377.100483,22.6499996185303
377.116108,27.0699996948242
377.131733,31.2199993133545
377.147358,35.0499992370605
377.162983,38.5299987792969
377.178608,41.6399993896484
377.194233,44.2799987792969
377.209858,46.3600006103516
377.225483,47.8899993896484
377.241108,49.1300010681152
377.256733,50.5
377.272358,52.3199996948242
377.287983,54.6399993896484
377.303608,57.2700004577637
377.319233,60.0299987792969
377.334858,62.8699989318848
377.350483,65.75
377.366108,68.629997253418
377.381733,71.4100036621094
377.397358,73.9100036621094
377.412983,75.9199981689453
377.428608,77.2600021362305
377.444233,77.9100036621094
377.459858,77.9000015258789
377.475483,77.1900024414063
377.491108,75.75
377.506733,73.2699966430664
377.522358,70.5500030517578
377.537983,68.129997253418
377.553608,66.3399963378906
377.569233,65.1100006103516
377.584858,64.1500015258789
377.600483,63.3199996948242
377.616108,62.7000007629395
377.631733,62.439998626709
377.647358,62.5299987792969
377.662983,62.8400001525879
377.678608,63.1699981689453
377.694233,63.3400001525879
377.709858,63.2400016784668
377.725483,62.8600006103516
377.741108,62.1800003051758
377.756733,61.1100006103516
377.772358,59.5400009155273
377.787983,57.5
377.803608,55.2799987792969
377.819233,53.3400001525879
377.834858,52.0299987792969
377.850483,51.2700004577637
377.866108,50.7900009155273
377.881733,50.3400001525879
377.897358,49.810001373291
377.912983,49.0299987792969
377.928608,47.810001373291
377.944233,46.0900001525879
377.959858,44.0800018310547
377.975483,42.1699981689453
377.991108,40.5900001525879
378.006733,39.2400016784668
378.022358,37.8199996948242
378.037983,36.2599983215332
378.053608,34.7700004577637
378.069233,33.5800018310547
378.084858,32.6100006103516
378.100483,31.4799995422363
378.116108,29.8700008392334
378.131733,27.8400001525879
378.147358,25.6499996185303
378.162983,23.3700008392334
378.178608,20.7700004577637
378.194233,17.6000003814697
378.209858,13.960000038147
378.225483,10.3800001144409
378.241108,7.51000022888184
378.256733,5.73000001907349
378.272358,5.05000019073486
378.287983,5.30999994277954
378.303608,6.34000015258789
378.319233,7.96000003814697
378.334858,9.98999977111816
378.350483,12.2200002670288
378.366108,14.4499998092651
378.381733,16.5200004577637
378.397358,18.3600006103516
378.412983,19.9500007629395
378.428608,21.3099994659424
378.444233,22.4599990844727
378.459858,23.3600006103516
378.475483,23.8799991607666
378.491108,23.8700008392334
378.506733,23.5900001525879
378.522358,22.9699993133545
378.537983,22.3799991607666
378.553608,22.0599994659424
378.569233,21.9400005340576
378.584858,21.7700004577637
378.600483,21.4599990844727
378.616108,21.1200008392334
378.631733,20.9200000762939
378.647358,20.9500007629395
378.662983,21.1599998474121
378.678608,21.3999996185303
378.694233,21.4899997711182
378.709858,21.3400001525879
378.725483,20.8999996185303
378.741108,20.1499996185303
378.756733,18.9899997711182
378.772358,17.3400001525879
378.787983,15.2299995422363
378.803608,12.9700002670288
378.819233,11.0600004196167
378.834858,9.9399995803833
378.850483,9.69999980926514
378.866108,10.1400003433228
378.881733,11.0299997329712
378.897358,12.2299995422363
378.912983,13.6400003433228
378.928608,15.1499996185303
378.944233,16.6200008392334
378.959858,17.9400005340576
378.975483,19.0300006866455
378.991108,19.8400001525879
379.006733,20.3999996185303
379.022358,20.7700004577637
379.037983,21.0200004577637
379.053608,21.1800003051758
379.069233,21.25
379.084858,21.0499992370605
379.100483,20.2099990844727
379.116108,18.4300003051758
379.131733,15.6199998855591
379.147358,11.9700002670288
379.162983,7.65999984741211
379.178608,2.84999990463257
379.194233,-2.24000000953674
379.209858,-7.17000007629395
379.225483,-11.289999961853
379.241108,-14.1499996185303
379.256733,-15.8299999237061
379.272358,-16.8299999237061
379.287983,-17.5300006866455
379.303608,-18.1000003814697
379.319233,-18.6100006103516
379.334858,-19.1599998474121
379.350483,-19.7999992370605
379.366108,-20.4200000762939
379.381733,-20.7700004577637
379.397358,-20.7199993133545
379.412983,-20.4799995422363
379.428608,-20.4799995422363
379.444233,-20.9099998474121
379.459858,-21.6700000762939
379.475483,-22.4899997711182
379.491108,-23.1299991607666
379.506733,-23.6499996185303
379.522358,-23.9599990844727
379.537983,-24.2099990844727
379.553608,-24.5100002288818
379.569233,-24.9500007629395
379.584858,-25.6700000762939
379.600483,-26.9500007629395
379.616108,-29.0200004577637
379.631733,-31.8700008392334
379.647358,-35.0299987792969
379.662983,-37.75
379.678608,-39.4700012207031
379.694233,-40.2200012207031
379.709858,-40.3699989318848
379.725483,-40.1800003051758
379.741108,-39.6100006103516
379.756733,-38.5699996948242
379.772358,-37.0800018310547
379.787983,-35.2900009155273
379.803608,-33.4599990844727
379.819233,-31.8199996948242
379.834858,-30.5
379.850483,-29.5100002288818
379.866108,-28.8199996948242
379.881733,-28.4599990844727
379.897358,-28.4599990844727
379.912983,-28.7900009155273
379.928608,-29.1399993896484
379.944233,-29.0599994659424
379.959858,-28.2399997711182
379.975483,-26.8299999237061
379.991108,-25.2800006866455
380.006733,-23.9400005340576
380.022358,-22.8400001525879
380.037983,-21.8099994659424
380.053608,-20.6900005340576
380.069233,-19.4500007629395
380.084858,-18.2399997711182
380.100483,-17.3500003814697
380.116108,-17.0599994659424
380.131733,-17.4599990844727
380.147358,-18.4899997711182
380.162983,-20.1200008392334
380.178608,-22.3600006103516
380.194233,-25.0300006866455
380.209858,-27.6599998474121
380.225483,-29.5
380.241108,-30.0699996948242
380.256733,-29.5300006866455
380.272358,-28.4699993133545
380.287983,-27.3600006103516
380.303608,-26.2600002288818
380.319233,-25.0499992370605
380.334858,-23.5799999237061
380.350483,-21.8700008392334
380.366108,-20.0100002288818
380.381733,-18.1100006103516
380.397358,-16.2299995422363
380.412983,-14.4099998474121
380.428608,-12.75
380.444233,-11.4300003051758
380.459858,-10.6300001144409
380.475483,-10.3299999237061
380.491108,-10.2200002670288
380.506733,-9.89999961853027
380.522358,-8.85999965667725
380.537983,-7.13000011444092
380.553608,-5.05999994277954
380.569233,-2.92000007629395
380.584858,-0.800000011920929
380.600483,1.36000001430511
380.616108,3.63000011444092
380.631733,5.94999980926514
380.647358,8.22000026702881
380.662983,10.25
380.678608,11.8900003433228
380.694233,13.1199998855591
380.709858,13.9700002670288
380.725483,14.4700002670288
380.741108,14.6300001144409
380.756733,14.539999961853
380.772358,14.4399995803833
380.787983,14.7299995422363
380.803608,15.6999998092651
380.819233,17.2399997711182
380.834858,18.9899997711182
380.850483,20.6100006103516
380.866108,21.9300003051758
380.881733,22.8799991607666
380.897358,23.4300003051758
380.912983,23.6399993896484
380.928608,23.7000007629395
380.944233,23.9400005340576
380.959858,24.5900001525879
380.975483,25.7000007629395
380.991108,27.1200008392334
381.006733,28.7199993133545
381.022358,30.4400005340576
381.037983,32.2400016784668
381.053608,34.0400009155273
381.069233,35.7700004577637
381.084858,37.3400001525879
381.100483,38.6599998474121
381.116108,39.689998626709
381.131733,40.4500007629395
381.147358,40.9199981689453
381.162983,41.0400009155273
381.178608,40.7299995422363
381.194233,40.0200004577637
381.209858,39.0499992370605
381.225483,38.0499992370605
381.241108,37.189998626709
381.256733,36.4500007629395
381.272358,35.75
381.287983,35.060001373291
381.303608,34.4599990844727
381.319233,34.0200004577637
381.334858,33.7400016784668
381.350483,33.5200004577637
381.366108,33.2099990844727
381.381733,32.6199989318848
381.397358,31.6000003814697
381.412983,30.1700000762939
381.428608,28.4400005340576
381.444233,26.5799999237061
381.459858,24.7099990844727
381.475483,22.9400005340576
381.491108,21.3700008392334
381.506733,20.2800006866455
381.522358,19.8500003814697
381.537983,20.2399997711182
381.553608,21.3999996185303
381.569233,23.0799999237061
381.584858,24.9500007629395
381.600483,26.7099990844727
381.616108,28.1900005340576
381.631733,29.3199996948242
381.647358,30.1200008392334
381.662983,30.5499992370605
381.678608,30.5499992370605
381.694233,30.1499996185303
381.709858,29.4200000762939
381.725483,28.4500007629395
381.741108,27.3199996948242
381.756733,26.1000003814697
381.772358,24.7999992370605
381.787983,23.4300003051758
381.803608,21.9699993133545
381.819233,20.4300003051758
381.834858,18.8799991607666
381.850483,17.3799991607666
381.866108,15.9899997711182
381.881733,14.7200002670288
381.897358,13.5299997329712
381.912983,12.3500003814697
381.928608,11.1300001144409
381.944233,9.8100004196167
381.959858,8.36999988555908
381.975483,6.84000015258789
381.991108,5.40999984741211
382.006733,4.42999982833862
382.022358,4.17999982833862
382.037983,4.71999979019165
382.053608,5.80999994277954
382.069233,7.15000009536743
382.084858,8.6899995803833
382.100483,10.7600002288818
382.116108,13.6599998474121
382.131733,17.2099990844727
382.147358,20.8099994659424
382.162983,23.8199996948242
382.178608,25.9300003051758
382.194233,27.2199993133545
382.209858,27.9500007629395
382.225483,28.3799991607666
382.241108,28.6700000762939
382.256733,28.8700008392334
382.272358,29.0900001525879
382.287983,29.5900001525879
382.303608,30.6100006103516
382.319233,32.1399993896484
382.334858,33.7299995422363
382.350483,34.6199989318848
382.366108,34.2799987792969
382.381733,32.8800010681152
382.397358,31.0300006866455
382.412983,29.1900005340576
382.428608,27.3899993896484
382.444233,25.4300003051758
382.459858,23.1599998474121
382.475483,20.5699996948242
382.491108,17.8400001525879
382.506733,15.2700004577637
382.522358,13.0600004196167
382.537983,11.3400001525879
382.553608,10.3800001144409
382.569233,10.75
382.584858,12.9799995422363
382.600483,17.0100002288818
382.616108,21.9300003051758
382.631733,26.3999996185303
382.647358,29.6200008392334
382.662983,31.9799995422363
382.678608,34.3600006103516
382.694233,36.9599990844727
382.709858,39.1300010681152
382.725483,40.0699996948242
382.741108,39.4700012207031
382.756733,37.6599998474121
382.772358,35.3199996948242
382.787983,33.189998626709
382.803608,31.7199993133545
382.819233,31.0300006866455
382.834858,31.1700000762939
382.850483,32.4300003051758
382.866108,35.1399993896484
382.881733,39.1399993896484
382.897358,43.3300018310547
382.912983,45.939998626709
382.928608,45.6100006103516
382.944233,42.4599990844727
382.959858,37.5999984741211
382.975483,32.0099983215332
382.991108,25.9599990844727
383.006733,19.3600006103516
383.022358,12.210000038147
383.037983,4.73000001907349
383.053608,-2.52999997138977
383.069233,-8.88000011444092
383.084858,-13.7700004577637
383.100483,-17.0599994659424
383.116108,-18.6000003814697
383.131733,-17.9300003051758
383.147358,-14.5699996948242
383.162983,-8.77000045776367
383.178608,-1.95000004768372
383.194233,3.70000004768372
383.209858,6.73000001907349
383.225483,7.3600001335144
383.241108,6.80000019073486
383.256733,5.69000005722046
383.272358,3.92000007629395
383.287983,1.44000005722046
383.303608,-1.30999994277954
383.319233,-3.89000010490417
383.334858,-6.44999980926514
383.350483,-9.96000003814697
383.366108,-15.3599996566772
383.381733,-22.6900005340576
383.397358,-31.1900005340576
383.412983,-40.1699981689453
383.428608,-49.310001373291
383.444233,-58.5900001525879
383.459858,-67.9400024414063
383.475483,-77.1500015258789
383.491108,-85.9100036621094
383.506733,-93.8399963378906
383.522358,-100.669998168945
383.537983,-106.360000610352
383.553608,-110.879997253418
383.569233,-114.050003051758
383.584858,-115.669998168945
383.600483,-115.870002746582
383.616108,-115.400001525879
383.631733,-115.339996337891
383.647358,-116.150001525879
383.662983,-117.01000213623
383.678608,-116.599998474121
383.694233,-114.389999389648
383.709858,-111.019996643066
383.725483,-107.610000610352
383.741108,-104.98999786377
383.756733,-103.279998779297
383.772358,-101.75
383.787983,-99.0400009155273
383.803608,-93.9499969482422
383.819233,-86.1500015258789
383.834858,-75.9000015258789
383.850483,-63.4000015258789
383.866108,-48.7599983215332
383.881733,-32.6599998474121
383.897358,-17.0599994659424
383.912983,-5.0
383.928608,1.24000000953674
383.944233,1.96000003814697
383.959858,-0.75
383.975483,-4.94999980926514
383.991108,-9.88000011444092
384.006733,-15.5299997329712
384.022358,-21.9300003051758
384.037983,-28.8299999237061
384.053608,-35.6699981689453
384.069233,-41.810001373291
384.084858,-46.7799987792969
384.100483,-50.4099998474121
384.116108,-52.4799995422363
384.131733,-52.4099998474121
384.147358,-49.6199989318848
