Time(s),Value(%)
373.006733,-15.1899995803833
373.022358,-12.4899997711182
373.037983,-8.0
373.053608,-0.970000028610229
373.069233,8.07999992370605
373.084858,17.3999996185303
373.100483,24.9799995422363
373.116108,29.7099990844727
373.131733,31.8099994659424
373.147358,32.3499984741211
373.162983,32.2900009155273
373.178608,31.8400001525879
373.194233,30.2900009155273
373.209858,26.5799999237061
373.225483,20.0900001525879
373.241108,11.1999998092651
373.256733,1.29999995231628
373.272358,-7.78000020980835
373.287983,-14.460000038147
373.303608,-18.0200004577637
373.319233,-18.9200000762939
373.334858,-18.2999992370605
373.350483,-17.25
373.366108,-16.3299999237061
373.381733,-15.6599998474121
373.397358,-15.210000038147
373.412983,-15.0799999237061
373.428608,-15.5200004577637
373.444233,-16.6399993896484
373.459858,-18.3500003814697
373.475483,-20.4200000762939
373.491108,-22.5100002288818
373.506733,-24.2199993133545
373.522358,-25.25
373.537983,-25.3600006103516
373.553608,-24.0599994659424
373.569233,-20.6299991607666
373.584858,-14.6300001144409
373.600483,-6.42999982833862
373.616108,2.73000001907349
373.631733,11.2799997329712
373.647358,17.9899997711182
373.662983,22.6000003814697
373.678608,25.5400009155273
373.694233,27.2900009155273
373.709858,28.0400009155273
373.725483,27.8400001525879
373.741108,26.8500003814697
373.756733,25.1000003814697
373.772358,22.2099990844727
373.787983,17.6900005340576
373.803608,11.5799999237061
373.819233,4.67999982833862
373.834858,-1.83000004291534
373.850483,-6.90999984741211
373.866108,-9.89000034332275
373.881733,-10.75
373.897358,-10.1199998855591
373.912983,-9.02000045776367
373.928608,-8.64000034332275
373.944233,-9.76000022888184
373.959858,-12.5299997329712
373.975483,-16.4500007629395
373.991108,-20.5699996948242
374.006733,-23.7000007629395
374.022358,-24.9799995422363
374.037983,-24.3299999237061
374.053608,-22.5300006866455
374.069233,-20.6800003051758
374.084858,-19.5699996948242
374.100483,-19.3099994659424
374.116108,-19.1100006103516
374.131733,-17.2399997711182
374.147358,-11.8599996566772
374.162983,-2.44000005722046
374.178608,9.35999965667725
374.194233,20.6700000762939
374.209858,29.1299991607666
374.225483,34.1100006103516
374.241108,36.310001373291
374.256733,36.75
374.272358,36.0499992370605
374.287983,34.3499984741211
374.303608,31.6000003814697
374.319233,27.8299999237061
374.334858,23.2099990844727
374.350483,18.0699996948242
374.366108,12.7799997329712
374.381733,7.55000019073486
374.397358,2.4300000667572
374.412983,-2.53999996185303
374.428608,-7.03999996185303
374.444233,-10.5699996948242
374.459858,-13.0
374.475483,-14.7799997329712
374.491108,-16.6499996185303
374.506733,-19.1100006103516
374.522358,-21.9599990844727
374.537983,-24.3600006103516
374.553608,-25.3400001525879
374.569233,-24.4400005340576
374.584858,-22.0400009155273
374.600483,-19.0300006866455
374.616108,-16.3500003814697
374.631733,-14.6000003814697
374.647358,-13.9700002670288
374.662983,-14.0299997329712
374.678608,-13.6999998092651
374.694233,-11.7200002670288
374.709858,-7.32000017166138
374.725483,-0.829999983310699
374.741108,6.51000022888184
374.756733,13.3400001525879
374.772358,18.7900009155273
374.787983,22.6900005340576
374.803608,25.1100006103516
374.819233,26.0599994659424
374.834858,25.3899993896484
374.850483,23.1900005340576
374.866108,20.1000003814697
374.881733,16.9799995422363
374.897358,14.1499996185303
374.912983,11.3599996566772
374.928608,8.44999980926514
374.944233,5.61999988555908
374.959858,3.11999988555908
374.975483,0.980000019073486
374.991108,-0.899999976158142
375.006733,-2.74000000953674
375.022358,-4.94999980926514
375.037983,-7.80000019073486
375.053608,-10.9700002670288
375.069233,-13.7299995422363
375.084858,-15.4399995803833
375.100483,-15.9700002670288
375.116108,-15.5900001525879
375.131733,-14.8500003814697
375.147358,-14.4499998092651
375.162983,-15.039999961853
375.178608,-16.7900009155273
375.194233,-19.0400009155273
375.209858,-20.6200008392334
375.225483,-20.3099994659424
375.241108,-17.2900009155273
375.256733,-11.3299999237061
375.272358,-2.86999988555908
375.287983,6.94999980926514
375.303608,16.7199993133545
375.319233,25.0599994659424
375.334858,30.9699993133545
375.350483,33.9599990844727
375.366108,34.2700004577637
375.381733,32.5800018310547
375.397358,29.5699996948242
375.412983,25.7399997711182
375.428608,21.3600006103516
375.444233,16.4400005340576
375.459858,10.8599996566772
375.475483,4.71999979019165
375.491108,-1.39999997615814
375.506733,-6.65999984741211
375.522358,-10.289999961853
375.537983,-12.0
375.553608,-12.2299995422363
375.569233,-11.8800001144409
375.584858,-11.8100004196167
375.600483,-12.460000038147
375.616108,-13.6700000762939
375.631733,-14.9099998474121
375.647358,-15.6199998855591
375.662983,-15.6700000762939
375.678608,-15.4300003051758
375.694233,-15.3699998855591
375.709858,-15.5500001907349
375.725483,-15.4799995422363
375.741108,-14.7399997711182
375.756733,-13.5600004196167
375.772358,-12.4899997711182
375.787983,-11.6300001144409
375.803608,-10.1499996185303
375.819233,-6.67999982833862
375.834858,-0.490000009536743
375.850483,7.71999979019165
375.866108,16.1800003051758
375.881733,23.0100002288818
375.897358,27.2099990844727
375.912983,28.8500003814697
375.928608,28.8199996948242
375.944233,28.3500003814697
375.959858,28.3400001525879
375.975483,28.8099994659424
375.991108,28.9899997711182
376.006733,27.8999996185303
376.022358,24.8700008392334
376.037983,19.7700004577637
376.053608,13.0699996948242
376.069233,5.78000020980835
376.084858,-0.879999995231628
376.100483,-6.01000022888184
376.116108,-9.36999988555908
376.131733,-11.2799997329712
376.147358,-12.25
376.162983,-12.789999961853
376.178608,-13.460000038147
376.194233,-14.6499996185303
376.209858,-16.2000007629395
376.225483,-17.4799995422363
376.241108,-17.8899993896484
376.256733,-17.2900009155273
376.272358,-16.1000003814697
376.287983,-14.9399995803833
376.303608,-14.0600004196167
376.319233,-13.2399997711182
376.334858,-12.0299997329712
376.350483,-9.9399995803833
376.366108,-6.51000022888184
376.381733,-1.53999996185303
376.397358,4.55000019073486
376.412983,10.7200002670288
376.428608,15.7200002670288
376.444233,18.7999992370605
376.459858,19.8400001525879
376.475483,19.3099994659424
376.491108,18.0200004577637
376.506733,16.7000007629395
376.522358,15.5299997329712
376.537983,14.1199998855591
376.553608,12.0500001907349
376.569233,9.34000015258789
376.584858,6.44000005722046
376.600483,3.75
376.616108,1.44000005722046
376.631733,-0.46000000834465
376.647358,-2.03999996185303
376.662983,-3.58999991416931
376.678608,-5.61999988555908
376.694233,-8.22999954223633
376.709858,-10.7399997711182
376.725483,-12.1800003051758
376.741108,-12.3299999237061
376.756733,-11.9200000762939
376.772358,-11.9700002670288
376.787983,-12.9200000762939
376.803608,-14.3299999237061
376.819233,-15.460000038147
376.834858,-16.1100006103516
376.850483,-16.5900001525879
376.866108,-17.1599998474121
376.881733,-17.5699996948242
376.897358,-17.3299999237061
376.912983,-15.8900003433228
376.928608,-12.5799999237061
376.944233,-6.69000005722046
376.959858,1.97000002861023
376.975483,12.3900003433228
376.991108,22.3700008392334
377.006733,29.5699996948242
377.022358,32.5699996948242
377.037983,31.5599994659424
377.053608,27.9799995422363
377.069233,23.6599998474121
377.084858,19.7999992370605
377.100483,16.5799999237061
377.116108,13.4899997711182
377.131733,9.9399995803833
377.147358,5.86999988555908
377.162983,1.62000000476837
377.178608,-2.46000003814697
377.194233,-6.23000001907349
377.209858,-9.48999977111816
377.225483,-11.9799995422363
377.241108,-13.6999998092651
377.256733,-15.1400003433228
377.272358,-16.8600006103516
377.287983,-19.0499992370605
377.303608,-21.4200000762939
377.319233,-23.4899997711182
377.334858,-24.6900005340576
377.350483,-24.4400005340576
377.366108,-22.5599994659424
377.381733,-19.5900001525879
377.397358,-16.5100002288818
377.412983,-14.1899995803833
377.428608,-13.0100002288818
377.444233,-12.7200002670288
377.459858,-12.4499998092651
377.475483,-10.9899997711182
377.491108,-7.36999988555908
377.506733,-1.4099999666214
377.522358,6.23999977111816
377.537983,14.3100004196167
377.553608,21.2299995422363
377.569233,25.8400001525879
377.584858,28.1200008392334
377.600483,29.0900001525879
377.616108,29.8099994659424
377.631733,30.4099998474121
377.647358,30.0
377.662983,27.5100002288818
377.678608,22.5300006866455
377.694233,15.789999961853
377.709858,8.82999992370605
377.725483,3.23000001907349
377.741108,-0.239999994635582
377.756733,-2.17000007629395
377.772358,-3.92000007629395
377.787983,-6.46999979019165
377.803608,-9.69999980926514
377.819233,-12.8000001907349
377.834858,-15.1700000762939
377.850483,-16.6800003051758
377.866108,-17.5599994659424
377.881733,-18.1599998474121
377.897358,-18.8600006103516
377.912983,-19.8999996185303
377.928608,-21.1599998474121
377.944233,-22.0799999237061
377.959858,-22.0499992370605
377.975483,-20.8999996185303
377.991108,-18.7000007629395
378.006733,-15.2299995422363
378.022358,-10.0299997329712
378.037983,-3.08999991416931
378.053608,4.8600001335144
378.069233,12.6800003051758
378.084858,19.1399993896484
378.100483,23.4200000762939
378.116108,25.5200004577637
378.131733,26.3700008392334
378.147358,27.1299991607666
378.162983,28.2700004577637
378.178608,29.2800006866455
378.194233,28.9599990844727
378.209858,26.0799999237061
378.225483,20.2600002288818
378.241108,12.4399995803833
378.256733,4.40999984741211
378.272358,-2.1800000667572
378.287983,-6.48999977111816
378.303608,-8.57999992370605
378.319233,-9.35000038146973
378.334858,-9.97999954223633
378.350483,-11.0600004196167
378.366108,-12.2799997329712
378.381733,-13.039999961853
378.397358,-13.1700000762939
378.412983,-13.1300001144409
378.428608,-13.6400003433228
378.444233,-15.25
378.459858,-18.1499996185303
378.475483,-21.9899997711182
378.491108,-25.7600002288818
378.506733,-28.2299995422363
378.522358,-28.5799999237061
378.537983,-26.6000003814697
378.553608,-22.3700008392334
378.569233,-15.960000038147
378.584858,-7.75
378.600483,1.3400000333786
378.616108,10.1099996566772
378.631733,17.6299991607666
378.647358,23.6100006103516
378.662983,28.0499992370605
378.678608,31.0100002288818
378.694233,32.4700012207031
378.709858,32.5400009155273
378.725483,31.4099998474121
378.741108,29.0900001525879
378.756733,25.4099998474121
378.772358,20.2399997711182
378.787983,13.8900003433228
378.803608,7.26000022888184
378.819233,1.54999995231628
378.834858,-2.46000003814697
378.850483,-4.75
378.866108,-5.8600001335144
378.881733,-6.6399998664856
378.897358,-8.03999996185303
378.912983,-10.710000038147
378.928608,-14.4200000762939
378.944233,-17.9400005340576
378.959858,-19.75
378.975483,-19.25
378.991108,-17.2000007629395
379.006733,-15.1199998855591
379.022358,-13.9700002670288
379.037983,-13.6300001144409
379.053608,-13.3800001144409
379.069233,-12.8299999237061
379.084858,-11.960000038147
379.100483,-10.8699998855591
379.116108,-9.22000026702881
379.131733,-6.23999977111816
379.147358,-1.36000001430511
379.162983,5.21999979019165
379.178608,12.6899995803833
379.194233,19.9300003051758
379.209858,25.7600002288818
379.225483,29.3299999237061
379.241108,30.2999992370605
379.256733,28.9500007629395
379.272358,25.8899993896484
379.287983,21.6299991607666
379.303608,16.3199996948242
379.319233,9.9399995803833
379.334858,2.86999988555908
379.350483,-3.80999994277954
379.366108,-8.81999969482422
379.381733,-11.3199996948242
379.397358,-11.5900001525879
379.412983,-10.789999961853
379.428608,-10.3500003814697
379.444233,-11.1000003814697
379.459858,-12.8400001525879
379.475483,-14.6899995803833
379.491108,-15.9099998474121
379.506733,-16.3199996948242
379.522358,-16.1399993896484
379.537983,-15.710000038147
379.553608,-15.3000001907349
379.569233,-14.9499998092651
379.584858,-14.4099998474121
379.600483,-13.460000038147
379.616108,-12.1400003433228
379.631733,-10.5200004577637
379.647358,-8.23999977111816
379.662983,-4.61999988555908
379.678608,0.579999983310699
379.694233,6.98999977111816
379.709858,13.8999996185303
379.725483,20.6700000762939
379.741108,26.6499996185303
379.756733,31.1499996185303
379.772358,33.7799987792969
379.787983,34.6300010681152
379.803608,34.0
379.819233,32.0200004577637
379.834858,28.6499996185303
379.850483,24.0699996948242
379.866108,18.9799995422363
379.881733,14.1499996185303
379.897358,9.89999961853027
379.912983,5.94999980926514
379.928608,1.92999994754791
379.944233,-2.24000000953674
379.959858,-6.3899998664856
379.975483,-10.3900003433228
379.991108,-14.3100004196167
380.006733,-18.1499996185303
380.022358,-21.75
380.037983,-24.7700004577637
380.053608,-26.8999996185303
380.069233,-27.9799995422363
380.084858,-28.0400009155273
380.100483,-27.0799999237061
380.116108,-25.0900001525879
380.131733,-22.2600002288818
380.147358,-19.1299991607666
380.162983,-16.4099998474121
380.178608,-14.5299997329712
380.194233,-13.2700004577637
380.209858,-11.6599998474121
380.225483,-8.32999992370605
380.241108,-2.29999995231628
380.256733,6.23000001907349
380.272358,15.7200002670288
380.287983,24.0499992370605
380.303608,29.6200008392334
380.319233,31.8400001525879
380.334858,31.0499992370605
380.350483,28.2900009155273
380.366108,24.7700004577637
380.381733,21.2000007629395
380.397358,17.6100006103516
380.412983,13.6599998474121
380.428608,9.32999992370605
380.444233,5.0
380.459858,1.30999994277954
380.475483,-1.25
380.491108,-2.63000011444092
380.506733,-3.24000000953674
380.522358,-3.71000003814697
380.537983,-4.5
380.553608,-5.69000005722046
380.569233,-7.19999980926514
380.584858,-9.0
380.600483,-11.1599998474121
380.616108,-13.6599998474121
380.631733,-16.2700004577637
380.647358,-18.6900005340576
380.662983,-20.6900005340576
380.678608,-22.1200008392334
380.694233,-22.6900005340576
380.709858,-21.8999996185303
380.725483,-19.2399997711182
380.741108,-14.6800003051758
380.756733,-8.89999961853027
380.772358,-2.95000004768372
380.787983,2.50999999046326
380.803608,7.59999990463257
380.819233,12.6700000762939
380.834858,17.7999992370605
380.850483,22.6200008392334
380.866108,26.4799995422363
380.881733,28.7800006866455
380.897358,29.1700000762939
380.912983,27.6499996185303
380.928608,24.2700004577637
380.944233,19.1299991607666
380.959858,12.7200002670288
380.975483,6.01999998092651
380.991108,0.129999995231628
381.006733,-4.28000020980835
381.022358,-7.32000017166138
381.037983,-9.63000011444092
381.053608,-11.9899997711182
381.069233,-14.8299999237061
381.084858,-18.0799999237061
381.100483,-21.1399993896484
381.116108,-23.1000003814697
381.131733,-23.2800006866455
381.147358,-21.6100006103516
381.162983,-18.6800003051758
381.178608,-15.4899997711182
381.194233,-12.9799995422363
381.209858,-11.6599998474121
381.225483,-11.4399995803833
381.241108,-11.8500003814697
381.256733,-12.2299995422363
381.272358,-11.8199996948242
381.287983,-9.60999965667725
381.303608,-4.78000020980835
381.319233,2.58999991416931
381.334858,11.3299999237061
381.350483,19.6200008392334
381.366108,25.9300003051758
381.381733,29.5400009155273
381.397358,30.5900001525879
381.412983,29.7999992370605
381.428608,28.3199996948242
381.444233,27.2600002288818
381.459858,26.9200000762939
381.475483,26.3199996948242
381.491108,23.8400001525879
381.506733,18.5300006866455
381.522358,11.0500001907349
381.537983,3.34999990463257
381.553608,-2.55999994277954
381.569233,-5.88000011444092
381.584858,-7.17999982833862
381.600483,-7.90999984741211
381.616108,-9.26000022888184
381.631733,-11.5799999237061
381.647358,-14.3800001144409
381.662983,-16.8899993896484
381.678608,-18.4200000762939
381.694233,-18.7600002288818
381.709858,-18.1900005340576
381.725483,-17.0599994659424
381.741108,-15.6099996566772
381.756733,-14.1000003814697
381.772358,-12.8699998855591
381.787983,-12.0100002288818
381.803608,-11.1899995803833
381.819233,-9.71000003814697
381.834858,-6.96000003814697
381.850483,-2.64000010490417
381.866108,3.09999990463257
381.881733,9.59000015258789
381.897358,15.789999961853
381.912983,20.9200000762939
381.928608,24.6700000762939
381.944233,27.0699996948242
381.959858,28.0499992370605
381.975483,27.4400005340576
381.991108,25.1499996185303
382.006733,21.4200000762939
382.022358,16.5599994659424
382.037983,10.8100004196167
382.053608,4.53999996185303
382.069233,-1.37000000476837
382.084858,-5.96000003814697
382.100483,-8.77999973297119
382.116108,-10.2600002288818
382.131733,-11.4200000762939
382.147358,-13.0
382.162983,-15.1099996566772
382.178608,-17.3500003814697
382.194233,-19.2299995422363
382.209858,-20.1900005340576
382.225483,-19.9200000762939
382.241108,-18.6200008392334
382.256733,-17.0100002288818
382.272358,-16.0400009155273
382.287983,-16.2999992370605
382.303608,-17.7800006866455
382.319233,-19.7099990844727
382.334858,-20.7900009155273
382.350483,-19.5499992370605
382.366108,-14.8800001144409
382.381733,-6.61999988555908
382.397358,4.17999982833862
382.412983,15.3100004196167
382.428608,24.1399993896484
382.444233,28.9300003051758
382.459858,29.8799991607666
382.475483,28.6299991607666
382.491108,26.75
382.506733,24.4599990844727
382.522358,21.2000007629395
382.537983,17.0499992370605
382.553608,13.0500001907349
382.569233,10.0200004577637
382.584858,7.78999996185303
382.600483,5.53999996185303
382.616108,2.65000009536743
382.631733,-0.699999988079071
382.647358,-3.84999990463257
382.662983,-6.07999992370605
382.678608,-7.07000017166138
382.694233,-7.17999982833862
382.709858,-7.46000003814697
382.725483,-9.05000019073486
382.741108,-12.5
382.756733,-17.4099998474121
382.772358,-22.6700000762939
382.787983,-26.9500007629395
382.803608,-29.3799991607666
382.819233,-29.9200000762939
382.834858,-29.0100002288818
382.850483,-27.1100006103516
382.866108,-24.5100002288818
382.881733,-21.2900009155273
382.897358,-17.2399997711182
382.912983,-11.7600002288818
382.928608,-4.13000011444092
382.944233,5.67000007629395
382.959858,16.3899993896484
382.975483,25.8600006103516
382.991108,32.2799987792969
383.006733,35.2299995422363
383.022358,35.5499992370605
383.037983,34.4700012207031
383.053608,32.75
383.069233,30.5200004577637
383.084858,27.5300006866455
383.100483,23.5200004577637
383.116108,18.4400005340576
383.131733,12.6400003433228
383.147358,6.80000019073486
383.162983,1.5900000333786
383.178608,-2.65000009536743
383.194233,-5.8600001335144
383.209858,-7.94999980926514
383.225483,-9.01000022888184
383.241108,-9.53999996185303
383.256733,-10.25
383.272358,-11.6000003814697
383.287983,-13.4300003051758
383.303608,-15.2299995422363
383.319233,-16.6900005340576
383.334858,-17.8999996185303
383.350483,-18.8400001525879
383.366108,-19.1100006103516
383.381733,-18.2399997711182
383.397358,-16.3799991607666
383.412983,-14.2700004577637
383.428608,-12.5699996948242
383.444233,-11.1999998092651
383.459858,-9.39999961853027
383.475483,-6.15000009536743
383.491108,-0.850000023841858
383.506733,6.34999990463257
383.522358,14.710000038147
383.537983,23.0
383.553608,29.7800006866455
383.569233,33.8400001525879
383.584858,34.8699989318848
383.600483,33.4700012207031
383.616108,30.6499996185303
383.631733,27.1200008392334
383.647358,23.1200008392334
383.662983,18.5200004577637
383.678608,13.1700000762939
383.694233,7.11999988555908
383.709858,0.740000009536743
383.725483,-5.3899998664856
383.741108,-10.8100004196167
383.756733,-15.2600002288818
383.772358,-18.7800006866455
383.787983,-21.6499996185303
383.803608,-24.0799999237061
383.819233,-25.8799991607666
383.834858,-26.6900005340576
383.850483,-26.3799991607666
383.866108,-25.1200008392334
383.881733,-23.4699993133545
383.897358,-22.2000007629395
383.912983,-21.7900009155273
383.928608,-22.1499996185303
383.944233,-22.6399993896484
383.959858,-22.4099998474121
383.975483,-20.5699996948242
383.991108,-16.3600006103516
384.006733,-9.4399995803833
384.022358,-0.490000009536743
384.037983,8.76000022888184
384.053608,16.6100006103516
384.069233,22.2900009155273
384.084858,26.0900001525879
