Time(s),Value(%)
1945.0083602,-27.8400001525879
1945.0239852,-26.7900009155273
1945.0396102,-25.8500003814697
1945.0552352,-25.0100002288818
1945.0708602,-24.1000003814697
1945.0864852,-22.7800006866455
1945.1021102,-20.6000003814697
1945.1177352,-17.1499996185303
1945.1333602,-12.1000003814697
1945.1489852,-5.26000022888184
1945.1646102,3.24000000953674
1945.1802352,12.8999996185303
1945.1958602,22.75
1945.2114852,31.7999992370605
1945.2271102,39.3499984741211
1945.2427352,45.1399993896484
1945.2583602,49.25
1945.2739852,52.0400009155273
1945.2896102,53.8199996948242
1945.3052352,54.5299987792969
1945.3208602,53.7700004577637
1945.3364852,51.189998626709
1945.3521102,46.7599983215332
1945.3677352,40.8600006103516
1945.3833602,34.0999984741211
1945.3989852,27.1100006103516
1945.4146102,20.3700008392334
1945.4302352,14.1400003433228
1945.4458602,8.47000026702881
1945.4614852,3.26999998092651
1945.4771102,-1.53999996185303
1945.4927352,-5.98000001907349
1945.5083602,-10.0
1945.5239852,-13.6700000762939
1945.5396102,-17.0699996948242
1945.5552352,-20.2099990844727
1945.5708602,-23.0699996948242
1945.5864852,-25.7199993133545
1945.6021102,-28.1700000762939
1945.6177352,-30.3400001525879
1945.6333602,-32.0999984741211
1945.6489852,-33.4199981689453
1945.6646102,-34.3600006103516
1945.6802352,-35.0999984741211
1945.6958602,-35.8800010681152
1945.7114852,-36.7799987792969
1945.7271102,-37.7099990844727
1945.7427352,-38.5299987792969
1945.7583602,-39.2099990844727
1945.7739852,-39.9000015258789
1945.7896102,-40.6699981689453
1945.8052352,-41.3199996948242
1945.8208602,-41.3800010681152
1945.8364852,-40.4099998474121
1945.8521102,-38.2599983215332
1945.8677352,-35.0400009155273
1945.8833602,-31.0200004577637
1945.8989852,-26.5400009155273
1945.9146102,-22.2600002288818
1945.9302352,-18.9200000762939
1945.9458602,-16.8999996185303
1945.9614852,-15.789999961853
1945.9771102,-14.6400003433228
1945.9927352,-12.4700002670288
1946.0083602,-8.8100004196167
1946.0239852,-3.91000008583069
1946.0396102,1.62000000476837
1946.0552352,7.23000001907349
1946.0708602,12.6999998092651
1946.0864852,18.0200004577637
1946.1021102,23.2099990844727
1946.1177352,28.2000007629395
1946.1333602,32.9300003051758
1946.1489852,37.3400001525879
1946.1646102,41.4000015258789
1946.1802352,45.0800018310547
1946.1958602,48.4099998474121
1946.2114852,51.3800010681152
1946.2271102,53.9700012207031
1946.2427352,56.1599998474121
1946.2583602,57.9599990844727
1946.2739852,59.4099998474121
1946.2896102,60.4900016784668
1946.3052352,61.060001373291
1946.3208602,60.9099998474121
1946.3364852,59.8499984741211
1946.3521102,57.8199996948242
1946.3677352,54.9199981689453
1946.3833602,51.5
1946.3989852,47.8499984741211
1946.4146102,43.9099998474121
1946.4302352,39.2400016784668
1946.4458602,33.4000015258789
1946.4614852,26.2399997711182
1946.4771102,18.1000003814697
1946.4927352,9.53999996185303
1946.5083602,1.01999998092651
1946.5239852,-7.1100001335144
1946.5396102,-14.5
1946.5552352,-20.7000007629395
1946.5708602,-25.4099998474121
1946.5864852,-28.6800003051758
1946.6021102,-30.7700004577637
1946.6177352,-32.0
1946.6333602,-32.75
1946.6489852,-33.5
1946.6646102,-34.5800018310547
1946.6802352,-35.9599990844727
1946.6958602,-37.2799987792969
1946.7114852,-38.2000007629395
1946.7271102,-38.5400009155273
1946.7427352,-38.2099990844727
1946.7583602,-37.0400009155273
1946.7739852,-34.7900009155273
1946.7896102,-31.0400009155273
1946.8052352,-25.3500003814697
1946.8208602,-17.6399993896484
1946.8364852,-8.40999984741211
1946.8521102,1.37999999523163
1946.8677352,10.7799997329712
1946.8833602,19.2199993133545
1946.8989852,26.5499992370605
1946.9146102,32.7400016784668
1946.9302352,37.7200012207031
1946.9458602,41.5099983215332
1946.9614852,44.4300003051758
1946.9771102,46.7299995422363
1946.9927352,48.3300018310547
1947.0083602,48.7999992370605
1947.0239852,47.5499992370605
1947.0396102,44.1100006103516
1947.0552352,38.4700012207031
1947.0708602,31.1299991607666
1947.0864852,22.8400001525879
1947.1021102,14.2799997329712
1947.1177352,5.98000001907349
1947.1333602,-1.71000003814697
1947.1489852,-8.75
1947.1646102,-15.3599996566772
1947.1802352,-21.9799995422363
1947.1958602,-28.9300003051758
1947.2114852,-36.2200012207031
1947.2271102,-43.5299987792969
1947.2427352,-50.3400001525879
1947.2583602,-56.2400016784668
1947.2739852,-61.2299995422363
1947.2896102,-65.7699966430664
1947.3052352,-70.1100006103516
1947.3208602,-73.7200012207031
1947.3364852,-75.6900024414063
1947.3521102,-75.4700012207031
1947.3677352,-73.129997253418
1947.3833602,-69.0500030517578
1947.3989852,-63.5900001525879
1947.4146102,-56.9500007629395
1947.4302352,-49.3600006103516
1947.4458602,-41.4199981689453
1947.4614852,-33.8699989318848
1947.4771102,-27.1399993896484
1947.4927352,-21.1700000762939
1947.5083602,-15.6400003433228
1947.5239852,-10.2200002670288
1947.5396102,-4.76999998092651
1947.5552352,0.649999976158142
1947.5708602,5.96999979019165
1947.5864852,11.3299999237061
1947.6021102,17.1700000762939
1947.6177352,24.0499992370605
1947.6333602,32.2200012207031
1947.6489852,41.4500007629395
1947.6646102,51.1599998474121
1947.6802352,60.7799987792969
1947.6958602,70.0
1947.7114852,78.629997253418
1947.7271102,86.3300018310547
1947.7427352,92.620002746582
1947.7583602,97.0699996948242
1947.7739852,99.4000015258789
1947.7896102,99.4100036621094
1947.8052352,96.9000015258789
1947.8208602,91.9700012207031
1947.8364852,85.6500015258789
1947.8521102,79.9499969482422
1947.8677352,76.6600036621094
1947.8833602,76.2200012207031
1947.8989852,77.5999984741211
1947.9146102,78.9499969482422
1947.9302352,78.5800018310547
1947.9458602,75.7600021362305
1947.9614852,70.7799987792969
1947.9771102,64.3199996948242
1947.9927352,56.9799995422363
1948.0083602,48.9799995422363
1948.0239852,40.2900009155273
1948.0396102,30.9699993133545
1948.0552352,21.3500003814697
1948.0708602,11.7399997711182
1948.0864852,2.0699999332428
1948.1021102,-8.01000022888184
1948.1177352,-18.8199996948242
1948.1333602,-30.3099994659424
1948.1489852,-42.0900001525879
1948.1646102,-53.6300010681152
1948.1802352,-64.4899978637695
1948.1958602,-74.4199981689453
1948.2114852,-83.25
1948.2271102,-90.7799987792969
1948.2427352,-96.8000030517578
1948.2583602,-101.160003662109
1948.2739852,-103.919998168945
1948.2896102,-105.440002441406
1948.3052352,-106.339996337891
1948.3208602,-107.099998474121
1948.3364852,-107.699996948242
1948.3521102,-107.790000915527
1948.3677352,-107.0
1948.3833602,-105.110000610352
1948.3989852,-101.889999389648
1948.4146102,-97.0500030517578
1948.4302352,-90.3300018310547
1948.4458602,-81.6600036621094
1948.4614852,-71.3199996948242
1948.4771102,-59.9500007629395
1948.4927352,-48.3400001525879
1948.5083602,-37.1500015258789
1948.5239852,-26.7299995422363
1948.5396102,-17.0900001525879
1948.5552352,-7.94000005722046
1948.5708602,0.839999973773956
1948.5864852,8.89999961853027
1948.6021102,15.5600004196167
1948.6177352,20.3400001525879
1948.6333602,23.1299991607666
1948.6489852,24.1200008392334
1948.6646102,23.6399993896484
1948.6802352,22.0100002288818
1948.6958602,19.4599990844727
1948.7114852,16.2299995422363
1948.7271102,12.6700000762939
1948.7427352,9.19999980926514
1948.7583602,6.09999990463257
1948.7739852,3.41000008583069
1948.7896102,0.949999988079071
1948.8052352,-1.60000002384186
1948.8208602,-4.40999984741211
1948.8364852,-7.26999998092651
1948.8521102,-9.75
1948.8677352,-11.5500001907349
1948.8833602,-12.7299995422363
1948.8989852,-13.539999961853
1948.9146102,-14.289999961853
1948.9302352,-15.2299995422363
1948.9458602,-16.5
1948.9614852,-17.9500007629395
1948.9771102,-19.1399993896484
1948.9927352,-19.7099990844727
1949.0083602,-19.6399993896484
1949.0239852,-19.0799999237061
1949.0396102,-18.1900005340576
1949.0552352,-17.2600002288818
1949.0708602,-16.5
1949.0864852,-15.8900003433228
1949.1021102,-15.3699998855591
1949.1177352,-14.9399995803833
1949.1333602,-14.5100002288818
1949.1489852,-13.7200002670288
1949.1646102,-11.960000038147
1949.1802352,-8.64000034332275
1949.1958602,-3.40000009536743
1949.2114852,3.66000008583069
1949.2271102,12.039999961853
1949.2427352,20.9699993133545
1949.2583602,29.6200008392334
1949.2739852,37.4700012207031
1949.2896102,44.3699989318848
1949.3052352,50.5299987792969
1949.3208602,56.0999984741211
1949.3364852,61.0699996948242
1949.3521102,65.2900009155273
1949.3677352,68.5899963378906
1949.3833602,70.8199996948242
1949.3989852,71.9300003051758
1949.4146102,72.0199966430664
1949.4302352,71.3300018310547
1949.4458602,70.1900024414063
1949.4614852,68.870002746582
1949.4771102,67.4499969482422
1949.4927352,65.7799987792969
1949.5083602,63.7099990844727
1949.5239852,61.1699981689453
1949.5396102,58.310001373291
1949.5552352,55.2900009155273
1949.5708602,52.2400016784668
1949.5864852,49.2599983215332
1949.6021102,46.3600006103516
1949.6177352,43.4799995422363
1949.6333602,40.5
1949.6489852,37.4599990844727
1949.6646102,34.5200004577637
1949.6802352,31.8400001525879
1949.6958602,29.4500007629395
1949.7114852,27.2399997711182
1949.7271102,25.0400009155273
1949.7427352,22.7000007629395
1949.7583602,20.1700000762939
1949.7739852,17.5
1949.7896102,14.8500003814697
1949.8052352,12.2799997329712
1949.8208602,9.69999980926514
1949.8364852,6.96000003814697
1949.8521102,3.91000008583069
1949.8677352,0.610000014305115
1949.8833602,-2.75
1949.8989852,-5.90999984741211
1949.9146102,-8.47000026702881
1949.9302352,-9.96000003814697
1949.9458602,-10.0600004196167
1949.9614852,-8.89000034332275
1949.9771102,-6.94000005722046
1949.9927352,-4.82999992370605
1950.0083602,-2.96000003814697
1950.0239852,-1.48000001907349
1950.0396102,-0.340000003576279
1950.0552352,0.670000016689301
1950.0708602,1.74000000953674
1950.0864852,2.74000000953674
1950.1021102,3.28999996185303
1950.1177352,3.01999998092651
1950.1333602,1.74000000953674
1950.1489852,-0.439999997615814
1950.1646102,-3.29999995231628
1950.1802352,-6.51999998092651
1950.1958602,-9.82999992370605
1950.2114852,-13.0799999237061
1950.2271102,-16.2900009155273
1950.2427352,-19.5699996948242
1950.2583602,-23.0100002288818
1950.2739852,-26.6299991607666
1950.2896102,-30.4099998474121
1950.3052352,-34.2700004577637
1950.3208602,-38.060001373291
1950.3364852,-41.5999984741211
1950.3521102,-44.75
1950.3677352,-47.4700012207031
1950.3833602,-49.8199996948242
1950.3989852,-51.8800010681152
1950.4146102,-53.6599998474121
1950.4302352,-55.1300010681152
1950.4458602,-56.1699981689453
1950.4614852,-56.6800003051758
1950.4771102,-56.5999984741211
1950.4927352,-56.0900001525879
1950.5083602,-55.3800010681152
1950.5239852,-54.6199989318848
1950.5396102,-53.8199996948242
1950.5552352,-52.9700012207031
1950.5708602,-52.1199989318848
1950.5864852,-51.3400001525879
1950.6021102,-50.6399993896484
1950.6177352,-49.9500007629395
1950.6333602,-49.25
1950.6489852,-48.4000015258789
1950.6646102,-47.2400016784668
1950.6802352,-45.5499992370605
1950.6958602,-43.0900001525879
1950.7114852,-39.6399993896484
1950.7271102,-35.1300010681152
1950.7427352,-29.6200008392334
1950.7583602,-23.3099994659424
1950.7739852,-16.5400009155273
1950.7896102,-9.76000022888184
1950.8052352,-3.29999995231628
1950.8208602,2.77999997138977
1950.8364852,8.68000030517578
1950.8521102,14.5200004577637
1950.8677352,20.1800003051758
1950.8833602,25.3700008392334
1950.8989852,29.75
1950.9146102,33.0699996948242
1950.9302352,35.310001373291
1950.9458602,36.4700012207031
1950.9614852,36.5200004577637
1950.9771102,35.4900016784668
1950.9927352,33.6599998474121
1951.0083602,31.5100002288818
1951.0239852,29.4099998474121
1951.0396102,27.4799995422363
1951.0552352,25.5699996948242
1951.0708602,23.4899997711182
1951.0864852,21.1399993896484
1951.1021102,18.6399993896484
1951.1177352,16.1800003051758
1951.1333602,13.8500003814697
1951.1489852,11.6400003433228
1951.1646102,9.56999969482422
1951.1802352,7.73999977111816
1951.1958602,6.26000022888184
1951.2114852,5.07000017166138
1951.2271102,3.91000008583069
1951.2427352,2.60999989509583
1951.2583602,1.24000000953674
1951.2739852,-0.0299999993294477
1951.2896102,-1.00999999046326
1951.3052352,-1.64999997615814
1951.3208602,-2.04999995231628
1951.3364852,-2.34999990463257
1951.3521102,-2.5699999332428
1951.3677352,-2.64000010490417
1951.3833602,-2.49000000953674
1951.3989852,-2.11999988555908
1951.4146102,-1.61000001430511
1951.4302352,-1.10000002384186
1951.4458602,-0.629999995231628
1951.4614852,-0.180000007152557
1951.4771102,0.259999990463257
1951.4927352,0.670000016689301
1951.5083602,1.12999999523163
1951.5239852,1.89999997615814
1951.5396102,3.35999989509583
1951.5552352,5.94999980926514
1951.5708602,9.88000011444092
1951.5864852,15.0100002288818
1951.6021102,20.7800006866455
1951.6177352,26.4799995422363
1951.6333602,31.5300006866455
1951.6489852,35.7299995422363
1951.6646102,39.1800003051758
1951.6802352,42.1100006103516
1951.6958602,44.7000007629395
1951.7114852,47.0400009155273
1951.7271102,49.1399993896484
1951.7427352,50.8199996948242
1951.7583602,51.7000007629395
1951.7739852,51.3600006103516
1951.7896102,49.6500015258789
1951.8052352,46.7799987792969
1951.8208602,43.2799987792969
1951.8364852,39.6199989318848
1951.8521102,36.0699996948242
1951.8677352,32.6800003051758
1951.8833602,29.3299999237061
1951.8989852,25.8700008392334
1951.9146102,22.2299995422363
1951.9302352,18.4099998474121
1951.9458602,14.4300003051758
1951.9614852,10.2799997329712
1951.9771102,5.98000001907349
1951.9927352,1.64999997615814
1952.0083602,-2.52999997138977
1952.0239852,-6.46999979019165
1952.0396102,-10.2700004577637
1952.0552352,-14.0100002288818
1952.0708602,-17.6000003814697
1952.0864852,-20.8799991607666
1952.1021102,-23.7600002288818
1952.1177352,-26.3400001525879
1952.1333602,-28.8199996948242
1952.1489852,-31.3299999237061
1952.1646102,-33.8499984741211
1952.1802352,-36.2299995422363
1952.1958602,-38.3300018310547
1952.2114852,-39.9799995422363
1952.2271102,-40.8300018310547
1952.2427352,-40.3800010681152
1952.2583602,-38.1100006103516
1952.2739852,-33.6500015258789
1952.2896102,-26.8500003814697
1952.3052352,-18.0900001525879
1952.3208602,-8.98999977111816
1952.3364852,-3.54999995231628
1952.3521102,-7.40999984741211
1952.3677352,-24.2800006866455
1952.3833602,-52.2799987792969
1952.3989852,-83.6600036621094
1952.4146102,-108.73999786377
1952.4302352,-121.110000610352
1952.4458602,-120.220001220703
1952.4614852,-110.029998779297
1952.4771102,-95.75
1952.4927352,-81.0
1952.5083602,-67.1699981689453
1952.5239852,-54.0299987792969
1952.5396102,-40.7799987792969
1952.5552352,-26.8899993896484
1952.5708602,-12.6400003433228
1952.5864852,1.07000005245209
1952.6021102,13.1599998474121
1952.6177352,22.6800003051758
1952.6333602,29.2000007629395
1952.6489852,33.1399993896484
1952.6646102,35.5400009155273
1952.6802352,37.5200004577637
1952.6958602,39.5699996948242
1952.7114852,41.5200004577637
1952.7271102,42.9300003051758
1952.7427352,43.3300018310547
1952.7583602,42.439998626709
1952.7739852,40.2799987792969
1952.7896102,37.1599998474121
1952.8052352,33.5
1952.8208602,29.7099990844727
1952.8364852,26.1599998474121
1952.8521102,23.25
1952.8677352,21.3099994659424
1952.8833602,20.4099998474121
1952.8989852,20.3299999237061
1952.9146102,20.6800003051758
1952.9302352,21.1200008392334
1952.9458602,21.4500007629395
1952.9614852,21.6499996185303
1952.9771102,21.7199993133545
1952.9927352,21.6399993896484
1953.0083602,21.4799995422363
1953.0239852,21.2999992370605
1953.0396102,21.1100006103516
1953.0552352,20.8999996185303
1953.0708602,20.5900001525879
1953.0864852,20.0200004577637
1953.1021102,19.0699996948242
1953.1177352,17.8099994659424
1953.1333602,16.4300003051758
1953.1489852,15.289999961853
1953.1646102,14.8699998855591
1953.1802352,15.710000038147
1953.1958602,18.1900005340576
1953.2114852,22.2099990844727
1953.2271102,27.1399993896484
1953.2427352,32.0699996948242
1953.2583602,36.189998626709
1953.2739852,39.0400009155273
1953.2896102,40.5800018310547
1953.3052352,41.1300010681152
1953.3208602,41.2999992370605
1953.3364852,41.8499984741211
1953.3521102,43.1100006103516
1953.3677352,44.4199981689453
1953.3833602,44.4599990844727
1953.3989852,42.2099990844727
1953.4146102,37.7700004577637
1953.4302352,32.1199989318848
1953.4458602,26.3500003814697
1953.4614852,21.0
1953.4771102,15.9899997711182
1953.4927352,10.8500003814697
1953.5083602,5.23000001907349
1953.5239852,-0.920000016689301
1953.5396102,-7.3600001335144
1953.5552352,-13.6099996566772
1953.5708602,-19.1499996185303
1953.5864852,-23.6800003051758
1953.6021102,-27.2399997711182
1953.6177352,-30.0699996948242
1953.6333602,-32.439998626709
1953.6489852,-34.3699989318848
1953.6646102,-35.7299995422363
1953.6802352,-36.439998626709
1953.6958602,-36.4799995422363
1953.7114852,-35.8400001525879
1953.7271102,-34.560001373291
1953.7427352,-32.7799987792969
1953.7583602,-30.7700004577637
1953.7739852,-28.8099994659424
1953.7896102,-27.0300006866455
1953.8052352,-25.3700008392334
1953.8208602,-23.7299995422363
1953.8364852,-22.1299991607666
1953.8521102,-20.7900009155273
1953.8677352,-20.0100002288818
1953.8833602,-19.8199996948242
1953.8989852,-19.7900009155273
1953.9146102,-19.1200008392334
1953.9302352,-17.2700004577637
1953.9458602,-14.3199996948242
1953.9614852,-10.8199996948242
1953.9771102,-7.40000009536743
1953.9927352,-4.23999977111816
1954.0083602,-0.810000002384186
1954.0239852,3.75999999046326
1954.0396102,9.86999988555908
1954.0552352,16.9899997711182
1954.0708602,24.0100002288818
1954.0864852,29.8400001525879
1954.1021102,33.9300003051758
1954.1177352,36.5099983215332
1954.1333602,38.1599998474121
1954.1489852,39.2799987792969
1954.1646102,39.8899993896484
1954.1802352,39.7999992370605
1954.1958602,38.7900009155273
1954.2114852,36.7400016784668
1954.2271102,33.6300010681152
1954.2427352,29.4500007629395
1954.2583602,24.3099994659424
1954.2739852,18.5400009155273
1954.2896102,12.5299997329712
1954.3052352,6.67999982833862
1954.3208602,1.24000000953674
1954.3364852,-3.8199999332428
1954.3521102,-8.76000022888184
1954.3677352,-13.8199996948242
1954.3833602,-19.0699996948242
1954.3989852,-24.4599990844727
1954.4146102,-29.8600006103516
1954.4302352,-35.0499992370605
1954.4458602,-39.7799987792969
1954.4614852,-43.8499984741211
1954.4771102,-47.2700004577637
1954.4927352,-50.2000007629395
1954.5083602,-52.75
1954.5239852,-55.0200004577637
1954.5396102,-56.9900016784668
1954.5552352,-58.560001373291
1954.5708602,-59.5099983215332
1954.5864852,-59.7700004577637
1954.6021102,-59.4300003051758
1954.6177352,-58.7099990844727
1954.6333602,-57.7900009155273
1954.6489852,-56.7200012207031
1954.6646102,-55.4700012207031
1954.6802352,-54.0099983215332
1954.6958602,-52.3600006103516
1954.7114852,-50.5400009155273
1954.7271102,-48.6199989318848
1954.7427352,-46.6599998474121
1954.7583602,-44.5999984741211
1954.7739852,-42.2200012207031
1954.7896102,-39.1599998474121
1954.8052352,-34.9900016784668
1954.8208602,-29.2999992370605
1954.8364852,-21.8600006103516
1954.8521102,-12.789999961853
1954.8677352,-2.54999995231628
1954.8833602,8.02000045776367
1954.8989852,17.9200000762939
1954.9146102,26.2700004577637
1954.9302352,32.7299995422363
1954.9458602,37.5200004577637
1954.9614852,41.2000007629395
1954.9771102,44.25
1954.9927352,46.8499984741211
1955.0083602,48.8800010681152
1955.0239852,50.0400009155273
1955.0396102,49.9599990844727
1955.0552352,48.5
1955.0708602,45.8800010681152
1955.0864852,42.6599998474121
1955.1021102,39.3600006103516
1955.1177352,36.310001373291
1955.1333602,33.5400009155273
1955.1489852,30.9099998474121
1955.1646102,28.2099990844727
1955.1802352,25.25
1955.1958602,21.9099998474121
1955.2114852,18.2199993133545
1955.2271102,14.4399995803833
1955.2427352,10.8299999237061
1955.2583602,7.40999984741211
1955.2739852,4.09000015258789
1955.2896102,0.910000026226044
1955.3052352,-1.94000005722046
1955.3208602,-4.34000015258789
1955.3364852,-6.30999994277954
1955.3521102,-8.03999996185303
1955.3677352,-9.64000034332275
1955.3833602,-11.0500001907349
1955.3989852,-12.0900001525879
1955.4146102,-12.6400003433228
