Time(s),Value(%)
1030.0099667,121.0
1030.0255917,88.3499984741211
1030.0412167,58.1199989318848
1030.0568417,31.1599998474121
1030.0724667,6.01000022888184
1030.0880917,-19.8400001525879
1030.1037167,-48.25
1030.1193417,-79.1399993896484
1030.1349667,-109.839996337891
1030.1505917,-135.729995727539
1030.1662167,-152.630004882813
1030.1818417,-158.779998779297
1030.1974667,-155.169998168945
1030.2130917,-144.800003051758
1030.2287167,-131.449996948242
1030.2443417,-118.48999786377
1030.2599667,-108.120002746582
1030.2755917,-100.98999786377
1030.2912167,-96.4499969482422
1030.3068417,-93.3300018310547
1030.3224667,-90.7600021362305
1030.3380917,-88.3499984741211
1030.3537167,-86.0599975585938
1030.3693417,-84.0699996948242
1030.3849667,-82.3899993896484
1030.4005917,-80.6399993896484
1030.4162167,-78.1999969482422
1030.4318417,-74.5100021362305
1030.4474667,-68.9199981689453
1030.4630917,-59.6399993896484
1030.4787167,-43.0699996948242
1030.4943417,-14.7700004577637
1030.5099667,27.3799991607666
1030.5255917,79.9400024414063
1030.5412167,133.929992675781
1030.5568417,179.160003662109
1030.5724667,208.600006103516
1030.5880917,220.25
1030.6037167,216.25
1030.6193417,200.610000610352
1030.6349667,177.559997558594
1030.6505917,150.690002441406
1030.6662167,122.690002441406
1030.6818417,95.379997253418
1030.6974667,69.8899993896484
1030.7130917,46.7900009155273
1030.7287167,26.3700008392334
1030.7443417,8.82999992370605
1030.7599667,-5.65999984741211
1030.7755917,-16.8700008392334
1030.7912167,-24.1700000762939
1030.8068417,-27.1000003814697
1030.8224667,-25.9099998474121
1030.8380917,-21.6399993896484
1030.8537167,-15.8599996566772
1030.8693417,-10.210000038147
1030.8849667,-5.61999988555908
1030.9005917,-1.97000002861023
1030.9162167,1.44000005722046
1030.9318417,5.03999996185303
1030.9474667,8.44999980926514
1030.9630917,10.789999961853
1030.9787167,11.2600002288818
1030.9943417,9.59000015258789
1031.0099667,6.05000019073486
1031.0255917,1.39999997615814
1031.0412167,-3.16000008583069
1031.0568417,-6.1399998664856
1031.0724667,-5.40000009536743
1031.0880917,2.35999989509583
1031.1037167,21.3199996948242
1031.1193417,54.1599998474121
1031.1349667,98.1500015258789
1031.1505917,144.529998779297
1031.1662167,182.770004272461
1031.1818417,205.600006103516
1031.1974667,211.059997558594
1031.2130917,201.369995117188
1031.2287167,180.669998168945
1031.2443417,153.070007324219
1031.2599667,121.660003662109
1031.2755917,88.629997253418
1031.2912167,55.7200012207031
1031.3068417,24.3500003814697
1031.3224667,-4.3600001335144
1031.3380917,-29.5400009155273
1031.3537167,-50.5900001525879
1031.3693417,-67.2099990844727
1031.3849667,-79.2600021362305
1031.4005917,-86.6100006103516
1031.4162167,-89.3300018310547
1031.4318417,-88.1399993896484
1031.4474667,-84.4100036621094
1031.4630917,-79.9199981689453
1031.4787167,-76.2399978637695
1031.4943417,-74.2799987792969
1031.5099667,-74.3099975585938
1031.5255917,-76.0400009155273
1031.5412167,-78.75
1031.5568417,-81.6800003051758
1031.5724667,-84.2600021362305
1031.5880917,-86.3399963378906
1031.6037167,-88.1699981689453
1031.6193417,-90.129997253418
1031.6349667,-92.1500015258789
1031.6505917,-93.3199996948242
1031.6662167,-91.7799987792969
1031.6818417,-84.3099975585938
1031.6974667,-66.5899963378906
1031.7130917,-35.5
1031.7287167,7.73999977111816
1031.7443417,56.75
1031.7599667,102.730003356934
1031.7755917,138.029998779297
1031.7912167,158.020004272461
1031.8068417,161.740005493164
1031.8224667,151.380004882813
1031.8380917,130.889999389648
1031.8537167,104.290000915527
1031.8693417,74.5199966430664
1031.8849667,43.5499992370605
1031.9005917,13.0299997329712
1031.9162167,-15.4799995422363
1031.9318417,-40.7599983215332
1031.9474667,-61.9500007629395
1031.9630917,-78.6699981689453
1031.9787167,-90.9899978637695
1031.9943417,-99.2699966430664
1032.0099667,-103.870002746582
1032.0255917,-105.01000213623
1032.0412167,-103.050003051758
1032.0568417,-98.7600021362305
1032.0724667,-93.370002746582
1032.0880917,-88.0899963378906
1032.1037167,-83.9100036621094
1032.1193417,-81.4499969482422
1032.1349667,-80.7600021362305
1032.1505917,-81.2200012207031
1032.1662167,-81.9800033569336
1032.1818417,-82.4199981689453
1032.1974667,-82.2300033569336
1032.2130917,-81.3300018310547
1032.2287167,-79.7900009155273
1032.2443417,-77.7699966430664
1032.2599667,-75.1699981689453
1032.2755917,-71.629997253418
1032.2912167,-66.5400009155273
1032.3068417,-58.3699989318848
1032.3224667,-43.7999992370605
1032.3380917,-18.5400009155273
1032.3537167,19.2000007629395
1032.3693417,65.7699966430664
1032.3849667,113.069999694824
1032.4005917,152.169998168945
1032.4162167,176.600006103516
1032.4318417,184.089996337891
1032.4474667,176.470001220703
1032.4630917,157.910003662109
1032.4787167,132.899993896484
1032.4943417,105.190002441406
1032.5099667,77.2099990844727
1032.5255917,50.1500015258789
1032.5412167,24.4500007629395
1032.5568417,0.649999976158142
1032.5724667,-20.4500007629395
1032.5880917,-38.0400009155273
1032.6037167,-51.6199989318848
1032.6193417,-61.0699996948242
1032.6349667,-66.7300033569336
1032.6505917,-69.0699996948242
1032.6662167,-68.4300003051758
1032.6818417,-65.1999969482422
1032.6974667,-60.1699981689453
1032.7130917,-54.2999992370605
1032.7287167,-48.5499992370605
1032.7443417,-43.560001373291
1032.7599667,-39.4300003051758
1032.7755917,-35.9300003051758
1032.7912167,-33.060001373291
1032.8068417,-31.0400009155273
1032.8224667,-29.9699993133545
1032.8380917,-29.6900005340576
1032.8537167,-29.7999992370605
1032.8693417,-29.9400005340576
1032.8849667,-29.9200000762939
1032.9005917,-29.7600002288818
1032.9162167,-29.0400009155273
1032.9318417,-25.9899997711182
1032.9474667,-16.9699993133545
1032.9630917,2.61999988555908
1032.9787167,35.3800010681152
1032.9943417,78.2699966430664
1033.0099667,122.709999084473
1033.0255917,158.820007324219
1033.0412167,180.160003662109
1033.0568417,185.350006103516
1033.0724667,176.770004272461
1033.0880917,158.479995727539
1033.1037167,134.550003051758
1033.1193417,108.069999694824
1033.1349667,80.7200012207031
1033.1505917,53.1100006103516
1033.1662167,25.7999992370605
1033.1818417,0.119999997317791
1033.1974667,-22.2299995422363
1033.2130917,-39.9700012207031
1033.2287167,-52.5299987792969
1033.2443417,-60.0699996948242
1033.2599667,-63.2299995422363
1033.2755917,-62.7999992370605
1033.2912167,-59.6199989318848
1033.3068417,-54.7099990844727
1033.3224667,-49.2000007629395
1033.3380917,-44.2000007629395
1033.3537167,-40.5499992370605
1033.3693417,-38.6699981689453
1033.3849667,-38.560001373291
1033.4005917,-39.939998626709
1033.4162167,-42.3400001525879
1033.4318417,-45.2200012207031
1033.4474667,-48.0400009155273
1033.4630917,-50.4199981689453
1033.4787167,-52.0400009155273
1033.4943417,-52.7400016784668
1033.5099667,-52.3699989318848
1033.5255917,-49.8600006103516
1033.5412167,-42.0499992370605
1033.5568417,-24.4099998474121
1033.5724667,5.76999998092651
1033.5880917,46.1599998474121
1033.6037167,89.3199996948242
1033.6193417,126.120002746582
1033.6349667,149.899993896484
1033.6505917,158.389999389648
1033.6662167,153.130004882813
1033.6818417,137.639999389648
1033.6974667,115.699996948242
1033.7130917,90.5
1033.7287167,64.2300033569336
1033.7443417,38.2400016784668
1033.7599667,13.289999961853
1033.7755917,-10.1000003814697
1033.7912167,-31.6000003814697
1033.8068417,-50.5699996948242
1033.8224667,-65.9100036621094
1033.8380917,-76.5899963378906
1033.8537167,-82.2399978637695
1033.8693417,-83.2699966430664
1033.8849667,-80.7399978637695
1033.9005917,-76.0999984741211
1033.9162167,-70.8499984741211
1033.9318417,-66.129997253418
1033.9474667,-62.4900016784668
1033.9630917,-60.0800018310547
1033.9787167,-58.7299995422363
1033.9943417,-58.2200012207031
1034.0099667,-58.3199996948242
1034.0255917,-58.9500007629395
1034.0412167,-60.0400009155273
1034.0568417,-61.3800010681152
1034.0724667,-62.5900001525879
1034.0880917,-63.2599983215332
1034.1037167,-63.0299987792969
1034.1193417,-61.0800018310547
1034.1349667,-55.0099983215332
1034.1505917,-40.1100006103516
1034.1662167,-11.9399995803833
1034.1818417,28.8400001525879
1034.1974667,75.0400009155273
1034.2130917,116.529998779297
1034.2287167,145.429992675781
1034.2443417,158.880004882813
1034.2599667,158.419998168945
1034.2755917,147.779998779297
1034.2912167,130.699996948242
1034.3068417,109.910003662109
1034.3224667,87.1100006103516
1034.3380917,63.2999992370605
1034.3537167,39.2900009155273
1034.3693417,15.9700002670288
1034.3849667,-5.76000022888184
1034.4005917,-25.2600002288818
1034.4162167,-41.9599990844727
1034.4318417,-55.0999984741211
1034.4474667,-64.0100021362305
1034.4630917,-68.7099990844727
1034.4787167,-69.870002746582
1034.4943417,-68.5400009155273
1034.5099667,-65.8000030517578
1034.5255917,-62.560001373291
1034.5412167,-59.5499992370605
1034.5568417,-57.2599983215332
1034.5724667,-55.7999992370605
1034.5880917,-55.0299987792969
1034.6037167,-54.689998626709
1034.6193417,-54.5800018310547
1034.6349667,-54.6100006103516
1034.6505917,-54.8899993896484
1034.6662167,-55.439998626709
1034.6818417,-55.9799995422363
1034.6974667,-56.0299987792969
1034.7130917,-55.0400009155273
1034.7287167,-52.0099983215332
1034.7443417,-44.7799987792969
1034.7599667,-29.7800006866455
1034.7755917,-3.5699999332428
1034.7912167,34.1199989318848
1034.8068417,77.9700012207031
1034.8224667,118.349998474121
1034.8380917,146.360000610352
1034.8537167,157.970001220703
1034.8693417,154.410003662109
1034.8849667,139.949996948242
1034.9005917,119.190002441406
1034.9162167,95.6600036621094
1034.9318417,71.6999969482422
1034.9474667,48.5800018310547
1034.9630917,26.8099994659424
1034.9787167,6.57999992370605
1034.9943417,-11.75
1035.0099667,-27.5200004577637
1035.0255917,-40.060001373291
1035.0412167,-49.0400009155273
1035.0568417,-54.3300018310547
1035.0724667,-55.9199981689453
1035.0880917,-54.0900001525879
1035.1037167,-49.689998626709
1035.1193417,-44.0299987792969
1035.1349667,-38.439998626709
1035.1505917,-33.939998626709
1035.1662167,-30.8899993896484
1035.1818417,-29.1399993896484
1035.1974667,-28.3099994659424
1035.2130917,-28.1499996185303
1035.2287167,-28.4899997711182
1035.2443417,-29.1499996185303
1035.2599667,-29.8799991607666
1035.2755917,-30.5
1035.2912167,-30.8999996185303
1035.3068417,-30.6299991607666
1035.3224667,-27.9799995422363
1035.3380917,-19.6000003814697
1035.3537167,-1.67999994754791
1035.3693417,27.0400009155273
1035.3849667,62.8899993896484
1035.4005917,98.4599990844727
1035.4162167,126.220001220703
1035.4318417,141.380004882813
1035.4474667,143.009994506836
1035.4630917,133.320007324219
1035.4787167,116.059997558594
1035.4943417,94.7600021362305
1035.5099667,71.8499984741211
1035.5255917,48.7400016784668
1035.5412167,26.5699996948242
1035.5568417,6.44000005722046
1035.5724667,-11.039999961853
1035.5880917,-25.9200000762939
1035.6037167,-38.3300018310547
1035.6193417,-48.1399993896484
1035.6349667,-54.8499984741211
1035.6505917,-57.9500007629395
1035.6662167,-57.3699989318848
1035.6818417,-53.7299995422363
1035.6974667,-48.3699989318848
1035.7130917,-43.0200004577637
1035.7287167,-39.1500015258789
1035.7443417,-37.4099998474121
1035.7599667,-37.6300010681152
1035.7755917,-39.3300018310547
1035.7912167,-42.0200004577637
1035.8068417,-45.3699989318848
1035.8224667,-49.0999984741211
1035.8380917,-52.7400016784668
1035.8537167,-55.7400016784668
1035.8693417,-57.7200012207031
1035.8849667,-58.5499992370605
1035.9005917,-57.7400016784668
1035.9162167,-53.3199996948242
1035.9318417,-41.5699996948242
1035.9474667,-18.9400005340576
1035.9630917,14.6800003051758
1035.9787167,54.2400016784668
1035.9943417,91.5599975585938
1036.0099667,119.400001525879
1036.0255917,134.089996337891
1036.0412167,135.820007324219
1036.0568417,127.379997253418
1036.0724667,112.569999694824
1036.0880917,94.5599975585938
1036.1037167,75.0999984741211
1036.1193417,54.7400016784668
1036.1349667,33.5900001525879
1036.1505917,11.9099998474121
1036.1662167,-9.57999992370605
1036.1818417,-29.9500007629395
1036.1974667,-48.0
1036.2130917,-62.3899993896484
1036.2287167,-72.129997253418
1036.2443417,-76.9800033569336
1036.2599667,-77.4199981689453
1036.2755917,-74.4100036621094
1036.2912167,-69.0999984741211
1036.3068417,-62.7400016784668
1036.3224667,-56.5699996948242
1036.3380917,-51.5900001525879
1036.3537167,-48.3600006103516
1036.3693417,-47.0200004577637
1036.3849667,-47.3800010681152
1036.4005917,-49.0099983215332
1036.4162167,-51.3199996948242
1036.4318417,-53.7900009155273
1036.4474667,-56.0699996948242
1036.4630917,-57.8600006103516
1036.4787167,-58.7599983215332
1036.4943417,-57.9700012207031
1036.5099667,-53.6500015258789
1036.5255917,-42.2999992370605
1036.5412167,-20.25
1036.5568417,13.1599998474121
1036.5724667,53.9599990844727
1036.5880917,94.7300033569336
1036.6037167,127.529998779297
1036.6193417,146.979995727539
1036.6349667,151.669998168945
1036.6505917,143.660003662109
1036.6662167,126.75
1036.6818417,104.629997253418
1036.6974667,80.0400009155273
1036.7130917,54.7700004577637
1036.7287167,29.9300003051758
1036.7443417,6.26999998092651
1036.7599667,-15.460000038147
1036.7755917,-34.4000015258789
1036.7912167,-49.75
1036.8068417,-61.060001373291
1036.8224667,-68.2399978637695
1036.8380917,-71.4199981689453
1036.8537167,-71.0199966430664
1036.8693417,-67.7699966430664
1036.8849667,-62.7400016784668
1036.9005917,-57.1100006103516
1036.9162167,-51.9300003051758
1036.9318417,-48.0
1036.9474667,-45.6800003051758
1036.9630917,-44.8899993896484
1036.9787167,-45.2700004577637
1036.9943417,-46.2700004577637
1037.0099667,-47.439998626709
1037.0255917,-48.5200004577637
1037.0412167,-49.3199996948242
1037.0568417,-49.7999992370605
1037.0724667,-49.8600006103516
1037.0880917,-48.4599990844727
1037.1037167,-42.4300003051758
1037.1193417,-27.3099994659424
1037.1349667,-0.400000005960464
1037.1505917,36.3600006103516
1037.1662167,76.6900024414063
1037.1818417,112.959999084473
1037.1974667,139.199996948242
1037.2130917,152.279998779297
1037.2287167,151.990005493164
1037.2443417,140.490005493164
1037.2599667,121.190002441406
1037.2755917,97.5400009155273
1037.2912167,72.3199996948242
1037.3068417,47.189998626709
1037.3224667,22.8600006103516
1037.3380917,-0.0500000007450581
1037.3537167,-20.3400001525879
1037.3693417,-36.439998626709
1037.3849667,-47.2299995422363
1037.4005917,-52.5200004577637
1037.4162167,-52.8899993896484
1037.4318417,-49.3400001525879
1037.4474667,-43.2099990844727
1037.4630917,-36.1300010681152
1037.4787167,-29.7700004577637
1037.4943417,-25.2999992370605
1037.5099667,-23.2299995422363
1037.5255917,-23.3999996185303
1037.5412167,-25.1800003051758
1037.5568417,-27.8799991607666
1037.5724667,-31.1000003814697
1037.5880917,-34.5999984741211
1037.6037167,-38.0
1037.6193417,-40.810001373291
1037.6349667,-42.7000007629395
1037.6505917,-43.3699989318848
1037.6662167,-41.6100006103516
1037.6818417,-34.060001373291
1037.6974667,-16.4599990844727
1037.7130917,12.8000001907349
1037.7287167,50.439998626709
1037.7443417,89.4199981689453
1037.7599667,122.370002746582
1037.7755917,144.190002441406
1037.7912167,152.960006713867
1037.8068417,149.330001831055
1037.8224667,135.559997558594
1037.8380917,114.620002746582
1037.8537167,89.5199966430664
1037.8693417,62.8300018310547
1037.8849667,36.2999992370605
1037.9005917,11.1000003814697
1037.9162167,-11.8900003433228
1037.9318417,-31.8700008392334
1037.9474667,-48.0
1037.9630917,-59.3300018310547
1037.9787167,-65.1399993896484
1037.9943417,-65.4899978637695
1038.0099667,-61.4900016784668
1038.0255917,-55.060001373291
1038.0412167,-48.2099990844727
1038.0568417,-42.5200004577637
1038.0724667,-39.0
1038.0880917,-38.1199989318848
1038.1037167,-39.7599983215332
1038.1193417,-43.1500015258789
1038.1349667,-47.0999984741211
1038.1505917,-50.4799995422363
1038.1662167,-52.4500007629395
1038.1818417,-52.5499992370605
1038.1974667,-51.060001373291
1038.2130917,-48.9799995422363
1038.2287167,-46.9799995422363
1038.2443417,-43.8899993896484
1038.2599667,-36.2000007629395
1038.2755917,-19.7000007629395
1038.2912167,7.51000022888184
1038.3068417,43.1599998474121
1038.3224667,81.620002746582
1038.3380917,115.889999389648
1038.3537167,139.429992675781
1038.3693417,148.229995727539
1038.3849667,141.860000610352
1038.4005917,123.069999694824
1038.4162167,96.2200012207031
1038.4318417,65.5400009155273
1038.4474667,34.25
1038.4630917,4.63000011444092
1038.4787167,-21.7999992370605
1038.4943417,-44.189998626709
1038.5099667,-62.0400009155273
1038.5255917,-75.0199966430664
1038.5412167,-82.8499984741211
1038.5568417,-85.6399993896484
1038.5724667,-84.0500030517578
1038.5880917,-79.4400024414063
1038.6037167,-73.5699996948242
1038.6193417,-68.0299987792969
1038.6349667,-63.7299995422363
1038.6505917,-60.9300003051758
1038.6662167,-59.5299987792969
1038.6818417,-59.4000015258789
1038.6974667,-60.4599990844727
1038.7130917,-62.4500007629395
1038.7287167,-64.8600006103516
1038.7443417,-67.1500015258789
1038.7599667,-68.9100036621094
1038.7755917,-69.9599990844727
1038.7912167,-70.2799987792969
1038.8068417,-69.7799987792969
1038.8224667,-67.8899993896484
1038.8380917,-63.310001373291
1038.8537167,-53.7900009155273
1038.8693417,-36.189998626709
1038.8849667,-8.11999988555908
1038.9005917,29.3799991607666
1038.9162167,71.2699966430664
1038.9318417,110.669998168945
1038.9474667,141.779998779297
1038.9630917,161.130004882813
1038.9787167,167.429992675781
1038.9943417,161.330001831055
1039.0099667,145.160003662109
1039.0255917,122.290000915527
1039.0412167,96.2600021362305
1039.0568417,69.9000015258789
1039.0724667,44.8199996948242
1039.0880917,21.4599990844727
1039.1037167,-0.0099999997764825
1039.1193417,-18.9099998474121
1039.1349667,-34.0900001525879
1039.1505917,-44.6100006103516
1039.1662167,-50.2900009155273
1039.1818417,-51.8199996948242
1039.1974667,-50.5400009155273
1039.2130917,-47.9000015258789
1039.2287167,-45.0299987792969
1039.2443417,-42.7400016784668
1039.2599667,-41.4799995422363
1039.2755917,-41.2099990844727
1039.2912167,-41.6100006103516
1039.3068417,-42.2299995422363
1039.3224667,-42.5
1039.3380917,-41.9799995422363
1039.3537167,-40.9599990844727
1039.3693417,-40.2599983215332
1039.3849667,-40.439998626709
1039.4005917,-41.4500007629395
1039.4162167,-42.8300018310547
1039.4318417,-44.0200004577637
1039.4474667,-44.4099998474121
1039.4630917,-42.7799987792969
1039.4787167,-36.5099983215332
1039.4943417,-21.5300006866455
1039.5099667,5.23000001907349
1039.5255917,42.6399993896484
1039.5412167,84.6699981689453
1039.5568417,123.269996643066
1039.5724667,151.830001831055
1039.5880917,167.039993286133
1039.6037167,168.919998168945
1039.6193417,159.619995117188
1039.6349667,142.089996337891
1039.6505917,119.150001525879
1039.6662167,93.120002746582
1039.6818417,65.9000015258789
1039.6974667,39.0
1039.7130917,13.6700000762939
1039.7287167,-8.73999977111816
1039.7443417,-26.7600002288818
1039.7599667,-39.25
1039.7755917,-46.1100006103516
1039.7912167,-48.4099998474121
1039.8068417,-47.7299995422363
1039.8224667,-45.6300010681152
1039.8380917,-43.4000015258789
1039.8537167,-42.1100006103516
1039.8693417,-42.3899993896484
1039.8849667,-44.2900009155273
1039.9005917,-47.1300010681152
1039.9162167,-49.6399993896484
1039.9318417,-50.3300018310547
1039.9474667,-48.6300010681152
1039.9630917,-45.4900016784668
1039.9787167,-42.5900001525879
1039.9943417,-41.060001373291
1040.0099667,-41.0099983215332
1040.0255917,-41.8300018310547
1040.0412167,-42.689998626709
1040.0568417,-42.5999984741211
1040.0724667,-39.939998626709
1040.0880917,-31.3999996185303
1040.1037167,-12.3100004196167
1040.1193417,19.7199993133545
1040.1349667,61.5499992370605
1040.1505917,105.449996948242
1040.1662167,143.0
1040.1818417,168.149993896484
1040.1974667,178.490005493164
1040.2130917,174.869995117188
1040.2287167,160.380004882813
1040.2443417,138.910003662109
1040.2599667,113.800003051758
1040.2755917,86.9800033569336
1040.2912167,59.1100006103516
1040.3068417,30.4099998474121
1040.3224667,1.61000001430511
1040.3380917,-25.8400001525879
