Time(s),Value(%)
1913.006776,12.5900001525879
1913.022401,16.3799991607666
1913.038026,17.8799991607666
1913.053651,17.1299991607666
1913.069276,14.710000038147
1913.084901,11.4499998092651
1913.100526,8.0600004196167
1913.116151,5.01999998092651
1913.131776,2.48000001907349
1913.147401,0.300000011920929
1913.163026,-1.70000004768372
1913.178651,-3.51999998092651
1913.194276,-4.96000003814697
1913.209901,-5.82999992370605
1913.225526,-6.11999988555908
1913.241151,-5.94999980926514
1913.256776,-5.53000020980835
1913.272401,-5.1399998664856
1913.288026,-4.96999979019165
1913.303651,-5.11999988555908
1913.319276,-5.55999994277954
1913.334901,-6.15999984741211
1913.350526,-6.8600001335144
1913.366151,-7.67000007629395
1913.381776,-8.60000038146973
1913.397401,-9.5600004196167
1913.413026,-10.3800001144409
1913.428651,-10.8299999237061
1913.444276,-10.5500001907349
1913.459901,-9.02000045776367
1913.475526,-5.80000019073486
1913.491151,-1.05999994277954
1913.506776,4.26000022888184
1913.522401,8.85999965667725
1913.538026,11.6300001144409
1913.553651,12.1300001144409
1913.569276,10.6400003433228
1913.584901,7.92999982833862
1913.600526,4.94999980926514
1913.616151,2.45000004768372
1913.631776,0.629999995231628
1913.647401,-0.769999980926514
1913.663026,-2.19000005722046
1913.678651,-3.6800000667572
1913.694276,-5.01000022888184
1913.709901,-5.92999982833862
1913.725526,-6.36999988555908
1913.741151,-6.42999982833862
1913.756776,-6.23999977111816
1913.772401,-6.01000022888184
1913.788026,-5.94999980926514
1913.803651,-6.17000007629395
1913.819276,-6.6399998664856
1913.834901,-7.32000017166138
1913.850526,-8.10000038146973
1913.866151,-8.88000011444092
1913.881776,-9.63000011444092
1913.897401,-10.4200000762939
1913.913026,-11.1599998474121
1913.928651,-11.6599998474121
1913.944276,-11.5699996948242
1913.959901,-10.3999996185303
1913.975526,-7.6399998664856
1913.991151,-3.21000003814697
1914.006776,2.29999995231628
1914.022401,7.78000020980835
1914.038026,11.9799995422363
1914.053651,14.1000003814697
1914.069276,14.1099996566772
1914.084901,12.5
1914.100526,10.0100002288818
1914.116151,7.30999994277954
1914.131776,4.80000019073486
1914.147401,2.63000011444092
1914.163026,0.75
1914.178651,-0.949999988079071
1914.194276,-2.50999999046326
1914.209901,-3.86999988555908
1914.225526,-4.90000009536743
1914.241151,-5.57000017166138
1914.256776,-5.90000009536743
1914.272401,-5.92999982833862
1914.288026,-5.71999979019165
1914.303651,-5.42999982833862
1914.319276,-5.34000015258789
1914.334901,-5.6100001335144
1914.350526,-6.19000005722046
1914.366151,-6.86999988555908
1914.381776,-7.42999982833862
1914.397401,-7.80000019073486
1914.413026,-8.09000015258789
1914.428651,-8.46000003814697
1914.444276,-8.98999977111816
1914.459901,-9.55000019073486
1914.475526,-9.71000003814697
1914.491151,-8.86999988555908
1914.506776,-6.5
1914.522401,-2.51999998092651
1914.538026,2.47000002861023
1914.553651,7.46000003814697
1914.569276,11.5100002288818
1914.584901,14.0600004196167
1914.600526,14.8699998855591
1914.616151,14.0200004577637
1914.631776,11.9200000762939
1914.647401,9.19999980926514
1914.663026,6.42000007629395
1914.678651,3.90000009536743
1914.694276,1.73000001907349
1914.709901,-0.0500000007450581
1914.725526,-1.41999995708466
1914.741151,-2.3199999332428
1914.756776,-2.75999999046326
1914.772401,-2.79999995231628
1914.788026,-2.5699999332428
1914.803651,-2.16000008583069
1914.819276,-1.66999995708466
1914.834901,-1.22000002861023
1914.850526,-0.860000014305115
1914.866151,-0.600000023841858
1914.881776,-0.439999997615814
1914.897401,-0.419999986886978
1914.913026,-0.620000004768372
1914.928651,-1.04999995231628
1914.944276,-1.64999997615814
1914.959901,-2.30999994277954
1914.975526,-2.90000009536743
1914.991151,-3.33999991416931
1915.006776,-3.45000004768372
1915.022401,-2.89000010490417
1915.038026,-1.24000000953674
1915.053651,1.86000001430511
1915.069276,6.40000009536743
1915.084901,11.6499996185303
1915.100526,16.3899993896484
1915.116151,19.3799991607666
1915.131776,20.0200004577637
1915.147401,18.5
1915.163026,15.5900001525879
1915.178651,12.1899995803833
1915.194276,8.96000003814697
1915.209901,6.21000003814697
1915.225526,4.01000022888184
1915.241151,2.3199999332428
1915.256776,1.0
1915.272401,0.0
1915.288026,-0.670000016689301
1915.303651,-1.03999996185303
1915.319276,-1.21000003814697
1915.334901,-1.36000001430511
1915.350526,-1.57000005245209
1915.366151,-1.80999994277954
1915.381776,-2.00999999046326
1915.397401,-2.15000009536743
1915.413026,-2.35999989509583
1915.428651,-2.75999999046326
1915.444276,-3.35999989509583
1915.459901,-4.05000019073486
1915.475526,-4.73999977111816
1915.491151,-5.28999996185303
1915.506776,-5.59999990463257
1915.522401,-5.61999988555908
1915.538026,-5.32999992370605
1915.553651,-4.42999982833862
1915.569276,-2.29999995231628
1915.584901,1.42999994754791
1915.600526,6.30999994277954
1915.616151,11.1099996566772
1915.631776,14.460000038147
1915.647401,15.5500001907349
1915.663026,14.3999996185303
1915.678651,11.7299995422363
1915.694276,8.42000007629395
1915.709901,5.21000003814697
1915.725526,2.47000002861023
1915.741151,0.230000004172325
1915.756776,-1.64999997615814
1915.772401,-3.26999998092651
1915.788026,-4.57000017166138
1915.803651,-5.44000005722046
1915.819276,-5.8600001335144
1915.834901,-5.94999980926514
1915.850526,-5.92000007629395
1915.866151,-5.8600001335144
1915.881776,-5.82999992370605
1915.897401,-5.86999988555908
1915.913026,-6.05999994277954
1915.928651,-6.44000005722046
1915.944276,-6.98000001907349
1915.959901,-7.55999994277954
1915.975526,-8.02999973297119
1915.991151,-8.31999969482422
1916.006776,-8.48999977111816
1916.022401,-8.63000011444092
1916.038026,-8.6899995803833
1916.053651,-8.28999996185303
1916.069276,-6.73999977111816
1916.084901,-3.45000004768372
1916.100526,1.47000002861023
1916.116151,7.1100001335144
1916.131776,12.039999961853
1916.147401,15.0500001907349
1916.163026,15.5600004196167
1916.178651,13.7700004577637
1916.194276,10.4799995422363
1916.209901,6.75
1916.225526,3.5
1916.241151,1.12999999523163
1916.256776,-0.430000007152557
1916.272401,-1.54999995231628
1916.288026,-2.53999996185303
1916.303651,-3.57999992370605
1916.319276,-4.67999982833862
1916.334901,-5.65000009536743
1916.350526,-6.23000001907349
1916.366151,-6.30000019073486
1916.381776,-6.0
1916.397401,-5.65999984741211
1916.413026,-5.59000015258789
1916.428651,-5.98000001907349
1916.444276,-6.76999998092651
1916.459901,-7.69999980926514
1916.475526,-8.47999954223633
1916.491151,-9.02999973297119
1916.506776,-9.38000011444092
1916.522401,-9.60000038146973
1916.538026,-9.6899995803833
1916.553651,-9.52999973297119
1916.569276,-8.72000026702881
1916.584901,-6.69000005722046
1916.600526,-3.10999989509583
1916.616151,1.8400000333786
1916.631776,7.34999990463257
1916.647401,12.1800003051758
1916.663026,15.210000038147
1916.678651,15.9700002670288
1916.694276,14.6899995803833
1916.709901,12.1800003051758
1916.725526,9.32999992370605
1916.741151,6.75
1916.756776,4.6100001335144
1916.772401,2.80999994277954
1916.788026,1.23000001907349
1916.803651,-0.170000001788139
1916.819276,-1.48000001907349
1916.834901,-2.76999998092651
1916.850526,-4.0
1916.866151,-4.92000007629395
1916.881776,-5.40000009536743
1916.897401,-5.48000001907349
1916.913026,-5.34000015258789
1916.928651,-5.1399998664856
1916.944276,-5.03000020980835
1916.959901,-5.13000011444092
1916.975526,-5.51000022888184
1916.991151,-6.09999990463257
1917.006776,-6.69999980926514
1917.022401,-7.09999990463257
1917.038026,-7.21000003814697
1917.053651,-7.03999996185303
1917.069276,-6.67999982833862
1917.084901,-6.17000007629395
1917.100526,-5.21999979019165
1917.116151,-3.27999997138977
1917.131776,0.119999997317791
1917.147401,5.01000022888184
1917.163026,10.6099996566772
1917.178651,15.6999998092651
1917.194276,19.1000003814697
1917.209901,20.1700000762939
1917.225526,19.0499992370605
1917.241151,16.5300006866455
1917.256776,13.6300001144409
1917.272401,11.1300001144409
1917.288026,9.26000022888184
1917.303651,7.71000003814697
1917.319276,5.96999979019165
1917.334901,3.69000005722046
1917.350526,1.03999996185303
1917.366151,-1.38999998569489
1917.381776,-3.10999989509583
1917.397401,-3.92000007629395
1917.413026,-4.01999998092651
1917.428651,-3.86999988555908
1917.444276,-3.95000004768372
1917.459901,-4.53999996185303
1917.475526,-5.6100001335144
1917.491151,-6.84999990463257
1917.506776,-7.98000001907349
1917.522401,-8.86999988555908
1917.538026,-9.53999996185303
1917.553651,-10.0799999237061
1917.569276,-10.4700002670288
1917.584901,-10.6899995803833
1917.600526,-10.7600002288818
1917.616151,-10.7700004577637
1917.631776,-10.7200002670288
1917.647401,-10.4200000762939
1917.663026,-9.48999977111816
1917.678651,-7.34999990463257
1917.694276,-3.34999990463257
1917.709901,2.48000001907349
1917.725526,9.10000038146973
1917.741151,14.9099998474121
1917.756776,18.6200008392334
1917.772401,19.7199993133545
1917.788026,18.5100002288818
1917.803651,15.8999996185303
1917.819276,12.9200000762939
1917.834901,10.3699998855591
1917.850526,8.5
1917.866151,7.05999994277954
1917.881776,5.59999990463257
1917.897401,3.80999994277954
1917.913026,1.71000003814697
1917.928651,-0.430000007152557
1917.944276,-2.3199999332428
1917.959901,-3.78999996185303
1917.975526,-4.82000017166138
1917.991151,-5.42000007629395
1918.006776,-5.63000011444092
1918.022401,-5.53000020980835
1918.038026,-5.30999994277954
1918.053651,-5.15000009536743
1918.069276,-5.21000003814697
1918.084901,-5.69000005722046
1918.100526,-6.98999977111816
1918.116151,-9.19999980926514
1918.131776,-11.4399995803833
1918.147401,-12.3000001907349
1918.163026,-11.1199998855591
1918.178651,-8.61999988555908
1918.194276,-6.15000009536743
1918.209901,-4.84000015258789
1918.225526,-5.01000022888184
1918.241151,-6.17000007629395
1918.256776,-7.30999994277954
1918.272401,-7.3600001335144
1918.288026,-5.65000009536743
1918.303651,-2.25
1918.319276,1.99000000953674
1918.334901,5.78999996185303
1918.350526,8.05000019073486
1918.366151,8.35999965667725
1918.381776,7.05999994277954
1918.397401,4.88000011444092
1918.413026,2.45000004768372
1918.428651,0.0700000002980232
1918.444276,-2.33999991416931
1918.459901,-5.23000001907349
1918.475526,-9.02000045776367
1918.491151,-13.6400003433228
1918.506776,-18.5400009155273
1918.522401,-23.0499992370605
1918.538026,-26.7700004577637
1918.553651,-29.7299995422363
1918.569276,-32.2700004577637
1918.584901,-34.8600006103516
1918.600526,-37.8300018310547
1918.616151,-41.2400016784668
1918.631776,-45.2200012207031
1918.647401,-50.7099990844727
1918.663026,-59.5499992370605
1918.678651,-73.0500030517578
1918.694276,-90.3399963378906
1918.709901,-108.059997558594
1918.725526,-121.580001831055
1918.741151,-126.699996948242
1918.756776,-121.629997253418
1918.772401,-107.5
1918.788026,-87.3600006103516
1918.803651,-64.5299987792969
1918.819276,-41.3699989318848
1918.834901,-18.3099994659424
1918.850526,6.23999977111816
1918.866151,34.4000015258789
1918.881776,66.1999969482422
1918.897401,98.8300018310547
1918.913026,128.179992675781
1918.928651,150.820007324219
1918.944276,165.270004272461
1918.959901,171.940002441406
1918.975526,172.199996948242
1918.991151,167.440002441406
1919.006776,159.009994506836
1919.022401,148.350006103516
1919.038026,136.779998779297
1919.053651,125.199996948242
1919.069276,113.980003356934
1919.084901,103.23999786377
1919.100526,93.25
1919.116151,84.2600021362305
1919.131776,76.3099975585938
1919.147401,69.0500030517578
1919.163026,62.1100006103516
1919.178651,55.0699996948242
1919.194276,47.060001373291
1919.209901,36.7200012207031
1919.225526,23.0100002288818
1919.241151,5.90999984741211
1919.256776,-13.6099996566772
1919.272401,-33.9300003051758
1919.288026,-53.189998626709
1919.303651,-69.75
1919.319276,-82.5599975585938
1919.334901,-91.1800003051758
1919.350526,-95.7799987792969
1919.366151,-96.7900009155273
1919.381776,-94.4899978637695
1919.397401,-88.7699966430664
1919.413026,-78.7900009155273
1919.428651,-63.1399993896484
1919.444276,-41.3699989318848
1919.459901,-16.0499992370605
1919.475526,6.76000022888184
1919.491151,20.1800003051758
1919.506776,20.4799995422363
1919.522401,9.19999980926514
1919.538026,-7.92999982833862
1919.553651,-24.0400009155273
1919.569276,-33.689998626709
1919.584901,-34.2900009155273
1919.600526,-26.3500003814697
1919.616151,-13.6800003051758
1919.631776,-2.8199999332428
1919.647401,-0.579999983310699
1919.663026,-11.2799997329712
1919.678651,-36.2400016784668
1919.694276,-74.5
1919.709901,-121.720001220703
1919.725526,-167.940002441406
1919.741151,-199.070007324219
1919.756776,-203.419998168945
1919.772401,-178.470001220703
1919.788026,-132.800003051758
1919.803651,-81.629997253418
1919.819276,-38.6599998474121
1919.834901,-9.85999965667725
1919.850526,6.86999988555908
1919.866151,17.3500003814697
1919.881776,26.6499996185303
1919.897401,37.6199989318848
1919.913026,50.8600006103516
1919.928651,64.9300003051758
1919.944276,77.2799987792969
1919.959901,86.6399993896484
1919.975526,94.2300033569336
1919.991151,102.5
1920.006776,113.309997558594
1920.022401,127.26000213623
1920.038026,142.929992675781
1920.053651,156.220001220703
1920.069276,162.320007324219
1920.084901,160.160003662109
1920.100526,154.619995117188
1920.116151,154.199996948242
1920.131776,166.729995727539
1920.147401,194.639999389648
1920.163026,231.830001831055
1920.178651,265.720001220703
1920.194276,282.600006103516
1920.209901,272.820007324219
1920.225526,233.979995727539
1920.241151,170.220001220703
1920.256776,90.5299987792969
1920.272401,8.0600004196167
1920.288026,-62.5699996948242
1920.303651,-111.050003051758
1920.319276,-134.850006103516
1920.334901,-138.139999389648
1920.350526,-128.490005493164
1920.366151,-114.190002441406
1920.381776,-102.400001525879
1920.397401,-97.370002746582
1920.413026,-99.5899963378906
1920.428651,-106.690002441406
1920.444276,-115.699996948242
1920.459901,-124.720001220703
1920.475526,-132.690002441406
1920.491151,-138.800003051758
1920.506776,-142.600006103516
1920.522401,-144.169998168945
1920.538026,-143.070007324219
1920.553651,-137.580001831055
1920.569276,-125.980003356934
1920.584901,-109.029998779297
1920.600526,-90.0100021362305
1920.616151,-72.5
1920.631776,-58.5999984741211
1920.647401,-48.7400016784668
1920.663026,-41.9799995422363
1920.678651,-37.1599998474121
1920.694276,-33.689998626709
1920.709901,-31.2199993133545
1920.725526,-28.2000007629395
1920.741151,-21.4899997711182
1920.756776,-8.35000038146973
1920.772401,11.289999961853
1920.788026,36.2000007629395
1920.803651,67.3499984741211
1920.819276,109.029998779297
1920.834901,164.889999389648
1920.850526,231.089996337891
1920.866151,293.100006103516
1920.881776,327.670013427734
1920.897401,327.670013427734
1920.913026,296.959991455078
1920.928651,231.770004272461
1920.944276,156.020004272461
1920.959901,91.7799987792969
1920.975526,55.25
1920.991151,45.9599990844727
1921.006776,46.9799995422363
1921.022401,37.4700012207031
1921.038026,6.19999980926514
1921.053651,-43.0999984741211
1921.069276,-96.4899978637695
1921.084901,-138.869995117188
1921.100526,-161.020004272461
1921.116151,-161.440002441406
1921.131776,-144.520004272461
1921.147401,-117.919998168945
1921.163026,-89.629997253418
1921.178651,-65.3199996948242
1921.194276,-47.3400001525879
1921.209901,-36.0200004577637
1921.225526,-31.3099994659424
1921.241151,-33.0200004577637
1921.256776,-40.2299995422363
1921.272401,-51.310001373291
1921.288026,-64.8300018310547
1921.303651,-80.3499984741211
1921.319276,-98.5999984741211
1921.334901,-120.75
1921.350526,-147.089996337891
1921.366151,-175.5
1921.381776,-200.889999389648
1921.397401,-217.130004882813
1921.413026,-220.759994506836
1921.428651,-213.020004272461
1921.444276,-198.240005493164
1921.459901,-180.919998168945
1921.475526,-163.850006103516
1921.491151,-147.869995117188
1921.506776,-132.740005493164
1921.522401,-118.019996643066
1921.538026,-103.330001831055
1921.553651,-88.3399963378906
1921.569276,-73.0500030517578
1921.584901,-58.2999992370605
1921.600526,-45.4900016784668
1921.616151,-35.5200004577637
1921.631776,-27.9099998474121
1921.647401,-21.3299999237061
1921.663026,-14.8400001525879
1921.678651,-8.39000034332275
1921.694276,-2.67000007629395
1921.709901,1.71000003814697
1921.725526,4.8600001335144
1921.741151,7.42999982833862
1921.756776,10.0900001525879
1921.772401,13.1000003814697
1921.788026,16.1800003051758
1921.803651,18.8600006103516
1921.819276,20.7800006866455
1921.834901,21.8400001525879
1921.850526,22.2700004577637
1921.866151,22.5699996948242
1921.881776,23.1700000762939
1921.897401,24.2199993133545
1921.913026,25.6000003814697
1921.928651,27.2299995422363
1921.944276,29.1200008392334
1921.959901,31.2800006866455
1921.975526,33.5499992370605
1921.991151,35.4799995422363
1922.006776,36.7900009155273
1922.022401,37.7599983215332
1922.038026,39.1699981689453
1922.053651,41.7599983215332
1922.069276,45.6599998474121
1922.084901,50.2799987792969
1922.100526,54.6699981689453
1922.116151,58.1100006103516
1922.131776,60.3899993896484
1922.147401,61.6599998474121
1922.163026,62.3199996948242
1922.178651,63.0499992370605
1922.194276,64.4899978637695
1922.209901,66.7300033569336
1922.225526,69.120002746582
1922.241151,70.6100006103516
1922.256776,70.3399963378906
1922.272401,68.0500030517578
1922.288026,64.120002746582
1922.303651,59.3899993896484
1922.319276,54.8300018310547
1922.334901,51.0
1922.350526,48.1300010681152
1922.366151,46.2900009155273
1922.381776,45.439998626709
1922.397401,45.2900009155273
1922.413026,45.4799995422363
1922.428651,45.7799987792969
1922.444276,46.1500015258789
1922.459901,46.6500015258789
1922.475526,47.1800003051758
1922.491151,47.4900016784668
1922.506776,47.2099990844727
1922.522401,46.189998626709
1922.538026,44.8300018310547
1922.553651,43.8800010681152
1922.569276,43.9900016784668
1922.584901,45.1500015258789
1922.600526,46.9700012207031
1922.616151,49.25
1922.631776,51.5099983215332
1922.647401,52.4300003051758
1922.663026,50.7700004577637
1922.678651,46.439998626709
1922.694276,40.4099998474121
1922.709901,34.060001373291
1922.725526,28.6399993896484
1922.741151,25.0900001525879
1922.756776,23.8299999237061
1922.772401,24.5
1922.788026,26.0799999237061
1922.803651,27.5200004577637
1922.819276,28.3400001525879
1922.834901,28.6800003051758
1922.850526,28.9599990844727
1922.866151,29.4400005340576
1922.881776,29.9899997711182
1922.897401,29.9899997711182
1922.913026,28.8400001525879
1922.928651,26.4300003051758
1922.944276,23.0499992370605
1922.959901,18.8600006103516
1922.975526,13.6999998092651
1922.991151,7.38000011444092
1923.006776,0.280000001192093
1923.022401,-6.57999992370605
1923.038026,-12.3100004196167
1923.053651,-16.5799999237061
1923.069276,-19.5
1923.084901,-21.2900009155273
1923.100526,-22.2900009155273
1923.116151,-22.3799991607666
1923.131776,-20.3999996185303
1923.147401,-15.0500001907349
1923.163026,-6.44000005722046
1923.178651,4.11999988555908
1923.194276,15.8999996185303
1923.209901,30.3099994659424
1923.225526,52.0499992370605
1923.241151,87.7099990844727
1923.256776,139.509994506836
1923.272401,199.899993896484
1923.288026,253.279998779297
1923.303651,282.690002441406
1923.319276,277.470001220703
1923.334901,237.990005493164
1923.350526,175.199996948242
1923.366151,105.269996643066
1923.381776,42.7700004577637
1923.397401,-4.30999994277954
1923.413026,-36.1500015258789
1923.428651,-59.0499992370605
1923.444276,-80.5299987792969
1923.459901,-104.360000610352
1923.475526,-129.25
1923.491151,-151.75
1923.506776,-169.990005493164
1923.522401,-184.729995727539
1923.538026,-197.369995117188
1923.553651,-207.830001831055
1923.569276,-214.990005493164
1923.584901,-218.229995727539
1923.600526,-218.149993896484
1923.616151,-216.190002441406
1923.631776,-214.080001831055
1923.647401,-212.949996948242
1923.663026,-212.339996337891
1923.678651,-210.169998168945
1923.694276,-203.960006713867
1923.709901,-192.899993896484
1923.725526,-179.020004272461
