Time(s),Value(%)
792.010146,94.0
792.025771,94.0
792.041396,94.0
792.057021,94.0
792.072646,94.0
792.088271,94.0
792.103896,94.0
792.119521,94.0
792.135146,94.0
792.150771,94.0
792.166396,94.0
792.182021,94.0299987792969
792.197646,94.0699996948242
792.213271,94.1100006103516
792.228896,94.1500015258789
792.244521,94.1800003051758
792.260146,94.2200012207031
792.275771,94.2600021362305
792.291396,94.3000030517578
792.307021,94.3000030517578
792.322646,94.3000030517578
792.338271,94.3000030517578
792.353896,94.3000030517578
792.369521,94.3000030517578
792.385146,94.3000030517578
792.400771,94.3000030517578
792.416396,94.3000030517578
792.432021,94.3000030517578
792.447646,94.3000030517578
792.463271,94.3000030517578
792.478896,94.3000030517578
792.494521,94.3000030517578
792.510146,94.3000030517578
792.525771,94.3000030517578
792.541396,94.3000030517578
792.557021,94.3000030517578
792.572646,94.3000030517578
792.588271,94.3000030517578
792.603896,94.3000030517578
792.619521,94.3000030517578
792.635146,94.3000030517578
792.650771,94.3000030517578
792.666396,94.3000030517578
792.682021,94.3000030517578
792.697646,94.3000030517578
792.713271,94.3000030517578
792.728896,94.3000030517578
792.744521,94.3000030517578
792.760146,94.3000030517578
792.775771,94.3000030517578
792.791396,94.3000030517578
792.807021,94.3000030517578
792.822646,94.3000030517578
792.838271,94.3000030517578
792.853896,94.3000030517578
792.869521,94.3000030517578
792.885146,94.3000030517578
792.900771,94.3000030517578
792.916396,94.3000030517578
792.932021,94.3000030517578
792.947646,94.3000030517578
792.963271,94.3000030517578
792.978896,94.3499984741211
792.994521,94.4000015258789
793.010146,94.4499969482422
793.025771,94.5
793.041396,94.5500030517578
793.057021,94.5999984741211
793.072646,94.6500015258789
793.088271,94.6999969482422
793.103896,94.6999969482422
793.119521,94.6999969482422
793.135146,94.6999969482422
793.150771,94.6999969482422
793.166396,94.6999969482422
793.182021,94.6999969482422
793.197646,94.6999969482422
793.213271,94.6999969482422
793.228896,94.6999969482422
793.244521,94.6999969482422
793.260146,94.6999969482422
793.275771,94.6999969482422
793.291396,94.6999969482422
793.307021,94.6999969482422
793.322646,94.6999969482422
793.338271,94.6999969482422
793.353896,94.6999969482422
793.369521,94.6999969482422
793.385146,94.6999969482422
793.400771,94.6999969482422
793.416396,94.6999969482422
793.432021,94.6999969482422
793.447646,94.6999969482422
793.463271,94.6999969482422
793.478896,94.6999969482422
793.494521,94.6999969482422
793.510146,94.6999969482422
793.525771,94.6999969482422
793.541396,94.6999969482422
793.557021,94.6999969482422
793.572646,94.6999969482422
793.588271,94.6999969482422
793.603896,94.6999969482422
793.619521,94.6999969482422
793.635146,94.6999969482422
793.650771,94.6999969482422
793.666396,94.6999969482422
793.682021,94.6999969482422
793.697646,94.6999969482422
793.713271,94.6999969482422
793.728896,94.6999969482422
793.744521,94.6999969482422
793.760146,94.6999969482422
793.775771,94.6999969482422
793.791396,94.75
793.807021,94.8000030517578
793.822646,94.8499984741211
793.838271,94.9000015258789
793.853896,94.9499969482422
793.869521,95.0
793.885146,95.0500030517578
793.900771,95.0999984741211
793.916396,95.0999984741211
793.932021,95.0999984741211
793.947646,95.0999984741211
793.963271,95.0999984741211
793.978896,95.0999984741211
793.994521,95.0999984741211
794.010146,95.0999984741211
794.025771,95.0999984741211
794.041396,95.0999984741211
794.057021,95.0999984741211
794.072646,95.0999984741211
794.088271,95.0999984741211
794.103896,95.0999984741211
794.119521,95.0999984741211
794.135146,95.0999984741211
794.150771,95.0999984741211
794.166396,95.0999984741211
794.182021,95.0999984741211
794.197646,95.0999984741211
794.213271,95.0999984741211
794.228896,95.0999984741211
794.244521,95.0999984741211
794.260146,95.0999984741211
794.275771,95.0999984741211
794.291396,95.0999984741211
794.307021,95.0999984741211
794.322646,95.0999984741211
794.338271,95.0999984741211
794.353896,95.0999984741211
794.369521,95.0999984741211
794.385146,95.0999984741211
794.400771,95.0999984741211
794.416396,95.0999984741211
794.432021,95.0999984741211
794.447646,95.0999984741211
794.463271,95.0999984741211
794.478896,95.0999984741211
794.494521,95.0999984741211
794.510146,95.0999984741211
794.525771,95.0999984741211
794.541396,95.0999984741211
794.557021,95.0999984741211
794.572646,95.0999984741211
794.588271,95.0999984741211
794.603896,95.0999984741211
794.619521,95.0999984741211
794.635146,95.0999984741211
794.650771,95.0999984741211
794.666396,95.0999984741211
794.682021,95.0999984741211
794.697646,95.0999984741211
794.713271,95.0999984741211
794.728896,95.0999984741211
794.744521,95.0999984741211
794.760146,95.0999984741211
794.775771,95.0999984741211
794.791396,95.0999984741211
794.807021,95.0999984741211
794.822646,95.0999984741211
794.838271,95.0999984741211
794.853896,95.0999984741211
794.869521,95.0999984741211
794.885146,95.0999984741211
794.900771,95.0999984741211
794.916396,95.0999984741211
794.932021,95.0999984741211
794.947646,95.0999984741211
794.963271,95.0999984741211
794.978896,95.0999984741211
794.994521,95.0999984741211
795.010146,95.0999984741211
795.025771,95.0999984741211
795.041396,95.0999984741211
795.057021,95.0999984741211
795.072646,95.0999984741211
795.088271,95.0999984741211
795.103896,95.0999984741211
795.119521,95.0999984741211
795.135146,95.0999984741211
795.150771,95.0999984741211
795.166396,95.0999984741211
795.182021,95.0999984741211
795.197646,95.0999984741211
795.213271,95.0999984741211
795.228896,95.0999984741211
795.244521,95.0999984741211
795.260146,95.0999984741211
795.275771,95.0999984741211
795.291396,95.0999984741211
795.307021,95.0999984741211
795.322646,95.0999984741211
795.338271,95.0999984741211
795.353896,95.0999984741211
795.369521,95.0999984741211
795.385146,95.0999984741211
795.400771,95.0999984741211
795.416396,95.0999984741211
795.432021,95.0999984741211
795.447646,95.0999984741211
795.463271,95.0999984741211
795.478896,95.1100006103516
795.494521,95.120002746582
795.510146,95.129997253418
795.525771,95.1500015258789
795.541396,95.1600036621094
795.557021,95.1699981689453
795.572646,95.1800003051758
795.588271,95.1999969482422
795.603896,95.1999969482422
795.619521,95.1999969482422
795.635146,95.1999969482422
795.650771,95.1999969482422
795.666396,95.1999969482422
795.682021,95.1999969482422
795.697646,95.1999969482422
795.713271,95.1999969482422
795.728896,95.1999969482422
795.744521,95.1999969482422
795.760146,95.1999969482422
795.775771,95.1999969482422
795.791396,95.1999969482422
795.807021,95.1999969482422
795.822646,95.1999969482422
795.838271,95.1999969482422
795.853896,95.1999969482422
795.869521,95.1999969482422
795.885146,95.1999969482422
795.900771,95.1999969482422
795.916396,95.1999969482422
795.932021,95.1999969482422
795.947646,95.1999969482422
795.963271,95.1999969482422
795.978896,95.1999969482422
795.994521,95.1999969482422
796.010146,95.1999969482422
796.025771,95.1999969482422
796.041396,95.1999969482422
796.057021,95.1999969482422
796.072646,95.1999969482422
796.088271,95.1999969482422
796.103896,95.1999969482422
796.119521,95.1999969482422
796.135146,95.1999969482422
796.150771,95.1999969482422
796.166396,95.1999969482422
796.182021,95.1999969482422
796.197646,95.1999969482422
796.213271,95.1999969482422
796.228896,95.1999969482422
796.244521,95.2099990844727
796.260146,95.2200012207031
796.275771,95.2300033569336
796.291396,95.25
796.307021,95.2600021362305
796.322646,95.2699966430664
796.338271,95.2799987792969
796.353896,95.3000030517578
796.369521,95.3000030517578
796.385146,95.3000030517578
796.400771,95.3000030517578
796.416396,95.3000030517578
796.432021,95.3000030517578
796.447646,95.3000030517578
796.463271,95.3000030517578
796.478896,95.3000030517578
796.494521,95.3000030517578
796.510146,95.3000030517578
796.525771,95.3000030517578
796.541396,95.3000030517578
796.557021,95.3000030517578
796.572646,95.3000030517578
796.588271,95.3000030517578
796.603896,95.3000030517578
796.619521,95.3000030517578
796.635146,95.3000030517578
796.650771,95.3000030517578
796.666396,95.3000030517578
796.682021,95.3000030517578
796.697646,95.3000030517578
796.713271,95.3000030517578
796.728896,95.3000030517578
796.744521,95.3000030517578
796.760146,95.3000030517578
796.775771,95.3000030517578
796.791396,95.3000030517578
796.807021,95.3000030517578
796.822646,95.3000030517578
796.838271,95.3000030517578
796.853896,95.3000030517578
796.869521,95.3000030517578
796.885146,95.3000030517578
796.900771,95.3000030517578
796.916396,95.3000030517578
796.932021,95.3000030517578
796.947646,95.3000030517578
796.963271,95.3000030517578
796.978896,95.3000030517578
796.994521,95.3000030517578
797.010146,95.3099975585938
797.025771,95.3199996948242
797.041396,95.3300018310547
797.057021,95.3499984741211
797.072646,95.3600006103516
797.088271,95.370002746582
797.103896,95.379997253418
797.119521,95.4000015258789
797.135146,95.4000015258789
797.150771,95.4000015258789
797.166396,95.4000015258789
797.182021,95.4000015258789
797.197646,95.4000015258789
797.213271,95.4000015258789
797.228896,95.4000015258789
797.244521,95.4000015258789
797.260146,95.4000015258789
797.275771,95.4000015258789
797.291396,95.4000015258789
797.307021,95.4000015258789
797.322646,95.4000015258789
797.338271,95.4000015258789
797.353896,95.4000015258789
797.369521,95.4000015258789
797.385146,95.4000015258789
797.400771,95.4000015258789
797.416396,95.4000015258789
797.432021,95.4000015258789
797.447646,95.4000015258789
797.463271,95.4000015258789
797.478896,95.4000015258789
797.494521,95.4000015258789
797.510146,95.4000015258789
797.525771,95.4000015258789
797.541396,95.4000015258789
797.557021,95.4000015258789
797.572646,95.4000015258789
797.588271,95.4000015258789
797.603896,95.4000015258789
797.619521,95.4000015258789
797.635146,95.4000015258789
797.650771,95.4000015258789
797.666396,95.4000015258789
797.682021,95.4000015258789
797.697646,95.4000015258789
797.713271,95.4000015258789
797.728896,95.4000015258789
797.744521,95.4000015258789
797.760146,95.4000015258789
797.775771,95.4000015258789
797.791396,95.4000015258789
797.807021,95.4000015258789
797.822646,95.4000015258789
797.838271,95.4000015258789
797.853896,95.4000015258789
797.869521,95.4000015258789
797.885146,95.4000015258789
797.900771,95.4000015258789
797.916396,95.4000015258789
797.932021,95.4000015258789
797.947646,95.4000015258789
797.963271,95.4000015258789
797.978896,95.4000015258789
797.994521,95.4000015258789
798.010146,95.4000015258789
798.025771,95.4000015258789
798.041396,95.4000015258789
798.057021,95.4000015258789
798.072646,95.4000015258789
798.088271,95.4000015258789
798.103896,95.4000015258789
798.119521,95.4000015258789
798.135146,95.4000015258789
798.150771,95.4000015258789
798.166396,95.4000015258789
798.182021,95.4000015258789
798.197646,95.4000015258789
798.213271,95.4000015258789
798.228896,95.4000015258789
798.244521,95.4000015258789
798.260146,95.4000015258789
798.275771,95.4000015258789
798.291396,95.4000015258789
798.307021,95.4000015258789
798.322646,95.4000015258789
798.338271,95.4000015258789
798.353896,95.4000015258789
798.369521,95.4000015258789
798.385146,95.4000015258789
798.400771,95.4000015258789
798.416396,95.4000015258789
798.432021,95.4000015258789
798.447646,95.4000015258789
798.463271,95.4000015258789
798.478896,95.4000015258789
798.494521,95.4000015258789
798.510146,95.4000015258789
798.525771,95.4000015258789
798.541396,95.4000015258789
798.557021,95.4000015258789
798.572646,95.4000015258789
798.588271,95.4000015258789
798.603896,95.4000015258789
798.619521,95.4000015258789
798.635146,95.4000015258789
798.650771,95.4000015258789
798.666396,95.4000015258789
798.682021,95.4000015258789
798.697646,95.4100036621094
798.713271,95.4199981689453
798.728896,95.4300003051758
798.744521,95.4499969482422
798.760146,95.4599990844727
798.775771,95.4700012207031
798.791396,95.4800033569336
798.807021,95.5
798.822646,95.5
798.838271,95.5
798.853896,95.5
798.869521,95.5
798.885146,95.5
798.900771,95.5
798.916396,95.5
798.932021,95.5
798.947646,95.5
798.963271,95.5
798.978896,95.5
798.994521,95.5
799.010146,95.5
799.025771,95.5
799.041396,95.5
799.057021,95.5
799.072646,95.5
799.088271,95.5
799.103896,95.5
799.119521,95.5
799.135146,95.5
799.150771,95.5
799.166396,95.5
799.182021,95.5
799.197646,95.5
799.213271,95.5
799.228896,95.5
799.244521,95.5
799.260146,95.5
799.275771,95.5
799.291396,95.5
799.307021,95.5
799.322646,95.5
799.338271,95.5
799.353896,95.5
799.369521,95.5
799.385146,95.5
799.400771,95.5
799.416396,95.5
799.432021,95.5
799.447646,95.5
799.463271,95.5
799.478896,95.5
799.494521,95.5
799.510146,95.5
799.525771,95.5
799.541396,95.5
799.557021,95.5
799.572646,95.5299987792969
799.588271,95.5699996948242
799.603896,95.6100006103516
799.619521,95.6500015258789
799.635146,95.6800003051758
799.650771,95.7200012207031
799.666396,95.7600021362305
799.682021,95.8000030517578
799.697646,95.8000030517578
799.713271,95.8000030517578
799.728896,95.8000030517578
799.744521,95.8000030517578
799.760146,95.8000030517578
799.775771,95.8000030517578
799.791396,95.8000030517578
799.807021,95.8000030517578
799.822646,95.8000030517578
799.838271,95.8000030517578
799.853896,95.8000030517578
799.869521,95.8000030517578
799.885146,95.8000030517578
799.900771,95.8000030517578
799.916396,95.8000030517578
799.932021,95.8000030517578
799.947646,95.8000030517578
799.963271,95.8000030517578
799.978896,95.8000030517578
799.994521,95.8000030517578
800.010146,95.8000030517578
800.025771,95.8000030517578
800.041396,95.8000030517578
800.057021,95.8000030517578
800.072646,95.8000030517578
800.088271,95.8000030517578
800.103896,95.8000030517578
800.119521,95.8000030517578
800.135146,95.8000030517578
800.150771,95.8000030517578
800.166396,95.8000030517578
800.182021,95.8000030517578
800.197646,95.8000030517578
800.213271,95.8000030517578
800.228896,95.8000030517578
800.244521,95.8000030517578
800.260146,95.8000030517578
800.275771,95.8000030517578
800.291396,95.8000030517578
800.307021,95.8000030517578
800.322646,95.8000030517578
800.338271,95.8000030517578
800.353896,95.8000030517578
800.369521,95.8000030517578
800.385146,95.8000030517578
800.400771,95.8000030517578
800.416396,95.8000030517578
800.432021,95.8300018310547
800.447646,95.870002746582
800.463271,95.9100036621094
800.478896,95.9499969482422
800.494521,95.9800033569336
800.510146,96.0199966430664
800.525771,96.0599975585938
800.541396,96.0999984741211
800.557021,96.0999984741211
800.572646,96.0999984741211
800.588271,96.0999984741211
800.603896,96.0999984741211
800.619521,96.0999984741211
800.635146,96.0999984741211
800.650771,96.0999984741211
800.666396,96.0999984741211
800.682021,96.0999984741211
800.697646,96.0999984741211
800.713271,96.0999984741211
800.728896,96.0999984741211
800.744521,96.0999984741211
800.760146,96.0999984741211
800.775771,96.0999984741211
800.791396,96.0999984741211
800.807021,96.0999984741211
800.822646,96.0999984741211
800.838271,96.0999984741211
800.853896,96.0999984741211
800.869521,96.0999984741211
800.885146,96.0999984741211
800.900771,96.0999984741211
800.916396,96.0999984741211
800.932021,96.0999984741211
800.947646,96.0999984741211
800.963271,96.0999984741211
800.978896,96.0999984741211
800.994521,96.0999984741211
801.010146,96.0999984741211
801.025771,96.0999984741211
801.041396,96.0999984741211
801.057021,96.0999984741211
801.072646,96.0999984741211
801.088271,96.0999984741211
801.103896,96.0999984741211
801.119521,96.0999984741211
801.135146,96.0999984741211
801.150771,96.0999984741211
801.166396,96.0999984741211
801.182021,96.0999984741211
801.197646,96.0999984741211
801.213271,96.0999984741211
801.228896,96.0999984741211
801.244521,96.0999984741211
801.260146,96.1100006103516
801.275771,96.120002746582
801.291396,96.129997253418
801.307021,96.1500015258789
801.322646,96.1600036621094
801.338271,96.1699981689453
801.353896,96.1800003051758
801.369521,96.1999969482422
801.385146,96.1999969482422
801.400771,96.1999969482422
801.416396,96.1999969482422
801.432021,96.1999969482422
801.447646,96.1999969482422
801.463271,96.1999969482422
801.478896,96.1999969482422
801.494521,96.1999969482422
801.510146,96.1999969482422
801.525771,96.1999969482422
801.541396,96.1999969482422
801.557021,96.1999969482422
801.572646,96.1999969482422
801.588271,96.1999969482422
801.603896,96.1999969482422
801.619521,96.1999969482422
801.635146,96.1999969482422
801.650771,96.1999969482422
801.666396,96.1999969482422
801.682021,96.1999969482422
801.697646,96.1999969482422
801.713271,96.1999969482422
801.728896,96.1999969482422
801.744521,96.1999969482422
801.760146,96.1999969482422
801.775771,96.1999969482422
801.791396,96.1999969482422
801.807021,96.1999969482422
801.822646,96.1999969482422
801.838271,96.1999969482422
801.853896,96.1999969482422
801.869521,96.1999969482422
801.885146,96.1999969482422
801.900771,96.1999969482422
801.916396,96.1999969482422
801.932021,96.1999969482422
801.947646,96.1999969482422
801.963271,96.1999969482422
801.978896,96.1999969482422
801.994521,96.1999969482422
802.010146,96.1999969482422
802.025771,96.1999969482422
802.041396,96.1999969482422
802.057021,96.2099990844727
802.072646,96.2200012207031
802.088271,96.2300033569336
802.103896,96.25
802.119521,96.2600021362305
802.135146,96.2699966430664
802.150771,96.2799987792969
802.166396,96.3000030517578
802.182021,96.3000030517578
802.197646,96.3000030517578
802.213271,96.3000030517578
802.228896,96.3000030517578
802.244521,96.3000030517578
802.260146,96.3000030517578
802.275771,96.3000030517578
802.291396,96.3000030517578
802.307021,96.3000030517578
802.322646,96.3000030517578
802.338271,96.3000030517578
802.353896,96.3000030517578
802.369521,96.3000030517578
802.385146,96.3000030517578
802.400771,96.3000030517578
802.416396,96.3000030517578
802.432021,96.3000030517578
802.447646,96.3000030517578
802.463271,96.3000030517578
802.478896,96.3000030517578
802.494521,96.3000030517578
802.510146,96.3000030517578
802.525771,96.3000030517578
802.541396,96.3000030517578
802.557021,96.3000030517578
802.572646,96.3000030517578
802.588271,96.3000030517578
802.603896,96.3000030517578
802.619521,96.3000030517578
802.635146,96.3000030517578
802.650771,96.3000030517578
802.666396,96.3000030517578
802.682021,96.3000030517578
802.697646,96.3000030517578
802.713271,96.3000030517578
802.728896,96.3000030517578
802.744521,96.3000030517578
802.760146,96.3000030517578
802.775771,96.3000030517578
802.791396,96.3000030517578
802.807021,96.3000030517578
802.822646,96.3000030517578
802.838271,96.3000030517578
802.853896,96.3000030517578
802.869521,96.3000030517578
802.885146,96.3000030517578
802.900771,96.3000030517578
802.916396,96.3000030517578
802.932021,96.3000030517578
802.947646,96.3000030517578
802.963271,96.3000030517578
802.978896,96.3000030517578
802.994521,96.3000030517578
803.010146,96.3000030517578
803.025771,96.3000030517578
803.041396,96.3000030517578
803.057021,96.3000030517578
803.072646,96.3000030517578
803.088271,96.3000030517578
803.103896,96.3000030517578
803.119521,96.3000030517578
803.135146,96.3000030517578
803.150771,96.3000030517578
803.166396,96.3000030517578
803.182021,96.3000030517578
803.197646,96.3000030517578
803.213271,96.3000030517578
803.228896,96.3000030517578
803.244521,96.3000030517578
803.260146,96.3000030517578
803.275771,96.3000030517578
803.291396,96.3000030517578
803.307021,96.3000030517578
803.322646,96.3000030517578
803.338271,96.3000030517578
803.353896,96.3000030517578
803.369521,96.3000030517578
803.385146,96.3000030517578
803.400771,96.3000030517578
803.416396,96.3000030517578
803.432021,96.3000030517578
803.447646,96.3000030517578
803.463271,96.3000030517578
803.478896,96.3000030517578
803.494521,96.3000030517578
803.510146,96.3000030517578
803.525771,96.3000030517578
803.541396,96.3000030517578
803.557021,96.3000030517578
803.572646,96.3000030517578
