Time(s),Value(%)
1163.0110287,-11.5500001907349
1163.0266537,-14.789999961853
1163.0422787,-18.5499992370605
1163.0579037,-22.7999992370605
1163.0735287,-27.5200004577637
1163.0891537,-32.7400016784668
1163.1047787,-38.310001373291
1163.1204037,-43.7599983215332
1163.1360287,-48.3800010681152
1163.1516537,-51.7299995422363
1163.1672787,-53.9599990844727
1163.1829037,-55.6100006103516
1163.1985287,-57.0299987792969
1163.2141537,-58.2099990844727
1163.2297787,-58.9799995422363
1163.2454037,-59.2299995422363
1163.2610287,-58.9199981689453
1163.2766537,-57.6500015258789
1163.2922787,-54.4599990844727
1163.3079037,-48.4300003051758
1163.3235287,-39.4599990844727
1163.3391537,-28.3500003814697
1163.3547787,-16.2399997711182
1163.3704037,-4.09000015258789
1163.3860287,7.40000009536743
1163.4016537,17.6100006103516
1163.4172787,25.7199993133545
1163.4329037,31.0499992370605
1163.4485287,33.4900016784668
1163.4641537,33.5299987792969
1163.4797787,31.9500007629395
1163.4954037,29.4500007629395
1163.5110287,26.5599994659424
1163.5266537,23.6599998474121
1163.5422787,20.9200000762939
1163.5579037,18.4200000762939
1163.5735287,16.1800003051758
1163.5891537,14.210000038147
1163.6047787,12.4399995803833
1163.6204037,10.75
1163.6360287,8.90999984741211
1163.6516537,6.71999979019165
1163.6672787,4.17000007629395
1163.6829037,1.4099999666214
1163.6985287,-1.32000005245209
1163.7141537,-3.96000003814697
1163.7297787,-6.67999982833862
1163.7454037,-9.6899995803833
1163.7610287,-12.9899997711182
1163.7766537,-16.2999992370605
1163.7922787,-19.3099994659424
1163.8079037,-21.8299999237061
1163.8235287,-23.9099998474121
1163.8391537,-25.8199996948242
1163.8547787,-27.9200000762939
1163.8704037,-30.5400009155273
1163.8860287,-33.7700004577637
1163.9016537,-37.5499992370605
1163.9172787,-41.9000015258789
1163.9329037,-46.8499984741211
1163.9485287,-52.2400016784668
1163.9641537,-57.5099983215332
1163.9797787,-61.7400016784668
1163.9954037,-63.9300003051758
1164.0110287,-63.4599990844727
1164.0266537,-60.2000007629395
1164.0422787,-54.5499992370605
1164.0579037,-47.2200012207031
1164.0735287,-39.0699996948242
1164.0891537,-30.9099998474121
1164.1047787,-23.2299995422363
1164.1204037,-16.1499996185303
1164.1360287,-9.42000007629395
1164.1516537,-2.71000003814697
1164.1672787,4.1399998664856
1164.1829037,10.9700002670288
1164.1985287,17.3899993896484
1164.2141537,23.0200004577637
1164.2297787,27.6299991607666
1164.2454037,31.0400009155273
1164.2610287,32.9000015258789
1164.2766537,32.8899993896484
1164.2922787,31.0400009155273
1164.3079037,27.8999996185303
1164.3235287,24.3500003814697
1164.3391537,21.2199993133545
1164.3547787,18.9200000762939
1164.3704037,17.4200000762939
1164.3860287,16.3799991607666
1164.4016537,15.4300003051758
1164.4172787,14.3000001907349
1164.4329037,12.9099998474121
1164.4485287,11.289999961853
1164.4641537,9.44999980926514
1164.4797787,7.23999977111816
1164.4954037,4.5
1164.5110287,1.22000002861023
1164.5266537,-2.32999992370605
1164.5422787,-5.78000020980835
1164.5579037,-8.89000034332275
1164.5735287,-11.8000001907349
1164.5891537,-14.789999961853
1164.6047787,-17.8600006103516
1164.6204037,-20.7000007629395
1164.6360287,-23.0
1164.6516537,-24.6299991607666
1164.6672787,-25.6900005340576
1164.6829037,-26.2900009155273
1164.6985287,-26.4099998474121
1164.7141537,-25.9500007629395
1164.7297787,-24.7999992370605
1164.7454037,-22.6399993896484
1164.7610287,-18.7800006866455
1164.7766537,-12.6000003814697
1164.7922787,-4.13000011444092
1164.8079037,5.84000015258789
1164.8235287,16.3199996948242
1164.8391537,26.5499992370605
1164.8547787,36.25
1164.8704037,45.0999984741211
1164.8860287,52.3499984741211
1164.9016537,57.0499992370605
1164.9172787,58.7900009155273
1164.9329037,58.0099983215332
1164.9485287,55.689998626709
1164.9641537,52.7999992370605
1164.9797787,49.810001373291
1164.9954037,46.7400016784668
1165.0110287,43.5200004577637
1165.0266537,40.2099990844727
1165.0422787,37.060001373291
1165.0579037,34.3300018310547
1165.0735287,32.1199989318848
1165.0891537,30.3500003814697
1165.1047787,28.8199996948242
1165.1204037,27.3199996948242
1165.1360287,25.7399997711182
1165.1516537,24.0400009155273
1165.1672787,22.2600002288818
1165.1829037,20.4300003051758
1165.1985287,18.5200004577637
1165.2141537,16.4799995422363
1165.2297787,14.3100004196167
1165.2454037,12.0299997329712
1165.2610287,9.67000007629395
1165.2766537,7.19999980926514
1165.2922787,4.55999994277954
1165.3079037,1.74000000953674
1165.3235287,-1.1599999666214
1165.3391537,-3.95000004768372
1165.3547787,-6.46000003814697
1165.3704037,-8.64000034332275
1165.3860287,-10.4200000762939
1165.4016537,-11.3800001144409
1165.4172787,-10.539999961853
1165.4329037,-6.96999979019165
1165.4485287,-0.490000009536743
1165.4641537,8.34000015258789
1165.4797787,18.9099998474121
1165.4954037,30.7099990844727
1165.5110287,43.1100006103516
1165.5266537,55.0
1165.5422787,64.8399963378906
1165.5579037,71.4300003051758
1165.5735287,74.6100006103516
1165.5891537,75.0599975585938
1165.6047787,73.4400024414063
1165.6204037,70.1800003051758
1165.6360287,65.6100006103516
1165.6516537,60.189998626709
1165.6672787,54.4599990844727
1165.6829037,48.8899993896484
1165.6985287,43.7400016784668
1165.7141537,39.0800018310547
1165.7297787,34.8499984741211
1165.7454037,30.9400005340576
1165.7610287,27.3299999237061
1165.7766537,24.0599994659424
1165.7922787,21.1100006103516
1165.8079037,18.3099994659424
1165.8235287,15.3400001525879
1165.8391537,11.8900003433228
1165.8547787,7.84999990463257
1165.8704037,3.3199999332428
1165.8860287,-1.51999998092651
1165.9016537,-6.51999998092651
1165.9172787,-11.5100002288818
1165.9329037,-16.3600006103516
1165.9485287,-21.0
1165.9641537,-25.5
1165.9797787,-30.0900001525879
1165.9954037,-34.9900016784668
1166.0110287,-40.1599998474121
1166.0266537,-44.9900016784668
1166.0422787,-48.3699989318848
1166.0579037,-49.2700004577637
1166.0735287,-47.4799995422363
1166.0891537,-43.5900001525879
1166.1047787,-38.4000015258789
1166.1204037,-32.0999984741211
1166.1360287,-24.0900001525879
1166.1516537,-13.9200000762939
1166.1672787,-2.38000011444092
1166.1829037,8.76000022888184
1166.1985287,17.9500007629395
1166.2141537,24.6100006103516
1166.2297787,29.1200008392334
1166.2454037,32.0499992370605
1166.2610287,33.5299987792969
1166.2766537,33.3300018310547
1166.2922787,31.4300003051758
1166.3079037,28.3099994659424
1166.3235287,24.7900009155273
1166.3391537,21.6900005340576
1166.3547787,19.3500003814697
1166.3704037,17.4400005340576
1166.3860287,15.1199998855591
1166.4016537,11.6099996566772
1166.4172787,6.65000009536743
1166.4329037,0.600000023841858
1166.4485287,-5.98000001907349
1166.4641537,-12.6400003433228
1166.4797787,-19.1000003814697
1166.4954037,-25.2299995422363
1166.5110287,-30.9599990844727
1166.5266537,-36.0999984741211
1166.5422787,-40.25
1166.5579037,-43.060001373291
1166.5735287,-44.5
1166.5891537,-44.9300003051758
1166.6047787,-44.939998626709
1166.6204037,-45.0
1166.6360287,-45.4199981689453
1166.6516537,-46.4099998474121
1166.6672787,-48.2200012207031
1166.6829037,-50.75
1166.6985287,-53.310001373291
1166.7141537,-54.8400001525879
1166.7297787,-54.689998626709
1166.7454037,-52.9500007629395
1166.7610287,-50.25
1166.7766537,-47.3499984741211
1166.7922787,-44.6399993896484
1166.8079037,-41.5699996948242
1166.8235287,-36.5900001525879
1166.8391537,-28.1499996185303
1166.8547787,-15.9099998474121
1166.8704037,-0.800000011920929
1166.8860287,15.6999998092651
1166.9016537,32.3499984741211
1166.9172787,48.0900001525879
1166.9329037,61.4500007629395
1166.9485287,70.2200012207031
1166.9641537,72.6399993896484
1166.9797787,68.7900009155273
1166.9954037,60.5699996948242
1167.0110287,50.3600006103516
1167.0266537,39.9300003051758
1167.0422787,30.1200008392334
1167.0579037,21.0900001525879
1167.0735287,12.6300001144409
1167.0891537,4.38000011444092
1167.1047787,-3.98000001907349
1167.1204037,-12.6999998092651
1167.1360287,-21.7399997711182
1167.1516537,-30.9300003051758
1167.1672787,-40.189998626709
1167.1829037,-49.4799995422363
1167.1985287,-58.7200012207031
1167.2141537,-67.75
1167.2297787,-76.3499984741211
1167.2454037,-84.4700012207031
1167.2610287,-92.2099990844727
1167.2766537,-99.6699981689453
1167.2922787,-106.699996948242
1167.3079037,-112.940002441406
1167.3235287,-118.089996337891
1167.3391537,-122.089996337891
1167.3547787,-125.120002746582
1167.3704037,-127.370002746582
1167.3860287,-128.759994506836
1167.4016537,-128.570007324219
1167.4172787,-125.48999786377
1167.4329037,-118.449996948242
1167.4485287,-107.620002746582
1167.4641537,-94.3899993896484
1167.4797787,-80.6100006103516
1167.4954037,-67.7399978637695
1167.5110287,-56.4700012207031
1167.5266537,-47.0699996948242
1167.5422787,-39.7599983215332
1167.5579037,-34.7200012207031
1167.5735287,-31.7199993133545
1167.5891537,-30.0200004577637
1167.6047787,-28.6100006103516
1167.6204037,-26.6700000762939
1167.6360287,-23.9200000762939
1167.6516537,-20.8500003814697
1167.6672787,-18.5200004577637
1167.6829037,-17.7900009155273
1167.6985287,-18.7399997711182
1167.7141537,-20.7399997711182
1167.7297787,-23.0499992370605
1167.7454037,-25.25
1167.7610287,-27.2000007629395
1167.7766537,-28.9599990844727
1167.7922787,-30.6299991607666
1167.8079037,-32.4199981689453
1167.8235287,-34.6199989318848
1167.8391537,-37.4900016784668
1167.8547787,-41.060001373291
1167.8704037,-45.2000007629395
1167.8860287,-49.7999992370605
1167.9016537,-54.810001373291
1167.9172787,-60.0900001525879
1167.9329037,-65.3300018310547
1167.9485287,-70.1699981689453
1167.9641537,-74.4499969482422
1167.9797787,-78.3399963378906
1167.9954037,-82.0800018310547
1168.0110287,-85.5899963378906
1168.0266537,-88.5100021362305
1168.0422787,-90.5199966430664
1168.0579037,-91.5599975585938
1168.0735287,-91.6600036621094
1168.0891537,-90.2799987792969
1168.1047787,-86.0100021362305
1168.1204037,-77.4599990844727
1168.1360287,-64.4400024414063
1168.1516537,-48.0900001525879
1168.1672787,-30.0699996948242
1168.1829037,-11.8000001907349
1168.1985287,5.67000007629395
1168.2141537,21.2900009155273
1168.2297787,33.6300010681152
1168.2454037,41.4799995422363
1168.2610287,44.689998626709
1168.2766537,44.1599998474121
1168.2922787,41.25
1168.3079037,37.1399993896484
1168.3235287,32.689998626709
1168.3391537,28.4200000762939
1168.3547787,24.5400009155273
1168.3704037,21.0900001525879
1168.3860287,18.0499992370605
1168.4016537,15.3599996566772
1168.4172787,12.9499998092651
1168.4329037,10.6700000762939
1168.4485287,8.26000022888184
1168.4641537,5.51000022888184
1168.4797787,2.40000009536743
1168.4954037,-0.829999983310699
1168.5110287,-3.90000009536743
1168.5266537,-6.67000007629395
1168.5422787,-9.43000030517578
1168.5579037,-12.5299997329712
1168.5735287,-15.9799995422363
1168.5891537,-19.4099998474121
1168.6047787,-22.3700008392334
1168.6204037,-24.6100006103516
1168.6360287,-26.1700000762939
1168.6516537,-27.4200000762939
1168.6672787,-28.9099998474121
1168.6829037,-31.0900001525879
1168.6985287,-33.9700012207031
1168.7141537,-36.9900016784668
1168.7297787,-39.1199989318848
1168.7454037,-39.4799995422363
1168.7610287,-37.7599983215332
1168.7766537,-34.060001373291
1168.7922787,-28.3600006103516
1168.8079037,-20.2600002288818
1168.8235287,-9.3100004196167
1168.8391537,4.34999990463257
1168.8547787,19.4799995422363
1168.8704037,34.2599983215332
1168.8860287,47.2700004577637
1168.9016537,58.0200004577637
1168.9172787,66.6999969482422
1168.9329037,73.7900009155273
1168.9485287,79.1399993896484
1168.9641537,82.379997253418
1168.9797787,83.4100036621094
1168.9954037,82.7900009155273
1169.0110287,81.4100036621094
1169.0266537,80.0800018310547
1169.0422787,79.2600021362305
1169.0579037,78.9499969482422
1169.0735287,78.9000015258789
1169.0891537,78.7699966430664
1169.1047787,78.379997253418
1169.1204037,77.6900024414063
1169.1360287,76.7699966430664
1169.1516537,75.6900024414063
1169.1672787,74.5500030517578
1169.1829037,73.4300003051758
1169.1985287,72.3000030517578
1169.2141537,70.9700012207031
1169.2297787,69.0
1169.2454037,66.0
1169.2610287,61.8800010681152
1169.2766537,56.810001373291
1169.2922787,51.0
1169.3079037,44.5900001525879
1169.3235287,37.8199996948242
1169.3391537,31.2199993133545
1169.3547787,25.5499992370605
1169.3704037,21.4400005340576
1169.3860287,19.0499992370605
1169.4016537,18.1800003051758
1169.4172787,18.5200004577637
1169.4329037,19.8500003814697
1169.4485287,21.9200000762939
1169.4641537,24.3899993896484
1169.4797787,27.1399993896484
1169.4954037,30.8500003814697
1169.5110287,37.2400016784668
1169.5266537,47.9599990844727
1169.5422787,63.2700004577637
1169.5579037,81.7900009155273
1169.5735287,101.410003662109
1169.5891537,120.330001831055
1169.6047787,137.360000610352
1169.6204037,151.389999389648
1169.6360287,160.880004882813
1169.6516537,164.600006103516
1169.6672787,162.720001220703
1169.6829037,156.800003051758
1169.6985287,148.970001220703
1169.7141537,140.979995727539
1169.7297787,133.850006103516
1169.7454037,127.849998474121
1169.7610287,122.75
1169.7766537,118.069999694824
1169.7922787,113.379997253418
1169.8079037,108.400001525879
1169.8235287,103.029998779297
1169.8391537,97.2600021362305
1169.8547787,91.1100006103516
1169.8704037,84.629997253418
1169.8860287,77.9499969482422
1169.9016537,71.2600021362305
1169.9172787,64.4599990844727
1169.9329037,57.7599983215332
1169.9485287,50.8199996948242
1169.9641537,43.2400016784668
1169.9797787,34.9000015258789
1169.9954037,25.9099998474121
1170.0110287,16.3400001525879
1170.0266537,6.28000020980835
1170.0422787,-4.05000019073486
1170.0579037,-14.0799999237061
1170.0735287,-22.9099998474121
1170.0891537,-29.6399993896484
1170.1047787,-33.6500015258789
1170.1204037,-34.8300018310547
1170.1360287,-33.4799995422363
1170.1516537,-30.2199993133545
1170.1672787,-25.8799991607666
1170.1829037,-21.2900009155273
1170.1985287,-16.8899993896484
1170.2141537,-12.3500003814697
1170.2297787,-6.53000020980835
1170.2454037,1.75
1170.2610287,12.7700004577637
1170.2766537,25.7099990844727
1170.2922787,39.2299995422363
1170.3079037,52.1800003051758
1170.3235287,63.7400016784668
1170.3391537,73.0
1170.3547787,78.6500015258789
1170.3704037,79.6100006103516
1170.3860287,76.0100021362305
1170.4016537,69.25
1170.4172787,61.189998626709
1170.4329037,53.2799987792969
1170.4485287,46.2299995422363
1170.4641537,40.0800018310547
1170.4797787,34.4900016784668
1170.4954037,29.0799999237061
1170.5110287,23.5599994659424
1170.5266537,17.8400001525879
1170.5422787,11.9700002670288
1170.5579037,5.96999979019165
1170.5735287,-0.310000002384186
1170.5891537,-7.07000017166138
1170.6047787,-14.3299999237061
1170.6204037,-21.8400001525879
1170.6360287,-29.2999992370605
1170.6516537,-36.5800018310547
1170.6672787,-43.9099998474121
1170.6829037,-51.4900016784668
1170.6985287,-59.1199989318848
1170.7141537,-66.3000030517578
1170.7297787,-72.5299987792969
1170.7454037,-77.6699981689453
1170.7610287,-81.9199981689453
1170.7766537,-85.6800003051758
1170.7922787,-89.4199981689453
1170.8079037,-93.4400024414063
1170.8235287,-97.6600036621094
1170.8391537,-101.339996337891
1170.8547787,-103.160003662109
1170.8704037,-101.940002441406
1170.8860287,-97.4499969482422
1170.9016537,-90.3099975585938
1170.9172787,-80.9400024414063
1170.9329037,-70.0999984741211
1170.9485287,-57.6699981689453
1170.9641537,-43.9799995422363
1170.9797787,-30.3899993896484
1170.9954037,-18.7099990844727
1171.0110287,-10.0799999237061
1171.0266537,-4.42000007629395
1171.0422787,-0.810000002384186
1171.0579037,1.62999999523163
1171.0735287,3.10999989509583
1171.0891537,3.3199999332428
1171.1047787,2.05999994277954
1171.1204037,-0.360000014305115
1171.1360287,-3.34999990463257
1171.1516537,-6.23999977111816
1171.1672787,-8.63000011444092
1171.1829037,-10.5299997329712
1171.1985287,-12.2299995422363
1171.2141537,-14.0900001525879
1171.2297787,-16.4200000762939
1171.2454037,-19.2999992370605
1171.2610287,-22.6299991607666
1171.2766537,-26.1800003051758
1171.2922787,-29.7000007629395
1171.3079037,-33.0
1171.3235287,-36.0299987792969
1171.3391537,-39.060001373291
1171.3547787,-42.5999984741211
1171.3704037,-47.1399993896484
1171.3860287,-52.7799987792969
1171.4016537,-59.0900001525879
1171.4172787,-65.4599990844727
1171.4329037,-71.3499984741211
1171.4485287,-76.4899978637695
1171.4641537,-80.9499969482422
1171.4797787,-85.0299987792969
1171.4954037,-89.0
1171.5110287,-93.0599975585938
1171.5266537,-97.370002746582
1171.5422787,-102.230003356934
1171.5579037,-107.930000305176
1171.5735287,-114.330001831055
1171.5891537,-120.650001525879
1171.6047787,-125.589996337891
1171.6204037,-127.860000610352
1171.6360287,-126.830001831055
1171.6516537,-122.610000610352
1171.6672787,-115.690002441406
1171.6829037,-106.370002746582
1171.6985287,-94.6600036621094
1171.7141537,-80.5500030517578
1171.7297787,-64.5599975585938
1171.7454037,-47.8600006103516
1171.7610287,-31.8600006103516
1171.7766537,-17.6100006103516
1171.7922787,-5.42000007629395
1171.8079037,4.73000001907349
1171.8235287,12.6800003051758
1171.8391537,18.1399993896484
1171.8547787,21.1900005340576
1171.8704037,22.4500007629395
1171.8860287,22.8099994659424
1171.9016537,22.9500007629395
1171.9172787,22.9899997711182
1171.9329037,22.8299999237061
1171.9485287,22.2900009155273
1171.9641537,21.3099994659424
1171.9797787,20.0200004577637
1171.9954037,18.6000003814697
1172.0110287,17.2399997711182
1172.0266537,16.0799999237061
1172.0422787,15.2299995422363
1172.0579037,14.6099996566772
1172.0735287,13.9399995803833
1172.0891537,12.8900003433228
1172.1047787,11.3000001907349
1172.1204037,9.13000011444092
1172.1360287,6.34000015258789
1172.1516537,2.84999990463257
1172.1672787,-1.17999994754791
1172.1829037,-5.3600001335144
1172.1985287,-9.10999965667725
1172.2141537,-12.1199998855591
1172.2297787,-14.6000003814697
1172.2454037,-16.9400005340576
1172.2610287,-19.2800006866455
1172.2766537,-21.3299999237061
1172.2922787,-22.7700004577637
1172.3079037,-23.4599990844727
1172.3235287,-23.5699996948242
1172.3391537,-23.4699993133545
1172.3547787,-23.6100006103516
1172.3704037,-24.3099994659424
1172.3860287,-25.6100006103516
1172.4016537,-27.2600002288818
1172.4172787,-28.9200000762939
1172.4329037,-30.3199996948242
1172.4485287,-31.2000007629395
1172.4641537,-30.8799991607666
1172.4797787,-28.0499992370605
1172.4954037,-21.5499992370605
1172.5110287,-11.2600002288818
1172.5266537,1.82000005245209
1172.5422787,16.3700008392334
1172.5579037,31.2600002288818
1172.5735287,45.7000007629395
1172.5891537,58.8899993896484
1172.6047787,69.879997253418
1172.6204037,77.9300003051758
1172.6360287,82.9599990844727
1172.6516537,85.4599990844727
1172.6672787,86.0800018310547
1172.6829037,85.3000030517578
1172.6985287,83.5199966430664
1172.7141537,81.129997253418
1172.7297787,78.4800033569336
1172.7454037,75.8499984741211
1172.7610287,73.4100036621094
1172.7766537,71.2200012207031
1172.7922787,69.3099975585938
1172.8079037,67.6699981689453
1172.8235287,66.2699966430664
1172.8391537,65.0699996948242
1172.8547787,64.0
1172.8704037,62.9799995422363
1172.8860287,61.9099998474121
1172.9016537,60.5699996948242
1172.9172787,58.5699996948242
1172.9329037,55.6399993896484
1172.9485287,51.7299995422363
1172.9641537,46.9900016784668
1172.9797787,41.5499992370605
1172.9954037,35.5099983215332
1173.0110287,29.0599994659424
1173.0266537,22.6399993896484
1173.0422787,16.8099994659424
1173.0579037,11.9200000762939
1173.0735287,7.76999998092651
1173.0891537,3.9300000667572
1173.1047787,0.230000004172325
1173.1204037,-3.11999988555908
1173.1360287,-5.88000011444092
1173.1516537,-7.94999980926514
1173.1672787,-9.4399995803833
1173.1829037,-10.6300001144409
1173.1985287,-11.7600002288818
1173.2141537,-12.9899997711182
1173.2297787,-14.2399997711182
1173.2454037,-15.0699996948242
1173.2610287,-14.6199998855591
1173.2766537,-12.1499996185303
1173.2922787,-7.53000020980835
1173.3079037,-1.22000002861023
1173.3235287,6.19999980926514
1173.3391537,14.4200000762939
1173.3547787,23.2800006866455
1173.3704037,32.3600006103516
1173.3860287,40.689998626709
