Time(s),Value(℃)
305.0134825,108.620002746582
305.0291075,108.629997253418
305.0447325,108.639999389648
305.0603575,108.639999389648
305.0759825,108.650001525879
305.0916075,108.660003662109
305.1072325,108.669998168945
305.1228575,108.669998168945
305.1384825,108.680000305176
305.1541075,108.690002441406
305.1697325,108.699996948242
305.1853575,108.709999084473
305.2009825,108.720001220703
305.2166075,108.730003356934
305.2322325,108.73999786377
305.2478575,108.75
305.2634825,108.76000213623
305.2791075,108.769996643066
305.2947325,108.779998779297
305.3103575,108.790000915527
305.3259825,108.800003051758
305.3416075,108.809997558594
305.3572325,108.809997558594
305.3728575,108.819999694824
305.3884825,108.830001831055
305.4041075,108.839996337891
305.4197325,108.849998474121
305.4353575,108.860000610352
305.4509825,108.879997253418
305.4666075,108.889999389648
305.4822325,108.900001525879
305.4978575,108.910003662109
305.5134825,108.919998168945
305.5291075,108.930000305176
305.5447325,108.940002441406
305.5603575,108.949996948242
305.5759825,108.959999084473
305.5916075,108.970001220703
305.6072325,108.98999786377
305.6228575,109.0
305.6384825,109.01000213623
305.6541075,109.019996643066
305.6697325,109.029998779297
305.6853575,109.050003051758
305.7009825,109.059997558594
305.7166075,109.069999694824
305.7322325,109.080001831055
305.7478575,109.089996337891
305.7634825,109.099998474121
305.7791075,109.120002746582
305.7947325,109.129997253418
305.8103575,109.139999389648
305.8259825,109.139999389648
305.8416075,109.150001525879
305.8572325,109.160003662109
305.8728575,109.169998168945
305.8884825,109.180000305176
305.9041075,109.190002441406
305.9197325,109.199996948242
305.9353575,109.199996948242
305.9509825,109.209999084473
305.9666075,109.220001220703
305.9822325,109.230003356934
305.9978575,109.23999786377
306.0134825,109.25
306.0291075,109.26000213623
306.0447325,109.269996643066
306.0603575,109.279998779297
306.0759825,109.290000915527
306.0916075,109.300003051758
306.1072325,109.309997558594
306.1228575,109.319999694824
306.1384825,109.330001831055
306.1541075,109.339996337891
306.1697325,109.349998474121
306.1853575,109.360000610352
306.2009825,109.370002746582
306.2166075,109.379997253418
306.2322325,109.400001525879
306.2478575,109.410003662109
306.2634825,109.419998168945
306.2791075,109.430000305176
306.2947325,109.440002441406
306.3103575,109.449996948242
306.3259825,109.459999084473
306.3416075,109.470001220703
306.3572325,109.480003356934
306.3728575,109.48999786377
306.3884825,109.5
306.4041075,109.51000213623
306.4197325,109.519996643066
306.4353575,109.519996643066
306.4509825,109.529998779297
306.4666075,109.540000915527
306.4822325,109.540000915527
306.4978575,109.550003051758
306.5134825,109.550003051758
306.5291075,109.559997558594
306.5447325,109.559997558594
306.5603575,109.569999694824
306.5759825,109.569999694824
306.5916075,109.580001831055
306.6072325,109.580001831055
306.6228575,109.580001831055
306.6384825,109.589996337891
306.6541075,109.589996337891
306.6697325,109.589996337891
306.6853575,109.589996337891
306.7009825,109.589996337891
306.7166075,109.589996337891
306.7322325,109.599998474121
306.7478575,109.599998474121
306.7634825,109.599998474121
306.7791075,109.599998474121
306.7947325,109.599998474121
306.8103575,109.599998474121
306.8259825,109.589996337891
306.8416075,109.589996337891
306.8572325,109.589996337891
306.8728575,109.589996337891
306.8884825,109.589996337891
306.9041075,109.589996337891
306.9197325,109.589996337891
306.9353575,109.580001831055
306.9509825,109.580001831055
306.9666075,109.580001831055
306.9822325,109.569999694824
306.9978575,109.569999694824
307.0134825,109.559997558594
307.0291075,109.559997558594
307.0447325,109.550003051758
307.0603575,109.550003051758
307.0759825,109.540000915527
307.0916075,109.540000915527
307.1072325,109.529998779297
307.1228575,109.519996643066
307.1384825,109.519996643066
307.1541075,109.51000213623
307.1697325,109.5
307.1853575,109.5
307.2009825,109.48999786377
307.2166075,109.48999786377
307.2322325,109.480003356934
307.2478575,109.470001220703
307.2634825,109.470001220703
307.2791075,109.459999084473
307.2947325,109.459999084473
307.3103575,109.449996948242
307.3259825,109.449996948242
307.3416075,109.440002441406
307.3572325,109.440002441406
307.3728575,109.440002441406
307.3884825,109.430000305176
307.4041075,109.430000305176
307.4197325,109.430000305176
307.4353575,109.419998168945
307.4509825,109.419998168945
307.4666075,109.410003662109
307.4822325,109.410003662109
307.4978575,109.410003662109
307.5134825,109.400001525879
307.5291075,109.400001525879
307.5447325,109.400001525879
307.5603575,109.400001525879
307.5759825,109.389999389648
307.5916075,109.389999389648
307.6072325,109.389999389648
307.6228575,109.389999389648
307.6384825,109.389999389648
307.6541075,109.389999389648
307.6697325,109.379997253418
307.6853575,109.379997253418
307.7009825,109.379997253418
307.7166075,109.379997253418
307.7322325,109.379997253418
307.7478575,109.379997253418
307.7634825,109.379997253418
307.7791075,109.379997253418
307.7947325,109.379997253418
307.8103575,109.370002746582
307.8259825,109.370002746582
307.8416075,109.370002746582
307.8572325,109.370002746582
307.8728575,109.360000610352
307.8884825,109.360000610352
307.9041075,109.360000610352
307.9197325,109.349998474121
307.9353575,109.349998474121
307.9509825,109.349998474121
307.9666075,109.339996337891
307.9822325,109.339996337891
307.9978575,109.339996337891
308.0134825,109.330001831055
308.0291075,109.330001831055
308.0447325,109.330001831055
308.0603575,109.330001831055
308.0759825,109.319999694824
308.0916075,109.319999694824
308.1072325,109.319999694824
308.1228575,109.319999694824
308.1384825,109.319999694824
308.1541075,109.319999694824
308.1697325,109.330001831055
308.1853575,109.339996337891
308.2009825,109.349998474121
308.2166075,109.360000610352
308.2322325,109.379997253418
308.2478575,109.400001525879
308.2634825,109.430000305176
308.2791075,109.459999084473
308.2947325,109.51000213623
308.3103575,109.559997558594
308.3259825,109.629997253418
308.3416075,109.699996948242
308.3572325,109.779998779297
308.3728575,109.870002746582
308.3884825,109.970001220703
308.4041075,110.080001831055
308.4197325,110.199996948242
308.4353575,110.319999694824
308.4509825,110.449996948242
308.4666075,110.589996337891
308.4822325,110.730003356934
308.4978575,110.879997253418
308.5134825,111.029998779297
308.5291075,111.180000305176
308.5447325,111.339996337891
308.5603575,111.5
308.5759825,111.669998168945
308.5916075,111.839996337891
308.6072325,112.01000213623
308.6228575,112.180000305176
308.6384825,112.360000610352
308.6541075,112.540000915527
308.6697325,112.720001220703
308.6853575,112.900001525879
308.7009825,113.089996337891
308.7166075,113.269996643066
308.7322325,113.459999084473
308.7478575,113.650001525879
308.7634825,113.839996337891
308.7791075,114.029998779297
308.7947325,114.230003356934
308.8103575,114.419998168945
308.8259825,114.620002746582
308.8416075,114.819999694824
308.8572325,115.019996643066
308.8728575,115.220001220703
308.8884825,115.419998168945
308.9041075,115.629997253418
308.9197325,115.830001831055
308.9353575,116.029998779297
308.9509825,116.230003356934
308.9666075,116.430000305176
308.9822325,116.639999389648
308.9978575,116.839996337891
309.0134825,117.040000915527
309.0291075,117.23999786377
309.0447325,117.440002441406
309.0603575,117.639999389648
309.0759825,117.839996337891
309.0916075,118.029998779297
309.1072325,118.230003356934
309.1228575,118.419998168945
309.1384825,118.620002746582
309.1541075,118.809997558594
309.1697325,118.98999786377
309.1853575,119.169998168945
309.2009825,119.339996337891
309.2166075,119.5
309.2322325,119.650001525879
309.2478575,119.790000915527
309.2634825,119.919998168945
309.2791075,120.029998779297
309.2947325,120.129997253418
309.3103575,120.220001220703
309.3259825,120.290000915527
309.3416075,120.360000610352
309.3572325,120.410003662109
309.3728575,120.449996948242
309.3884825,120.480003356934
309.4041075,120.51000213623
309.4197325,120.529998779297
309.4353575,120.529998779297
309.4509825,120.540000915527
309.4666075,120.540000915527
309.4822325,120.529998779297
309.4978575,120.51000213623
309.5134825,120.48999786377
309.5291075,120.470001220703
309.5447325,120.440002441406
309.5603575,120.410003662109
309.5759825,120.370002746582
309.5916075,120.330001831055
309.6072325,120.290000915527
309.6228575,120.23999786377
309.6384825,120.190002441406
309.6541075,120.139999389648
309.6697325,120.080001831055
309.6853575,120.019996643066
309.7009825,119.959999084473
309.7166075,119.900001525879
309.7322325,119.830001831055
309.7478575,119.76000213623
309.7634825,119.690002441406
309.7791075,119.620002746582
309.7947325,119.540000915527
309.8103575,119.470001220703
309.8259825,119.389999389648
309.8416075,119.309997558594
309.8572325,119.230003356934
309.8728575,119.150001525879
309.8884825,119.069999694824
309.9041075,118.98999786377
309.9197325,118.910003662109
309.9353575,118.819999694824
309.9509825,118.73999786377
309.9666075,118.660003662109
309.9822325,118.569999694824
309.9978575,118.48999786377
310.0134825,118.400001525879
310.0291075,118.319999694824
310.0447325,118.230003356934
310.0603575,118.139999389648
310.0759825,118.050003051758
310.0916075,117.959999084473
310.1072325,117.870002746582
310.1228575,117.779998779297
310.1384825,117.699996948242
310.1541075,117.610000610352
310.1697325,117.519996643066
310.1853575,117.440002441406
310.2009825,117.360000610352
310.2166075,117.290000915527
310.2322325,117.209999084473
310.2478575,117.139999389648
310.2634825,117.080001831055
310.2791075,117.019996643066
310.2947325,116.959999084473
310.3103575,116.900001525879
310.3259825,116.849998474121
310.3416075,116.790000915527
310.3572325,116.73999786377
310.3728575,116.699996948242
310.3884825,116.650001525879
310.4041075,116.610000610352
310.4197325,116.569999694824
310.4353575,116.529998779297
310.4509825,116.48999786377
310.4666075,116.449996948242
310.4822325,116.419998168945
310.4978575,116.389999389648
310.5134825,116.349998474121
310.5291075,116.330001831055
310.5447325,116.300003051758
310.5603575,116.269996643066
310.5759825,116.25
310.5916075,116.230003356934
310.6072325,116.209999084473
310.6228575,116.190002441406
310.6384825,116.180000305176
310.6541075,116.160003662109
310.6697325,116.150001525879
310.6853575,116.129997253418
310.7009825,116.120002746582
310.7166075,116.110000610352
310.7322325,116.099998474121
310.7478575,116.089996337891
310.7634825,116.080001831055
310.7791075,116.069999694824
310.7947325,116.069999694824
310.8103575,116.059997558594
310.8259825,116.050003051758
310.8416075,116.050003051758
310.8572325,116.050003051758
310.8728575,116.040000915527
310.8884825,116.040000915527
310.9041075,116.040000915527
310.9197325,116.029998779297
310.9353575,116.029998779297
310.9509825,116.029998779297
310.9666075,116.029998779297
310.9822325,116.029998779297
310.9978575,116.029998779297
311.0134825,116.040000915527
311.0291075,116.040000915527
311.0447325,116.040000915527
311.0603575,116.040000915527
311.0759825,116.050003051758
311.0916075,116.050003051758
311.1072325,116.059997558594
311.1228575,116.059997558594
311.1384825,116.069999694824
311.1541075,116.080001831055
311.1697325,116.080001831055
311.1853575,116.089996337891
311.2009825,116.099998474121
311.2166075,116.110000610352
311.2322325,116.110000610352
311.2478575,116.120002746582
311.2634825,116.129997253418
311.2791075,116.129997253418
311.2947325,116.139999389648
311.3103575,116.150001525879
311.3259825,116.150001525879
311.3416075,116.160003662109
311.3572325,116.160003662109
311.3728575,116.169998168945
311.3884825,116.169998168945
311.4041075,116.180000305176
311.4197325,116.180000305176
311.4353575,116.190002441406
311.4509825,116.190002441406
311.4666075,116.199996948242
311.4822325,116.199996948242
311.4978575,116.199996948242
311.5134825,116.209999084473
311.5291075,116.209999084473
311.5447325,116.209999084473
311.5603575,116.209999084473
311.5759825,116.220001220703
311.5916075,116.220001220703
311.6072325,116.220001220703
311.6228575,116.220001220703
311.6384825,116.220001220703
311.6541075,116.220001220703
311.6697325,116.220001220703
311.6853575,116.220001220703
311.7009825,116.230003356934
311.7166075,116.230003356934
311.7322325,116.230003356934
311.7478575,116.230003356934
311.7634825,116.230003356934
311.7791075,116.23999786377
311.7947325,116.23999786377
311.8103575,116.23999786377
311.8259825,116.23999786377
311.8416075,116.25
311.8572325,116.25
311.8728575,116.25
311.8884825,116.26000213623
311.9041075,116.26000213623
311.9197325,116.26000213623
311.9353575,116.26000213623
311.9509825,116.269996643066
311.9666075,116.269996643066
311.9822325,116.269996643066
311.9978575,116.269996643066
312.0134825,116.279998779297
312.0291075,116.279998779297
312.0447325,116.279998779297
312.0603575,116.279998779297
312.0759825,116.279998779297
312.0916075,116.279998779297
312.1072325,116.279998779297
312.1228575,116.290000915527
312.1384825,116.290000915527
312.1541075,116.290000915527
312.1697325,116.290000915527
312.1853575,116.290000915527
312.2009825,116.300003051758
312.2166075,116.300003051758
312.2322325,116.309997558594
312.2478575,116.309997558594
312.2634825,116.319999694824
312.2791075,116.330001831055
312.2947325,116.330001831055
312.3103575,116.339996337891
312.3259825,116.349998474121
312.3416075,116.349998474121
312.3572325,116.360000610352
312.3728575,116.370002746582
312.3884825,116.379997253418
312.4041075,116.389999389648
312.4197325,116.400001525879
312.4353575,116.410003662109
312.4509825,116.419998168945
312.4666075,116.430000305176
312.4822325,116.440002441406
312.4978575,116.449996948242
312.5134825,116.459999084473
312.5291075,116.470001220703
312.5447325,116.480003356934
312.5603575,116.5
312.5759825,116.51000213623
312.5916075,116.519996643066
312.6072325,116.529998779297
312.6228575,116.540000915527
312.6384825,116.559997558594
312.6541075,116.569999694824
312.6697325,116.589996337891
312.6853575,116.599998474121
312.7009825,116.629997253418
312.7166075,116.650001525879
312.7322325,116.680000305176
312.7478575,116.720001220703
312.7634825,116.76000213623
312.7791075,116.800003051758
312.7947325,116.849998474121
312.8103575,116.910003662109
312.8259825,116.970001220703
312.8416075,117.029998779297
312.8572325,117.099998474121
312.8728575,117.169998168945
312.8884825,117.25
312.9041075,117.330001831055
312.9197325,117.410003662109
312.9353575,117.5
312.9509825,117.589996337891
312.9666075,117.680000305176
312.9822325,117.769996643066
312.9978575,117.870002746582
313.0134825,117.970001220703
313.0291075,118.069999694824
313.0447325,118.180000305176
313.0603575,118.290000915527
313.0759825,118.389999389648
313.0916075,118.51000213623
313.1072325,118.620002746582
313.1228575,118.730003356934
313.1384825,118.849998474121
313.1541075,118.959999084473
313.1697325,119.080001831055
313.1853575,119.199996948242
313.2009825,119.319999694824
313.2166075,119.440002441406
313.2322325,119.550003051758
313.2478575,119.669998168945
313.2634825,119.790000915527
313.2791075,119.910003662109
313.2947325,120.029998779297
313.3103575,120.150001525879
313.3259825,120.269996643066
313.3416075,120.389999389648
313.3572325,120.51000213623
313.3728575,120.629997253418
313.3884825,120.75
313.4041075,120.879997253418
313.4197325,121.0
313.4353575,121.120002746582
313.4509825,121.25
313.4666075,121.370002746582
313.4822325,121.48999786377
313.4978575,121.620002746582
313.5134825,121.73999786377
313.5291075,121.860000610352
313.5447325,121.980003356934
313.5603575,122.099998474121
313.5759825,122.220001220703
313.5916075,122.330001831055
313.6072325,122.440002441406
313.6228575,122.550003051758
313.6384825,122.650001525879
313.6541075,122.75
313.6697325,122.849998474121
313.6853575,122.940002441406
313.7009825,123.019996643066
313.7166075,123.099998474121
313.7322325,123.180000305176
313.7478575,123.25
313.7634825,123.319999694824
313.7791075,123.379997253418
313.7947325,123.440002441406
313.8103575,123.48999786377
313.8259825,123.540000915527
313.8416075,123.589996337891
313.8572325,123.629997253418
313.8728575,123.680000305176
313.8884825,123.709999084473
313.9041075,123.75
313.9197325,123.779998779297
313.9353575,123.809997558594
313.9509825,123.830001831055
313.9666075,123.860000610352
313.9822325,123.879997253418
313.9978575,123.889999389648
314.0134825,123.910003662109
314.0291075,123.919998168945
314.0447325,123.930000305176
314.0603575,123.940002441406
314.0759825,123.949996948242
314.0916075,123.949996948242
314.1072325,123.959999084473
314.1228575,123.959999084473
314.1384825,123.959999084473
314.1541075,123.970001220703
314.1697325,123.970001220703
314.1853575,123.970001220703
314.2009825,123.970001220703
314.2166075,123.970001220703
314.2322325,123.970001220703
314.2478575,123.970001220703
314.2634825,123.970001220703
314.2791075,123.970001220703
314.2947325,123.970001220703
314.3103575,123.959999084473
314.3259825,123.959999084473
314.3416075,123.959999084473
314.3572325,123.949996948242
314.3728575,123.940002441406
314.3884825,123.940002441406
314.4041075,123.930000305176
314.4197325,123.919998168945
314.4353575,123.919998168945
314.4509825,123.910003662109
314.4666075,123.900001525879
314.4822325,123.900001525879
314.4978575,123.900001525879
314.5134825,123.889999389648
314.5291075,123.889999389648
314.5447325,123.889999389648
314.5603575,123.889999389648
314.5759825,123.889999389648
314.5916075,123.889999389648
314.6072325,123.889999389648
314.6228575,123.889999389648
314.6384825,123.889999389648
314.6541075,123.889999389648
314.6697325,123.889999389648
314.6853575,123.889999389648
314.7009825,123.889999389648
314.7166075,123.889999389648
314.7322325,123.889999389648
314.7478575,123.879997253418
314.7634825,123.870002746582
314.7791075,123.870002746582
314.7947325,123.860000610352
314.8103575,123.849998474121
314.8259825,123.839996337891
314.8416075,123.830001831055
314.8572325,123.819999694824
314.8728575,123.800003051758
314.8884825,123.790000915527
314.9041075,123.779998779297
314.9197325,123.769996643066
314.9353575,123.75
314.9509825,123.73999786377
314.9666075,123.730003356934
314.9822325,123.709999084473
314.9978575,123.699996948242
315.0134825,123.680000305176
315.0291075,123.669998168945
315.0447325,123.660003662109
315.0603575,123.639999389648
315.0759825,123.629997253418
315.0916075,123.610000610352
315.1072325,123.599998474121
315.1228575,123.580001831055
315.1384825,123.569999694824
315.1541075,123.559997558594
315.1697325,123.540000915527
315.1853575,123.529998779297
315.2009825,123.519996643066
315.2166075,123.51000213623
315.2322325,123.5
315.2478575,123.48999786377
315.2634825,123.480003356934
315.2791075,123.480003356934
315.2947325,123.470001220703
315.3103575,123.470001220703
315.3259825,123.459999084473
315.3416075,123.449996948242
315.3572325,123.449996948242
315.3728575,123.440002441406
315.3884825,123.440002441406
315.4041075,123.430000305176
315.4197325,123.419998168945
315.4353575,123.419998168945
315.4509825,123.410003662109
315.4666075,123.400001525879
315.4822325,123.400001525879
315.4978575,123.389999389648
315.5134825,123.379997253418
315.5291075,123.370002746582
315.5447325,123.370002746582
315.5603575,123.360000610352
315.5759825,123.349998474121
315.5916075,123.330001831055
315.6072325,123.319999694824
315.6228575,123.309997558594
315.6384825,123.300003051758
315.6541075,123.290000915527
315.6697325,123.279998779297
315.6853575,123.26000213623
315.7009825,123.25
315.7166075,123.23999786377
315.7322325,123.230003356934
315.7478575,123.220001220703
315.7634825,123.209999084473
315.7791075,123.199996948242
315.7947325,123.190002441406
315.8103575,123.180000305176
315.8259825,123.180000305176
315.8416075,123.180000305176
315.8572325,123.180000305176
315.8728575,123.180000305176
315.8884825,123.180000305176
315.9041075,123.180000305176
315.9197325,123.180000305176
