Time(s),Value(%)
1700.006733,-54.3899993896484
1700.022358,-51.6500015258789
1700.037983,-47.7700004577637
1700.053608,-43.4799995422363
1700.069233,-39.5
1700.084858,-36.3600006103516
1700.100483,-34.2599983215332
1700.116108,-32.9900016784668
1700.131733,-32.1500015258789
1700.147358,-31.5400009155273
1700.162983,-31.2999992370605
1700.178608,-31.6499996185303
1700.194233,-32.4199981689453
1700.209858,-33.1399993896484
1700.225483,-33.3600006103516
1700.241108,-32.9300003051758
1700.256733,-32.0400009155273
1700.272358,-31.2099990844727
1700.287983,-31.0900001525879
1700.303608,-32.1599998474121
1700.319233,-34.5099983215332
1700.334858,-38.0
1700.350483,-42.5400009155273
1700.366108,-48.1500015258789
1700.381733,-54.5400009155273
1700.397358,-60.8899993896484
1700.412983,-65.9499969482422
1700.428608,-68.8499984741211
1700.444233,-69.879997253418
1700.459858,-70.0
1700.475483,-69.8899993896484
1700.491108,-69.5699996948242
1700.506733,-68.7600021362305
1700.522358,-67.2799987792969
1700.537983,-65.2200012207031
1700.553608,-62.8199996948242
1700.569233,-60.3199996948242
1700.584858,-57.8699989318848
1700.600483,-55.4900016784668
1700.616108,-53.2200012207031
1700.631733,-51.6300010681152
1700.647358,-50.1699981689453
1700.662983,-48.7900009155273
1700.678608,-47.1699981689453
1700.694233,-44.6599998474121
1700.709858,-40.6399993896484
1700.725483,-35.0
1700.741108,-28.1900005340576
1700.756733,-20.9200000762939
1700.772358,-13.7799997329712
1700.787983,-7.11999988555908
1700.803608,-1.00999999046326
1700.819233,4.59999990463257
1700.834858,9.64000034332275
1700.850483,13.8000001907349
1700.866108,16.7600002288818
1700.881733,18.3999996185303
1700.897358,18.8199996948242
1700.912983,18.1200008392334
1700.928608,16.3899993896484
1700.944233,13.8500003814697
1700.959858,11.0600004196167
1700.975483,8.77999973297119
1700.991108,7.5
1701.006733,18.2700004577637
1701.022358,84.4700012207031
1701.037983,259.510009765625
1701.053608,327.670013427734
1701.069233,327.670013427734
1701.084858,327.670013427734
1701.100483,327.670013427734
1701.116108,327.670013427734
1701.131733,327.670013427734
1701.147358,327.670013427734
1701.162983,327.670013427734
1701.178608,32.5900001525879
1701.194233,-291.059997558594
1701.209858,-327.679992675781
1701.225483,-327.679992675781
1701.241108,-327.679992675781
1701.256733,-327.679992675781
1701.272358,-327.679992675781
1701.287983,-327.679992675781
1701.303608,-327.679992675781
1701.319233,-327.679992675781
1701.334858,-327.679992675781
1701.350483,-327.679992675781
1701.366108,-317.510009765625
1701.381733,-297.040008544922
1701.397358,-275.630004882813
1701.412983,-256.929992675781
1701.428608,-242.139999389648
1701.444233,-230.619995117188
1701.459858,-220.919998168945
1701.475483,-211.570007324219
1701.491108,-201.649993896484
1701.506733,-190.929992675781
1701.522358,-179.729995727539
1701.537983,-168.610000610352
1701.553608,-158.139999389648
1701.569233,-148.779998779297
1701.584858,-140.770004272461
1701.600483,-134.029998779297
1701.616108,-128.380004882813
1701.631733,-124.589996337891
1701.647358,-121.790000915527
1701.662983,-119.839996337891
1701.678608,-118.110000610352
1701.694233,-115.589996337891
1701.709858,-111.580001831055
1701.725483,-106.309997558594
1701.741108,-100.559997558594
1701.756733,-94.870002746582
1701.772358,-89.1999969482422
1701.787983,-83.2699966430664
1701.803608,-76.9100036621094
1701.819233,-70.1500015258789
1701.834858,-63.1599998474121
1701.850483,-55.9799995422363
1701.866108,-48.6100006103516
1701.881733,-41.060001373291
1701.897358,-33.5
1701.912983,-26.2199993133545
1701.928608,-19.4599990844727
1701.944233,-13.3000001907349
1701.959858,-7.48999977111816
1701.975483,-1.51999998092651
1701.991108,4.96999979019165
1702.006733,11.9200000762939
1702.022358,18.8999996185303
1702.037983,25.5100002288818
1702.053608,31.5900001525879
1702.069233,37.2000007629395
1702.084858,42.4799995422363
1702.100483,47.5099983215332
1702.116108,52.1800003051758
1702.131733,56.1800003051758
1702.147358,59.2000007629395
1702.162983,61.1500015258789
1702.178608,62.0699996948242
1702.194233,61.9500007629395
1702.209858,60.7999992370605
1702.225483,58.810001373291
1702.241108,56.5499992370605
1702.256733,54.9000015258789
1702.272358,54.4099998474121
1702.287983,54.8899993896484
1702.303608,55.75
1702.319233,56.5699996948242
1702.334858,57.4099998474121
1702.350483,58.5
1702.366108,59.9599990844727
1702.381733,61.689998626709
1702.397358,63.5
1702.412983,65.1699981689453
1702.428608,66.5800018310547
1702.444233,67.7300033569336
1702.459858,68.7099990844727
1702.475483,69.6600036621094
1702.491108,70.6900024414063
1702.506733,71.8600006103516
1702.522358,73.3199996948242
1702.537983,75.3499984741211
1702.553608,78.2300033569336
1702.569233,81.8899993896484
1702.584858,85.879997253418
1702.600483,89.6500015258789
1702.616108,92.7399978637695
1702.631733,95.5100021362305
1702.647358,97.5699996948242
1702.662983,99.1399993896484
1702.678608,100.330001831055
1702.694233,101.01000213623
1702.709858,100.980003356934
1702.725483,100.139999389648
1702.741108,98.5100021362305
1702.756733,96.1699981689453
1702.772358,93.1800003051758
1702.787983,89.7200012207031
1702.803608,86.1399993896484
1702.819233,82.9000015258789
1702.834858,80.2699966430664
1702.850483,78.0100021362305
1702.866108,75.629997253418
1702.881733,72.8899993896484
1702.897358,69.9199981689453
1702.912983,67.0
1702.928608,64.3399963378906
1702.944233,61.9599990844727
1702.959858,59.6800003051758
1702.975483,57.1800003051758
1702.991108,54.1800003051758
1703.006733,50.6599998474121
1703.022358,46.7700004577637
1703.037983,42.810001373291
1703.053608,39.0299987792969
1703.069233,35.5800018310547
1703.084858,32.7299995422363
1703.100483,30.9200000762939
1703.116108,30.5900001525879
1703.131733,31.8600006103516
1703.147358,34.3600006103516
1703.162983,37.4199981689453
1703.178608,40.3699989318848
1703.194233,42.7799987792969
1703.209858,44.5400009155273
1703.225483,45.7200012207031
1703.241108,46.3800010681152
1703.256733,46.3499984741211
1703.272358,45.4000015258789
1703.287983,43.4599990844727
1703.303608,40.6800003051758
1703.319233,37.25
1703.334858,33.3499984741211
1703.350483,29.1800003051758
1703.366108,25.0100002288818
1703.381733,21.2099990844727
1703.397358,17.9400005340576
1703.412983,15.1000003814697
1703.428608,12.3800001144409
1703.444233,9.63000011444092
1703.459858,6.78000020980835
1703.475483,3.69000005722046
1703.491108,0.159999996423721
1703.506733,-3.84999990463257
1703.522358,-8.14000034332275
1703.537983,-12.2299995422363
1703.553608,-15.75
1703.569233,-18.6700000762939
1703.584858,-21.1100006103516
1703.600483,-23.1299991607666
1703.616108,-24.6100006103516
1703.631733,-25.5
1703.647358,-25.8999996185303
1703.662983,-25.9799995422363
1703.678608,-25.7600002288818
1703.694233,-24.9200000762939
1703.709858,-23.1200008392334
1703.725483,-20.2600002288818
1703.741108,-16.6399993896484
1703.756733,-12.7700004577637
1703.772358,-9.0600004196167
1703.787983,-5.80999994277954
1703.803608,-3.21000003814697
1703.819233,-1.47000002861023
1703.834858,-0.769999980926514
1703.850483,-1.0900000333786
1703.866108,-2.20000004768372
1703.881733,-3.78999996185303
1703.897358,-5.55000019073486
1703.912983,-7.28999996185303
1703.928608,-8.94999980926514
1703.944233,-10.539999961853
1703.959858,-12.1999998092651
1703.975483,-14.1300001144409
1703.991108,-16.5200004577637
1704.006733,-19.3999996185303
1704.022358,-22.7000007629395
1704.037983,-26.3600006103516
1704.053608,-30.3600006103516
1704.069233,-34.5999984741211
1704.084858,-38.7900009155273
1704.100483,-42.5699996948242
1704.116108,-45.6599998474121
1704.131733,-48.1599998474121
1704.147358,-50.310001373291
1704.162983,-52.2700004577637
1704.178608,-54.0
1704.194233,-55.3800010681152
1704.209858,-56.4000015258789
1704.225483,-57.0800018310547
1704.241108,-57.2900009155273
1704.256733,-56.6399993896484
1704.272358,-54.75
1704.287983,-51.5499992370605
1704.303608,-47.3499984741211
1704.319233,-42.560001373291
1704.334858,-37.5699996948242
1704.350483,-32.6399993896484
1704.366108,-28.1100006103516
1704.381733,-24.3899993896484
1704.397358,-21.7800006866455
1704.412983,-20.2999992370605
1704.428608,-19.7299995422363
1704.444233,-19.8099994659424
1704.459858,-20.3700008392334
1704.475483,-21.2600002288818
1704.491108,-22.3400001525879
1704.506733,-23.4799995422363
1704.522358,-24.5900001525879
1704.537983,-25.6499996185303
1704.553608,-26.6599998474121
1704.569233,-27.6499996185303
1704.584858,-28.7600002288818
1704.600483,-30.1700000762939
1704.616108,-32.0499992370605
1704.631733,-34.3899993896484
1704.647358,-37.0200004577637
1704.662983,-39.7200012207031
1704.678608,-42.3899993896484
1704.694233,-45.0699996948242
1704.709858,-47.8499984741211
1704.725483,-50.5800018310547
1704.741108,-53.0
1704.756733,-54.8600006103516
1704.772358,-56.1500015258789
1704.787983,-56.9799995422363
1704.803608,-57.4099998474121
1704.819233,-57.3300018310547
1704.834858,-56.5299987792969
1704.850483,-54.9500007629395
1704.866108,-52.6399993896484
1704.881733,-49.5900001525879
1704.897358,-45.810001373291
1704.912983,-41.439998626709
1704.928608,-36.8199996948242
1704.944233,-32.3600006103516
1704.959858,-28.3500003814697
1704.975483,-24.8400001525879
1704.991108,-21.7999992370605
1705.006733,-19.3199996948242
1705.022358,-17.5900001525879
1705.037983,-16.6599998474121
1705.053608,-16.3899993896484
1705.069233,-16.4599990844727
1705.084858,-16.6399993896484
1705.100483,-16.8299999237061
1705.116108,-17.0699996948242
1705.131733,-17.4400005340576
1705.147358,-17.9899997711182
1705.162983,-18.8099994659424
1705.178608,-19.8999996185303
1705.194233,-21.2199993133545
1705.209858,-22.6599998474121
1705.225483,-24.1200008392334
1705.241108,-25.5799999237061
1705.256733,-27.1200008392334
1705.272358,-28.8099994659424
1705.287983,-30.5599994659424
1705.303608,-32.1699981689453
1705.319233,-33.4500007629395
1705.334858,-34.3499984741211
1705.350483,-34.939998626709
1705.366108,-35.2700004577637
1705.381733,-35.3499984741211
1705.397358,-35.1100006103516
1705.412983,-34.5200004577637
1705.428608,-33.439998626709
1705.444233,-31.6100006103516
1705.459858,-28.7800006866455
1705.475483,-24.9799995422363
1705.491108,-20.5499992370605
1705.506733,-15.8999996185303
1705.522358,-11.3000001907349
1705.537983,-6.78999996185303
1705.553608,-2.39000010490417
1705.569233,1.62000000476837
1705.584858,4.8600001335144
1705.600483,7.13000011444092
1705.616108,8.61999988555908
1705.631733,9.67000007629395
1705.647358,10.5200004577637
1705.662983,11.1700000762939
1705.678608,11.4499998092651
1705.694233,11.2700004577637
1705.709858,10.6999998092651
1705.725483,9.88000011444092
1705.741108,8.94999980926514
1705.756733,8.01000022888184
1705.772358,7.09999990463257
1705.787983,6.23000001907349
1705.803608,5.32999992370605
1705.819233,4.21000003814697
1705.834858,2.70000004768372
1705.850483,0.779999971389771
1705.866108,-1.46000003814697
1705.881733,-3.96000003814697
1705.897358,-6.63000011444092
1705.912983,-9.36999988555908
1705.928608,-11.9899997711182
1705.944233,-14.2399997711182
1705.959858,-15.8400001525879
1705.975483,-16.5900001525879
1705.991108,-16.4099998474121
1706.006733,-15.3900003433228
1706.022358,-13.710000038147
1706.037983,-11.6400003433228
1706.053608,-9.46000003814697
1706.069233,-7.34000015258789
1706.084858,-5.17000007629395
1706.100483,-2.57999992370605
1706.116108,0.819999992847443
1706.131733,5.13000011444092
1706.147358,10.1400003433228
1706.162983,15.4799995422363
1706.178608,20.8400001525879
1706.194233,25.9699993133545
1706.209858,30.4799995422363
1706.225483,33.8300018310547
1706.241108,35.6199989318848
1706.256733,35.9300003051758
1706.272358,35.2900009155273
1706.287983,34.2700004577637
1706.303608,33.2299995422363
1706.319233,32.2799987792969
1706.334858,31.3899993896484
1706.350483,30.4599990844727
1706.366108,29.3700008392334
1706.381733,27.8999996185303
1706.397358,25.8999996185303
1706.412983,23.3500003814697
1706.428608,20.4099998474121
1706.444233,17.2399997711182
1706.459858,13.9499998092651
1706.475483,10.6499996185303
1706.491108,7.46999979019165
1706.506733,4.57000017166138
1706.522358,2.05999994277954
1706.537983,-0.0199999995529652
1706.553608,-1.73000001907349
1706.569233,-3.05999994277954
1706.584858,-4.01000022888184
1706.600483,-4.61999988555908
1706.616108,-4.96000003814697
1706.631733,-5.09999990463257
1706.647358,-4.82999992370605
1706.662983,-3.59999990463257
1706.678608,-0.870000004768372
1706.694233,3.44000005722046
1706.709858,9.0
1706.725483,15.289999961853
1706.741108,21.8700008392334
1706.756733,28.3799991607666
1706.772358,34.2799987792969
1706.787983,38.8600006103516
1706.803608,41.5800018310547
1706.819233,42.4799995422363
1706.834858,42.0699996948242
1706.850483,40.9300003051758
1706.866108,39.3899993896484
1706.881733,37.6199989318848
1706.897358,35.7099990844727
1706.912983,33.7099990844727
1706.928608,31.6299991607666
1706.944233,29.3500003814697
1706.959858,26.7700004577637
1706.975483,23.8400001525879
1706.991108,20.6399993896484
1707.006733,17.25
1707.022358,13.710000038147
1707.037983,10.1300001144409
1707.053608,6.6100001335144
1707.069233,3.26999998092651
1707.084858,0.150000005960464
1707.100483,-2.82999992370605
1707.116108,-5.82000017166138
1707.131733,-8.77000045776367
1707.147358,-11.5299997329712
1707.162983,-13.9499998092651
1707.178608,-15.9799995422363
1707.194233,-17.6000003814697
1707.209858,-18.6299991607666
1707.225483,-18.5699996948242
1707.241108,-16.9300003051758
1707.256733,-13.6300001144409
1707.272358,-9.01000022888184
1707.287983,-3.53999996185303
1707.303608,2.38000011444092
1707.319233,8.42000007629395
1707.334858,14.0699996948242
1707.350483,18.6900005340576
1707.366108,21.7999992370605
1707.381733,23.3899993896484
1707.397358,23.8400001525879
1707.412983,23.5100002288818
1707.428608,22.6100006103516
1707.444233,21.2700004577637
1707.459858,19.6299991607666
1707.475483,17.8700008392334
1707.491108,16.1000003814697
1707.506733,14.3500003814697
1707.522358,12.5699996948242
1707.537983,10.7399997711182
1707.553608,8.81999969482422
1707.569233,6.80999994277954
1707.584858,4.71000003814697
1707.600483,2.53999996185303
1707.616108,0.360000014305115
1707.631733,-1.79999995231628
1707.647358,-3.99000000953674
1707.662983,-6.32999992370605
1707.678608,-8.86999988555908
1707.694233,-11.5600004196167
1707.709858,-14.1899995803833
1707.725483,-16.5799999237061
1707.741108,-18.6299991607666
1707.756733,-20.3199996948242
1707.772358,-21.5100002288818
1707.787983,-21.8500003814697
1707.803608,-21.0
1707.819233,-18.8999996185303
1707.834858,-15.6999998092651
1707.850483,-11.539999961853
1707.866108,-6.53999996185303
1707.881733,-0.920000016689301
1707.897358,4.80000019073486
1707.912983,9.97000026702881
1707.928608,14.1099996566772
1707.944233,17.1700000762939
1707.959858,19.3700008392334
1707.975483,20.8299999237061
1707.991108,21.4500007629395
1708.006733,21.2199993133545
1708.022358,20.3199996948242
1708.037983,19.0499992370605
1708.053608,17.6299991607666
1708.069233,16.1100006103516
1708.084858,14.3900003433228
1708.100483,12.4399995803833
1708.116108,10.3299999237061
1708.131733,8.22000026702881
1708.147358,6.23000001907349
1708.162983,4.44000005722046
1708.178608,2.8199999332428
1708.194233,1.30999994277954
1708.209858,-0.259999990463257
1708.225483,-2.19000005722046
1708.241108,-4.71000003814697
1708.256733,-7.84999990463257
1708.272358,-11.3699998855591
1708.287983,-14.9799995422363
1708.303608,-18.3999996185303
1708.319233,-21.4899997711182
1708.334858,-24.1000003814697
1708.350483,-26.0300006866455
1708.366108,-26.9300003051758
1708.381733,-26.4300003051758
1708.397358,-24.3700008392334
1708.412983,-20.9799995422363
1708.428608,-16.7999992370605
1708.444233,-12.460000038147
1708.459858,-8.40999984741211
1708.475483,-4.84000015258789
1708.491108,-1.62000000476837
1708.506733,1.53999996185303
1708.522358,4.94000005722046
1708.537983,8.67000007629395
1708.553608,12.6700000762939
1708.569233,16.8099994659424
1708.584858,20.9899997711182
1708.600483,25.0499992370605
1708.616108,28.6200008392334
1708.631733,31.0599994659424
1708.647358,31.8400001525879
1708.662983,30.9200000762939
1708.678608,28.75
1708.694233,25.9699993133545
1708.709858,23.0699996948242
1708.725483,20.3199996948242
1708.741108,17.7800006866455
1708.756733,15.3999996185303
1708.772358,13.0100002288818
1708.787983,10.3999996185303
1708.803608,7.36999988555908
1708.819233,3.90000009536743
1708.834858,0.119999997317791
1708.850483,-3.83999991416931
1708.866108,-7.90000009536743
1708.881733,-11.960000038147
1708.897358,-15.8299999237061
1708.912983,-19.2199993133545
1708.928608,-21.7999992370605
1708.944233,-23.25
1708.959858,-23.4200000762939
1708.975483,-22.3899993896484
1708.991108,-20.4599990844727
1709.006733,-18.0400009155273
1709.022358,-15.5500001907349
1709.037983,-13.1999998092651
1709.053608,-10.9200000762939
1709.069233,-8.34000015258789
1709.084858,-5.05000019073486
1709.100483,-0.920000016689301
1709.116108,3.84999990463257
1709.131733,8.98999977111816
1709.147358,14.2299995422363
1709.162983,19.3099994659424
1709.178608,23.7900009155273
1709.194233,26.9899997711182
1709.209858,28.3799991607666
1709.225483,27.9400005340576
1709.241108,26.2000007629395
1709.256733,23.7999992370605
1709.272358,21.2199993133545
1709.287983,18.7199993133545
1709.303608,16.3600006103516
1709.319233,14.1199998855591
1709.334858,11.8999996185303
1709.350483,9.53999996185303
1709.366108,6.92999982833862
1709.381733,4.05999994277954
1709.397358,0.980000019073486
1709.412983,-2.25999999046326
1709.428608,-5.65000009536743
1709.444233,-9.13000011444092
1709.459858,-12.5699996948242
1709.475483,-15.75
1709.491108,-18.4599990844727
1709.506733,-20.5
1709.522358,-21.7700004577637
1709.537983,-22.2299995422363
1709.553608,-21.9899997711182
1709.569233,-21.2600002288818
1709.584858,-20.2900009155273
1709.600483,-19.2299995422363
1709.616108,-17.8500003814697
1709.631733,-15.4700002670288
1709.647358,-11.4300003051758
1709.662983,-5.57000017166138
1709.678608,1.67999994754791
1709.694233,9.71000003814697
1709.709858,18.0100002288818
1709.725483,26.0900001525879
1709.741108,33.2999992370605
1709.756733,38.689998626709
1709.772358,41.5200004577637
1709.787983,41.810001373291
1709.803608,40.2999992370605
1709.819233,37.8199996948242
1709.834858,34.9799995422363
1709.850483,32.1100006103516
1709.866108,29.3600006103516
1709.881733,26.7600002288818
1709.897358,24.2299995422363
1709.912983,21.6100006103516
1709.928608,18.75
1709.944233,15.6000003814697
1709.959858,12.25
1709.975483,8.81999969482422
1709.991108,5.42000007629395
1710.006733,2.13000011444092
1710.022358,-0.980000019073486
1710.037983,-3.9300000667572
1710.053608,-6.73999977111816
1710.069233,-9.52999973297119
1710.084858,-12.3699998855591
1710.100483,-15.2299995422363
1710.116108,-17.7600002288818
1710.131733,-19.2800006866455
1710.147358,-19.2000007629395
1710.162983,-17.3999996185303
1710.178608,-14.3299999237061
1710.194233,-10.5699996948242
1710.209858,-6.38000011444092
1710.225483,-1.52999997138977
1710.241108,4.15999984741211
1710.256733,10.2600002288818
1710.272358,15.789999961853
1710.287983,19.9899997711182
1710.303608,22.6900005340576
1710.319233,24.2199993133545
1710.334858,25.0599994659424
1710.350483,25.4500007629395
1710.366108,25.3600006103516
1710.381733,24.7700004577637
1710.397358,23.7999992370605
1710.412983,22.75
1710.428608,21.9099998474121
1710.444233,21.4200000762939
1710.459858,21.0200004577637
1710.475483,20.1700000762939
1710.491108,18.3600006103516
1710.506733,15.4200000762939
1710.522358,11.5699996948242
1710.537983,7.21000003814697
1710.553608,2.71000003814697
1710.569233,-1.67999994754791
1710.584858,-5.84000015258789
1710.600483,-9.76000022888184
1710.616108,-13.5299997329712
1710.631733,-17.3899993896484
1710.647358,-21.5400009155273
1710.662983,-25.9799995422363
1710.678608,-30.3199996948242
1710.694233,-33.9199981689453
1710.709858,-36.1800003051758
1710.725483,-36.9500007629395
