Time(s),Value(%)
690.0039563,-2.25
690.0195813,7.40999984741211
690.0352063,17.9099998474121
690.0508313,27.8799991607666
690.0664563,35.9000015258789
690.0820813,41.060001373291
690.0977063,43.25
690.1133313,43.1199989318848
690.1289563,41.6500015258789
690.1445813,39.6100006103516
690.1602063,37.4000015258789
690.1758313,35.0400009155273
690.1914563,32.3499984741211
690.2070813,29.1900005340576
690.2227063,25.6700000762939
690.2383313,22.0100002288818
690.2539563,18.4899997711182
690.2695813,15.3900003433228
690.2852063,12.8699998855591
690.3008313,10.8299999237061
690.3164563,9.01000022888184
690.3320813,7.15999984741211
690.3477063,5.07000017166138
690.3633313,2.61999988555908
690.3789563,-0.140000000596046
690.3945813,-3.03999996185303
690.4102063,-5.94000005722046
690.4258313,-8.73999977111816
690.4414563,-11.3900003433228
690.4570813,-13.8199996948242
690.4727063,-15.9499998092651
690.4883313,-17.8199996948242
690.5039563,-19.4799995422363
690.5195813,-21.0300006866455
690.5352063,-22.5200004577637
690.5508313,-23.9500007629395
690.5664563,-25.2399997711182
690.5820813,-26.2700004577637
690.5977063,-26.9500007629395
690.6133313,-27.2299995422363
690.6289563,-27.1000003814697
690.6445813,-26.6900005340576
690.6602063,-26.2199993133545
690.6758313,-25.7299995422363
690.6914563,-25.1299991607666
690.7070813,-24.25
690.7227063,-23.0799999237061
690.7383313,-21.7199993133545
690.7539563,-20.2700004577637
690.7695813,-18.6700000762939
690.7852063,-16.6299991607666
690.8008313,-13.5500001907349
690.8164563,-8.68000030517578
690.8320813,-1.64999997615814
690.8477063,7.13000011444092
690.8633313,16.5599994659424
690.8789563,25.2800006866455
690.8945813,32.2200012207031
690.9102063,36.7799987792969
690.9258313,38.8600006103516
690.9414563,38.8800010681152
690.9570813,37.5499992370605
690.9727063,35.6100006103516
690.9883313,33.5
691.0039563,31.3099994659424
691.0195813,28.8700008392334
691.0352063,26.0100002288818
691.0508313,22.7199993133545
691.0664563,19.2399997711182
691.0820813,15.9499998092651
691.0977063,13.1800003051758
691.1133313,11.0
691.1289563,9.30000019073486
691.1445813,7.88000011444092
691.1602063,6.5
691.1758313,5.01000022888184
691.1914563,3.32999992370605
691.2070813,1.49000000953674
691.2227063,-0.46000000834465
691.2383313,-2.50999999046326
691.2539563,-4.63000011444092
691.2695813,-6.71000003814697
691.2852063,-8.64999961853027
691.3008313,-10.4099998474121
691.3164563,-12.039999961853
691.3320813,-13.5500001907349
691.3477063,-14.9099998474121
691.3633313,-15.9700002670288
691.3789563,-16.6299991607666
691.3945813,-16.9099998474121
691.4102063,-17.0
691.4258313,-17.1399993896484
691.4414563,-17.4099998474121
691.4570813,-17.6599998474121
691.4727063,-17.7199993133545
691.4883313,-17.5400009155273
691.5039563,-17.1599998474121
691.5195813,-16.6900005340576
691.5352063,-16.2199993133545
691.5508313,-15.7700004577637
691.5664563,-15.2799997329712
691.5820813,-14.5500001907349
691.5977063,-13.2200002670288
691.6133313,-10.710000038147
691.6289563,-6.36999988555908
691.6445813,0.0500000007450581
691.6602063,8.18000030517578
691.6758313,16.8600006103516
691.6914563,24.5699996948242
691.7070813,30.0699996948242
691.7227063,32.9599990844727
691.7383313,33.5699996948242
691.7539563,32.560001373291
691.7695813,30.5499992370605
691.7852063,28.0900001525879
691.8008313,25.4799995422363
691.8164563,22.7399997711182
691.8320813,19.8099994659424
691.8477063,16.75
691.8633313,13.7399997711182
691.8789563,10.960000038147
691.8945813,8.57999992370605
691.9102063,6.67000007629395
691.9258313,5.21000003814697
691.9414563,4.09000015258789
691.9570813,3.07999992370605
691.9727063,1.9099999666214
691.9883313,0.360000014305115
692.0039563,-1.63999998569489
692.0195813,-3.98000001907349
692.0352063,-6.40000009536743
692.0508313,-8.76000022888184
692.0664563,-10.9799995422363
692.0820813,-13.0200004577637
692.0977063,-14.8000001907349
692.1133313,-16.3099994659424
692.1289563,-17.5900001525879
692.1445813,-18.6499996185303
692.1602063,-19.4599990844727
692.1758313,-20.1200008392334
692.1914563,-20.8299999237061
692.2070813,-21.6100006103516
692.2227063,-22.2199993133545
692.2383313,-22.4300003051758
692.2539563,-22.2099990844727
692.2695813,-21.7299995422363
692.2852063,-21.0900001525879
692.3008313,-20.3500003814697
692.3164563,-19.6000003814697
692.3320813,-18.8799991607666
692.3477063,-18.2399997711182
692.3633313,-17.5799999237061
692.3789563,-16.6499996185303
692.3945813,-14.8400001525879
692.4102063,-11.3000001907349
692.4258313,-5.42000007629395
692.4414563,2.51999998092651
692.4570813,11.3900003433228
692.4727063,19.6499996185303
692.4883313,25.9799995422363
692.5039563,29.7800006866455
692.5195813,31.1100006103516
692.5352063,30.5699996948242
692.5508313,28.9400005340576
692.5664563,26.8799991607666
692.5820813,24.6700000762939
692.5977063,22.2900009155273
692.6133313,19.6200008392334
692.6289563,16.6399993896484
692.6445813,13.5100002288818
692.6602063,10.5799999237061
692.6758313,8.11999988555908
692.6914563,6.21000003814697
692.7070813,4.76999998092651
692.7227063,3.66000008583069
692.7383313,2.77999997138977
692.7539563,2.00999999046326
692.7695813,1.23000001907349
692.7852063,0.28999999165535
692.8008313,-0.870000004768372
692.8164563,-2.24000000953674
692.8320813,-3.61999988555908
692.8477063,-4.8899998664856
692.8633313,-5.98999977111816
692.8789563,-6.8899998664856
692.8945813,-7.65000009536743
692.9102063,-8.40999984741211
692.9258313,-9.27000045776367
692.9414563,-10.1700000762939
692.9570813,-10.9799995422363
692.9727063,-11.6300001144409
692.9883313,-12.1499996185303
693.0039563,-12.5900001525879
693.0195813,-12.9799995422363
693.0352063,-13.4300003051758
693.0508313,-13.9899997711182
693.0664563,-14.6400003433228
693.0820813,-15.3000001907349
693.0977063,-15.8999996185303
693.1133313,-16.3899993896484
693.1289563,-16.7299995422363
693.1445813,-16.8899993896484
693.1602063,-16.7700004577637
693.1758313,-16.1499996185303
693.1914563,-14.5600004196167
693.2070813,-11.3900003433228
693.2227063,-6.21999979019165
693.2383313,0.790000021457672
693.2539563,8.78999996185303
693.2695813,16.5100002288818
693.2852063,22.7700004577637
693.3008313,26.8600006103516
693.3164563,28.5799999237061
693.3320813,28.2900009155273
693.3477063,26.6900005340576
693.3633313,24.5699996948242
693.3789563,22.5200004577637
693.3945813,20.7900009155273
693.4102063,19.2299995422363
693.4258313,17.5100002288818
693.4414563,15.3500003814697
693.4570813,12.6899995803833
693.4727063,9.77000045776367
693.4883313,7.01000022888184
693.5039563,4.82999992370605
693.5195813,3.39000010490417
693.5352063,2.54999995231628
693.5508313,2.00999999046326
693.5664563,1.53999996185303
693.5820813,0.930000007152557
693.5977063,0.0
693.6133313,-1.37000000476837
693.6289563,-3.11999988555908
693.6445813,-5.03000020980835
693.6602063,-6.82000017166138
693.6758313,-8.34000015258789
693.6914563,-9.60999965667725
693.7070813,-10.710000038147
693.7227063,-11.6700000762939
693.7383313,-12.5200004577637
693.7539563,-13.25
693.7695813,-13.7600002288818
693.7852063,-13.9799995422363
693.8008313,-13.8999996185303
693.8164563,-13.6700000762939
693.8320813,-13.539999961853
693.8477063,-13.6999998092651
693.8633313,-14.1300001144409
693.8789563,-14.5900001525879
693.8945813,-14.8900003433228
693.9102063,-14.9499998092651
693.9258313,-14.7399997711182
693.9414563,-14.3400001525879
693.9570813,-13.8299999237061
693.9727063,-13.1800003051758
693.9883313,-12.1700000762939
694.0039563,-10.3199996948242
694.0195813,-6.98999977111816
694.0352063,-1.62999999523163
694.0508313,5.69000005722046
694.0664563,14.210000038147
694.0820813,22.75
694.0977063,30.1399993896484
694.1133313,35.5
694.1289563,38.4199981689453
694.1445813,39.1199989318848
694.1602063,38.2299995422363
694.1758313,36.5299987792969
694.1914563,34.5999984741211
694.2070813,32.560001373291
694.2227063,30.0799999237061
694.2383313,26.7900009155273
694.2539563,22.6399993896484
694.2695813,17.9899997711182
694.2852063,13.25
694.3008313,8.65999984741211
694.3164563,4.36999988555908
694.3320813,0.439999997615814
694.3477063,-3.07999992370605
694.3633313,-6.34999990463257
694.3789563,-9.53999996185303
694.3945813,-12.710000038147
694.4102063,-15.75
694.4258313,-18.4300003051758
694.4414563,-20.6499996185303
694.4570813,-22.5
694.4727063,-24.1900005340576
694.4883313,-25.7900009155273
694.5039563,-27.3500003814697
694.5195813,-28.8199996948242
694.5352063,-30.2099990844727
694.5508313,-31.4799995422363
694.5664563,-32.5299987792969
694.5820813,-33.2799987792969
694.5977063,-33.7999992370605
694.6133313,-34.1699981689453
694.6289563,-34.2400016784668
694.6445813,-33.7799987792969
694.6602063,-32.7299995422363
694.6758313,-31.3700008392334
694.6914563,-30.0599994659424
694.7070813,-29.0400009155273
694.7227063,-28.2299995422363
694.7383313,-27.3600006103516
694.7539563,-26.0300006866455
694.7695813,-23.8600006103516
694.7852063,-20.4200000762939
694.8008313,-15.2299995422363
694.8164563,-7.96000003814697
694.8320813,1.28999996185303
694.8477063,11.789999961853
694.8633313,22.1800003051758
694.8789563,31.0799999237061
694.8945813,37.5699996948242
694.9102063,41.439998626709
694.9258313,43.1599998474121
694.9414563,43.5099983215332
694.9570813,43.0999984741211
694.9727063,42.1199989318848
694.9883313,40.4799995422363
695.0039563,38.0400009155273
695.0195813,34.7900009155273
695.0352063,30.9599990844727
695.0508313,26.8899993896484
695.0664563,23.0599994659424
695.0820813,19.8700008392334
695.0977063,17.4799995422363
695.1133313,15.8199996948242
695.1289563,14.6599998474121
695.1445813,13.6400003433228
695.1602063,12.3800001144409
695.1758313,10.6599998474121
695.1914563,8.46000003814697
695.2070813,5.8899998664856
695.2227063,3.02999997138977
695.2383313,0.0099999997764825
695.2539563,-3.02999997138977
695.2695813,-5.98000001907349
695.2852063,-8.73999977111816
695.3008313,-11.2700004577637
695.3164563,-13.5699996948242
695.3320813,-15.7399997711182
695.3477063,-17.8400001525879
695.3633313,-19.8600006103516
695.3789563,-21.75
695.3945813,-23.3799991607666
695.4102063,-24.7099990844727
695.4258313,-25.7299995422363
695.4414563,-26.4500007629395
695.4570813,-26.8400001525879
695.4727063,-26.9200000762939
695.4883313,-26.6800003051758
695.5039563,-26.1200008392334
695.5195813,-25.2700004577637
695.5352063,-24.1900005340576
695.5508313,-22.8099994659424
695.5664563,-20.7099990844727
695.5820813,-17.2199993133545
695.5977063,-11.789999961853
695.6133313,-4.40000009536743
695.6289563,4.30000019073486
695.6445813,13.289999961853
695.6602063,21.4599990844727
695.6758313,28.0100002288818
695.6914563,32.6300010681152
695.7070813,35.4300003051758
695.7227063,36.7900009155273
695.7383313,37.1199989318848
695.7539563,36.7000007629395
695.7695813,35.5800018310547
695.7852063,33.689998626709
695.8008313,31.0100002288818
695.8164563,27.6499996185303
695.8320813,23.9300003051758
695.8477063,20.1599998474121
695.8633313,16.6299991607666
695.8789563,13.539999961853
695.8945813,10.9499998092651
695.9102063,8.77999973297119
695.9258313,6.84999990463257
695.9414563,5.01000022888184
695.9570813,3.15000009536743
695.9727063,1.21000003814697
695.9883313,-0.899999976158142
696.0039563,-3.30999994277954
696.0195813,-6.03999996185303
696.0352063,-8.86999988555908
696.0508313,-11.5200004577637
696.0664563,-13.8900003433228
696.0820813,-16.1200008392334
696.0977063,-18.2700004577637
696.1133313,-20.1200008392334
696.1289563,-21.3600006103516
696.1445813,-21.9599990844727
696.1602063,-22.1900005340576
696.1758313,-22.3799991607666
696.1914563,-22.7399997711182
696.2070813,-23.2299995422363
696.2227063,-23.5699996948242
696.2383313,-23.4099998474121
696.2539563,-22.7000007629395
696.2695813,-21.5900001525879
696.2852063,-20.2700004577637
696.3008313,-18.8199996948242
696.3164563,-17.3400001525879
696.3320813,-15.9700002670288
696.3477063,-14.5100002288818
696.3633313,-12.3100004196167
696.3789563,-8.60999965667725
696.3945813,-3.07999992370605
696.4102063,3.96000003814697
696.4258313,11.8000001907349
696.4414563,19.5
696.4570813,26.2000007629395
696.4727063,31.3500003814697
696.4883313,34.9300003051758
696.5039563,37.2900009155273
696.5195813,38.8899993896484
696.5352063,39.8899993896484
696.5508313,40.1199989318848
696.5664563,39.1500015258789
696.5820813,36.5099983215332
696.5977063,32.0800018310547
696.6133313,26.4099998474121
696.6289563,20.4200000762939
696.6445813,14.9099998474121
696.6602063,10.4200000762939
696.6758313,7.53999996185303
696.6914563,6.51000022888184
696.7070813,6.53999996185303
696.7227063,6.03000020980835
696.7383313,3.51999998092651
696.7539563,-1.38999998569489
696.7695813,-7.88000011444092
696.7852063,-14.1599998474121
696.8008313,-18.3099994659424
696.8164563,-19.2999992370605
696.8320813,-17.5599994659424
696.8477063,-14.710000038147
696.8633313,-12.7200002670288
696.8789563,-12.9399995803833
696.8945813,-15.3500003814697
696.9102063,-18.5200004577637
696.9258313,-20.5
696.9414563,-20.0300006866455
696.9570813,-17.2099990844727
696.9727063,-13.1400003433228
696.9883313,-9.02000045776367
697.0039563,-5.53000020980835
697.0195813,-2.8199999332428
697.0352063,-0.779999971389771
697.0508313,0.779999971389771
697.0664563,1.91999995708466
697.0820813,2.4300000667572
697.0977063,2.09999990463257
697.1133313,0.949999988079071
697.1289563,-0.790000021457672
697.1445813,-2.76999998092651
697.1602063,-4.32999992370605
697.1758313,-4.55999994277954
697.1914563,-2.40000009536743
697.2070813,2.94000005722046
697.2227063,11.289999961853
697.2383313,21.2199993133545
697.2539563,30.6800003051758
697.2695813,38.0200004577637
697.2852063,42.6800003051758
697.3008313,45.189998626709
697.3164563,46.439998626709
697.3320813,46.810001373291
697.3477063,46.1399993896484
697.3633313,44.439998626709
697.3789563,42.0800018310547
697.3945813,39.3400001525879
697.4102063,36.2099990844727
697.4258313,32.5
697.4414563,28.1299991607666
697.4570813,23.3500003814697
697.4727063,18.6700000762939
697.4883313,14.4899997711182
697.5039563,10.7399997711182
697.5195813,6.94000005722046
697.5352063,2.61999988555908
697.5508313,-2.26999998092651
697.5664563,-7.46000003814697
697.5820813,-12.6499996185303
697.5977063,-17.7399997711182
697.6133313,-22.7000007629395
697.6289563,-27.4400005340576
697.6445813,-31.8299999237061
697.6602063,-35.7200012207031
697.6758313,-38.9599990844727
697.6914563,-41.5699996948242
697.7070813,-43.8499984741211
697.7227063,-46.1500015258789
697.7383313,-48.5900001525879
697.7539563,-50.9900016784668
697.7695813,-52.9700012207031
697.7852063,-54.2299995422363
697.8008313,-54.4900016784668
697.8164563,-53.5900001525879
697.8320813,-51.7700004577637
697.8477063,-49.8600006103516
697.8633313,-49.0299987792969
697.8789563,-49.7700004577637
697.8945813,-51.3499984741211
697.9102063,-52.2400016784668
697.9258313,-51.1800003051758
697.9414563,-47.7200012207031
697.9570813,-42.0900001525879
697.9727063,-34.6399993896484
697.9883313,-25.7700004577637
698.0039563,-16.1299991607666
698.0195813,-6.55000019073486
698.0352063,2.11999988555908
698.0508313,9.30000019073486
698.0664563,14.6300001144409
698.0820813,17.9500007629395
698.0977063,19.3400001525879
698.1133313,18.9599990844727
698.1289563,17.0
698.1445813,13.6899995803833
698.1602063,9.48999977111816
698.1758313,5.01000022888184
698.1914563,0.889999985694885
698.2070813,-2.4300000667572
698.2227063,-4.8600001335144
698.2383313,-6.65999984741211
698.2539563,-8.11999988555908
698.2695813,-9.51000022888184
698.2852063,-11.0299997329712
698.3008313,-12.789999961853
698.3164563,-14.789999961853
698.3320813,-16.8299999237061
698.3477063,-18.6100006103516
698.3633313,-19.8899993896484
698.3789563,-20.5200004577637
698.3945813,-20.3299999237061
698.4102063,-19.2900009155273
698.4258313,-17.6200008392334
698.4414563,-15.5900001525879
698.4570813,-13.4099998474121
698.4727063,-11.1999998092651
698.4883313,-9.02000045776367
698.5039563,-6.76999998092651
698.5195813,-4.38000011444092
698.5352063,-1.78999996185303
698.5508313,1.02999997138977
698.5664563,4.05999994277954
698.5820813,7.21999979019165
698.5977063,10.4300003051758
698.6133313,13.5299997329712
698.6289563,16.3099994659424
698.6445813,18.6900005340576
698.6602063,20.8400001525879
698.6758313,23.1299991607666
698.6914563,25.8099994659424
698.7070813,29.0
698.7227063,32.8400001525879
698.7383313,37.4799995422363
698.7539563,42.9799995422363
698.7695813,49.0200004577637
698.7852063,54.9300003051758
698.8008313,59.9000015258789
698.8164563,63.2599983215332
698.8320813,64.7200012207031
698.8477063,64.4199981689453
698.8633313,62.8199996948242
698.8789563,60.5299987792969
698.8945813,58.0200004577637
698.9102063,55.4199981689453
698.9258313,52.6199989318848
698.9414563,49.5
698.9570813,46.1199989318848
698.9727063,42.6100006103516
698.9883313,39.1500015258789
699.0039563,35.9900016784668
699.0195813,33.2999992370605
699.0352063,31.0900001525879
699.0508313,29.2099990844727
699.0664563,27.4200000762939
699.0820813,25.4799995422363
699.0977063,23.1599998474121
699.1133313,20.3899993896484
699.1289563,17.1800003051758
699.1445813,13.7299995422363
699.1602063,10.3400001525879
699.1758313,7.26999998092651
699.1914563,4.65000009536743
699.2070813,2.42000007629395
699.2227063,0.419999986886978
699.2383313,-1.53999996185303
699.2539563,-3.58999991416931
699.2695813,-5.6399998664856
699.2852063,-7.53000020980835
699.3008313,-9.10999965667725
699.3164563,-10.3299999237061
699.3320813,-11.289999961853
699.3477063,-12.1499996185303
699.3633313,-13.0600004196167
699.3789563,-14.1000003814697
699.3945813,-15.2200002670288
699.4102063,-16.4200000762939
699.4258313,-17.6499996185303
699.4414563,-18.8600006103516
699.4570813,-19.8500003814697
699.4727063,-20.3899993896484
699.4883313,-20.1200008392334
699.5039563,-18.6200008392334
699.5195813,-15.6599998474121
699.5352063,-11.4700002670288
699.5508313,-6.84000015258789
699.5664563,-2.79999995231628
699.5820813,-0.180000007152557
699.5977063,0.620000004768372
699.6133313,-0.209999993443489
699.6289563,-2.17000007629395
699.6445813,-4.53999996185303
699.6602063,-6.86999988555908
699.6758313,-8.98999977111816
699.6914563,-11.0200004577637
699.7070813,-13.1700000762939
699.7227063,-15.5100002288818
699.7383313,-17.8199996948242
699.7539563,-19.7999992370605
699.7695813,-21.2700004577637
699.7852063,-22.2199993133545
699.8008313,-22.7000007629395
699.8164563,-22.9099998474121
699.8320813,-23.0400009155273
699.8477063,-23.2700004577637
699.8633313,-23.6700000762939
699.8789563,-24.2299995422363
699.8945813,-24.9400005340576
699.9102063,-25.7900009155273
699.9258313,-26.7199993133545
699.9414563,-27.6499996185303
699.9570813,-28.4799995422363
699.9727063,-29.0699996948242
699.9883313,-29.3099994659424
700.0039563,-29.1800003051758
700.0195813,-28.7700004577637
700.0352063,-28.1700000762939
700.0508313,-27.4699993133545
700.0664563,-26.7299995422363
700.0820813,-25.8899993896484
700.0977063,-24.8700008392334
700.1133313,-23.6900005340576
700.1289563,-22.4599990844727
700.1445813,-21.2800006866455
700.1602063,-20.2299995422363
700.1758313,-19.25
700.1914563,-18.1800003051758
700.2070813,-16.9400005340576
700.2227063,-15.5100002288818
700.2383313,-13.8299999237061
700.2539563,-11.6999998092651
700.2695813,-8.76000022888184
700.2852063,-4.65999984741211
700.3008313,0.620000004768372
700.3164563,6.6399998664856
700.3320813,12.4799995422363
700.3477063,17.25
700.3633313,20.3199996948242
700.3789563,21.5499992370605
700.3945813,21.2999992370605
700.4102063,20.1800003051758
700.4258313,18.7199993133545
700.4414563,17.2299995422363
700.4570813,15.8699998855591
700.4727063,14.7200002670288
700.4883313,13.7399997711182
700.5039563,12.8100004196167
700.5195813,11.8100004196167
700.5352063,10.75
700.5508313,9.68000030517578
700.5664563,8.76000022888184
700.5820813,8.17000007629395
700.5977063,8.05000019073486
700.6133313,8.31999969482422
700.6289563,8.65999984741211
700.6445813,8.64999961853027
700.6602063,7.98000001907349
700.6758313,6.71000003814697
700.6914563,5.19999980926514
700.7070813,3.90000009536743
