Time(s),Value(%)
811.0022828,18.5
811.0179078,13.7399997711182
811.0335328,9.73999977111816
811.0491578,7.0
811.0647828,5.40999984741211
811.0804078,4.46999979019165
811.0960328,3.63000011444092
811.1116578,2.46000003814697
811.1272828,0.75
811.1429078,-1.46000003814697
811.1585328,-3.92000007629395
811.1741578,-6.3600001335144
811.1897828,-8.77000045776367
811.2054078,-11.1899995803833
811.2210328,-13.5200004577637
811.2366578,-15.5600004196167
811.2522828,-17.1399993896484
811.2679078,-18.1200008392334
811.2835328,-18.4300003051758
811.2991578,-18.2199993133545
811.3147828,-17.9099998474121
811.3304078,-17.9500007629395
811.3460328,-18.4200000762939
811.3616578,-19.0799999237061
811.3772828,-19.8199996948242
811.3929078,-20.8099994659424
811.4085328,-22.0300006866455
811.4241578,-23.0799999237061
811.4397828,-23.3099994659424
811.4554078,-22.3700008392334
811.4710328,-20.4699993133545
811.4866578,-18.1599998474121
811.5022828,-15.960000038147
811.5179078,-14.1499996185303
811.5335328,-12.8900003433228
811.5491578,-12.1099996566772
811.5647828,-11.539999961853
811.5804078,-10.9700002670288
811.5960328,-10.4499998092651
811.6116578,-9.94999980926514
811.6272828,-8.72999954223633
811.6429078,-5.15000009536743
811.6585328,2.49000000953674
811.6741578,14.6000003814697
811.6897828,29.6200008392334
811.7054078,44.6500015258789
811.7210328,56.7400016784668
811.7366578,63.7900009155273
811.7522828,65.0400009155273
811.7679078,61.0299987792969
811.7835328,53.2400016784668
811.7991578,43.5299987792969
811.8147828,33.6599998474121
811.8304078,24.8600006103516
811.8460328,17.5499992370605
811.8616578,11.460000038147
811.8772828,6.0
811.8929078,0.660000026226044
811.9085328,-4.59999990463257
811.9241578,-9.27000045776367
811.9397828,-12.6099996566772
811.9554078,-14.3000001907349
811.9710328,-14.6199998855591
811.9866578,-14.1300001144409
812.0022828,-13.25
812.0179078,-12.3000001907349
812.0335328,-11.6599998474121
812.0491578,-11.6800003051758
812.0647828,-12.6000003814697
812.0804078,-14.3599996566772
812.0960328,-16.7099990844727
812.1116578,-19.3799991607666
812.1272828,-22.1100006103516
812.1429078,-24.5400009155273
812.1585328,-26.3099994659424
812.1741578,-27.3899993896484
812.1897828,-28.0100002288818
812.2054078,-28.5
812.2210328,-28.9899997711182
812.2366578,-29.4899997711182
812.2522828,-29.9500007629395
812.2679078,-30.2800006866455
812.2835328,-30.1499996185303
812.2991578,-29.1299991607666
812.3147828,-27.0200004577637
812.3304078,-24.1499996185303
812.3460328,-21.1900005340576
812.3616578,-18.6700000762939
812.3772828,-16.8500003814697
812.3929078,-15.710000038147
812.4085328,-14.9899997711182
812.4241578,-14.3299999237061
812.4397828,-13.2600002288818
812.4554078,-11.4799995422363
812.4710328,-9.02999973297119
812.4866578,-6.19999980926514
812.5022828,-3.4300000667572
812.5179078,-1.26999998092651
812.5335328,-0.200000002980232
812.5491578,0.0099999997764825
812.5647828,0.970000028610229
812.5804078,5.09000015258789
812.5960328,13.9499998092651
812.6116578,26.7700004577637
812.6272828,40.6699981689453
812.6429078,52.25
812.6585328,59.2900009155273
812.6741578,61.2599983215332
812.6897828,58.9599990844727
812.7054078,53.8300018310547
812.7210328,47.4000015258789
812.7366578,40.9300003051758
812.7522828,35.0900001525879
812.7679078,29.9799995422363
812.7835328,25.2600002288818
812.7991578,20.3700008392334
812.8147828,14.789999961853
812.8304078,8.42000007629395
812.8460328,1.95000004768372
812.8616578,-3.25999999046326
812.8772828,-6.28000020980835
812.8929078,-7.44000005722046
812.9085328,-8.10000038146973
812.9241578,-9.32999992370605
812.9397828,-11.1999998092651
812.9554078,-13.2299995422363
812.9710328,-15.2600002288818
812.9866578,-17.4200000762939
813.0022828,-19.8199996948242
813.0179078,-22.2299995422363
813.0335328,-24.3199996948242
813.0491578,-25.8799991607666
813.0647828,-26.9799995422363
813.0804078,-27.7900009155273
813.0960328,-28.6900005340576
813.1116578,-30.1800003051758
813.1272828,-32.5699996948242
813.1429078,-35.6399993896484
813.1585328,-38.8300018310547
813.1741578,-41.6199989318848
813.1897828,-43.8499984741211
813.2054078,-46.1199989318848
813.2210328,-50.0200004577637
813.2366578,-57.4099998474121
813.2522828,-68.3899993896484
813.2679078,-79.9800033569336
813.2835328,-87.0599975585938
813.2991578,-85.4400024414063
813.3147828,-74.2900009155273
813.3304078,-56.2099990844727
813.3460328,-35.5
813.3616578,-16.2600002288818
813.3772828,-1.50999999046326
813.3929078,6.78000020980835
813.4085328,7.71000003814697
813.4241578,1.61000001430511
813.4397828,-9.73999977111816
813.4554078,-23.4500007629395
813.4710328,-36.4500007629395
813.4866578,-46.0900001525879
813.5022828,-49.9599990844727
813.5179078,-45.310001373291
813.5335328,-29.8199996948242
813.5491578,-3.65000009536743
813.5647828,29.2700004577637
813.5804078,62.2400016784668
813.5960328,88.8199996948242
813.6116578,105.75
813.6272828,113.589996337891
813.6429078,115.180000305176
813.6585328,113.519996643066
813.6741578,110.279998779297
813.6897828,105.589996337891
813.7054078,99.0199966430664
813.7210328,90.620002746582
813.7366578,81.0500030517578
813.7522828,71.0800018310547
813.7679078,61.9099998474121
813.7835328,56.4900016784668
813.7991578,60.4599990844727
813.8147828,80.0999984741211
813.8304078,117.540000915527
813.8460328,166.419998168945
813.8616578,212.199996948242
813.8772828,238.509994506836
813.8929078,235.360000610352
813.9085328,203.880004882813
813.9241578,154.669998168945
813.9397828,101.949996948242
813.9554078,57.1399993896484
813.9710328,25.4300003051758
813.9866578,6.09999990463257
814.0022828,-4.53999996185303
814.0179078,-10.4700002670288
814.0335328,-14.4200000762939
814.0491578,-17.9500007629395
814.0647828,-21.8600006103516
814.0804078,-26.5
814.0960328,-31.8500003814697
814.1116578,-37.7700004577637
814.1272828,-44.0999984741211
814.1429078,-50.5900001525879
814.1585328,-56.9000015258789
814.1741578,-62.8199996948242
814.1897828,-68.3399963378906
814.2054078,-73.5599975585938
814.2210328,-78.5
814.2366578,-83.0800018310547
814.2522828,-87.1699981689453
814.2679078,-90.4700012207031
814.2835328,-92.4700012207031
814.2991578,-92.8199996948242
814.3147828,-91.9000015258789
814.3304078,-90.6399993896484
814.3460328,-89.5599975585938
814.3616578,-87.6999969482422
814.3772828,-82.7099990844727
814.3929078,-72.5199966430664
814.4085328,-57.0800018310547
814.4241578,-38.6300010681152
814.4397828,-20.6499996185303
814.4554078,-6.34000015258789
814.4710328,2.47000002861023
814.4866578,5.73000001907349
814.5022828,4.71000003814697
814.5179078,1.26999998092651
814.5335328,-3.03999996185303
814.5491578,-7.71000003814697
814.5647828,-13.0
814.5804078,-19.2600002288818
814.5960328,-26.4799995422363
814.6116578,-34.2900009155273
814.6272828,-41.9700012207031
814.6429078,-48.3499984741211
814.6585328,-52.2200012207031
814.6741578,-53.0299987792969
814.6897828,-51.3400001525879
814.7054078,-48.5099983215332
814.7210328,-45.8300018310547
814.7366578,-43.8800010681152
814.7522828,-42.7799987792969
814.7679078,-42.5200004577637
814.7835328,-42.8899993896484
814.7991578,-43.2999992370605
814.8147828,-43.0499992370605
814.8304078,-41.8499984741211
814.8460328,-39.8499984741211
814.8616578,-37.3899993896484
814.8772828,-34.9500007629395
814.8929078,-33.1800003051758
814.9085328,-32.6100006103516
814.9241578,-33.1300010681152
814.9397828,-34.0
814.9554078,-34.3600006103516
814.9710328,-33.9199981689453
814.9866578,-32.8499984741211
815.0022828,-31.3500003814697
815.0179078,-29.4799995422363
815.0335328,-27.3500003814697
815.0491578,-25.0799999237061
815.0647828,-22.8400001525879
815.0804078,-20.6800003051758
815.0960328,-18.4599990844727
815.1116578,-16.0
815.1272828,-13.4399995803833
815.1429078,-11.1999998092651
815.1585328,-9.6899995803833
815.1741578,-9.17000007629395
815.1897828,-9.60999965667725
815.2054078,-10.4200000762939
815.2210328,-10.3199996948242
815.2366578,-7.80000019073486
815.2522828,-1.47000002861023
815.2679078,9.65999984741211
815.2835328,25.5200004577637
815.2991578,44.1599998474121
815.3147828,62.0200004577637
815.3304078,75.4499969482422
815.3460328,82.4800033569336
815.3616578,83.379997253418
815.3772828,79.9599990844727
815.3929078,74.4199981689453
815.4085328,68.6800003051758
815.4241578,63.9599990844727
815.4397828,60.7400016784668
815.4554078,58.7000007629395
815.4710328,56.9700012207031
815.4866578,54.4700012207031
815.5022828,50.4000015258789
815.5179078,44.8499984741211
815.5335328,38.7099990844727
815.5491578,33.1399993896484
815.5647828,28.9400005340576
815.5804078,26.3500003814697
815.5960328,25.0699996948242
815.6116578,24.3700008392334
815.6272828,23.3299999237061
815.6429078,21.2800006866455
815.6585328,18.0400009155273
815.6741578,13.8400001525879
815.6897828,9.10000038146973
815.7054078,4.44999980926514
815.7210328,0.689999997615814
815.7366578,-1.50999999046326
815.7522828,-2.22000002861023
815.7679078,-2.20000004768372
815.7835328,-2.22000002861023
815.7991578,-2.52999997138977
815.8147828,-2.80999994277954
815.8304078,-2.60999989509583
815.8460328,-1.82000005245209
815.8616578,-0.899999976158142
815.8772828,-0.709999978542328
815.8929078,-2.04999995231628
815.9085328,-5.05000019073486
815.9241578,-8.86999988555908
815.9397828,-12.1499996185303
815.9554078,-13.8500003814697
815.9710328,-13.710000038147
815.9866578,-12.1599998474121
816.0022828,-9.90999984741211
816.0179078,-7.5
816.0335328,-5.15000009536743
816.0491578,-2.98000001907349
816.0647828,-1.28999996185303
816.0804078,-0.449999988079071
816.0960328,-0.5
816.1116578,-1.10000002384186
816.1272828,-1.37000000476837
816.1429078,0.409999996423721
816.1585328,6.5
816.1741578,18.2399997711182
816.1897828,34.4500007629395
816.2054078,51.4799995422363
816.2210328,65.0199966430664
816.2366578,72.0800018310547
816.2522828,71.9300003051758
816.2679078,65.7799987792969
816.2835328,56.0800018310547
816.2991578,45.6199989318848
816.3147828,36.4099998474121
816.3304078,29.1000003814697
816.3460328,23.2000007629395
816.3616578,17.7099990844727
816.3772828,11.75
816.3929078,5.07999992370605
816.4085328,-1.70000004768372
816.4241578,-7.21000003814697
816.4397828,-10.0500001907349
816.4554078,-9.89999961853027
816.4710328,-8.11999988555908
816.4866578,-6.98000001907349
816.5022828,-8.06999969482422
816.5179078,-11.3599996566772
816.5335328,-15.4499998092651
816.5491578,-18.7299995422363
816.5647828,-20.2399997711182
816.5804078,-19.9799995422363
816.5960328,-18.7800006866455
816.6116578,-17.7999992370605
816.6272828,-17.9099998474121
816.6429078,-19.4300003051758
816.6585328,-22.0599994659424
816.6741578,-25.1900005340576
816.6897828,-28.2399997711182
816.7054078,-30.7199993133545
816.7210328,-32.1599998474121
816.7366578,-32.2799987792969
816.7522828,-31.4300003051758
816.7679078,-30.4699993133545
816.7835328,-30.1200008392334
816.7991578,-30.4099998474121
816.8147828,-30.8099994659424
816.8304078,-30.6399993896484
816.8460328,-29.5100002288818
816.8616578,-27.4699993133545
816.8772828,-24.8400001525879
816.8929078,-21.9699993133545
816.9085328,-19.1900005340576
816.9241578,-16.7399997711182
816.9397828,-14.8599996566772
816.9554078,-13.5900001525879
816.9710328,-12.539999961853
816.9866578,-10.8000001907349
817.0022828,-7.05000019073486
817.0179078,0.0
817.0335328,10.9799995422363
817.0491578,25.1100006103516
817.0647828,40.2299995422363
817.0804078,53.5299987792969
817.0960328,62.5
817.1116578,65.75
817.1272828,63.4799995422363
817.1429078,57.3199996948242
817.1585328,49.5699996948242
817.1741578,42.1100006103516
817.1897828,35.6399993896484
817.2054078,29.7900009155273
817.2210328,23.8999996185303
817.2366578,17.6900005340576
817.2522828,11.2700004577637
817.2679078,4.92999982833862
817.2835328,-0.879999995231628
817.2991578,-5.71000003814697
817.3147828,-9.3100004196167
817.3304078,-11.9200000762939
817.3460328,-14.0500001907349
817.3616578,-16.0499992370605
817.3772828,-17.9799995422363
817.3929078,-19.7299995422363
817.4085328,-21.3500003814697
817.4241578,-22.9899997711182
817.4397828,-24.7399997711182
817.4554078,-26.5200004577637
817.4710328,-28.0200004577637
817.4866578,-28.7700004577637
817.5022828,-28.3899993896484
817.5179078,-26.9300003051758
817.5335328,-25.0599994659424
817.5491578,-23.6299991607666
817.5647828,-23.2199993133545
817.5804078,-23.8799991607666
817.5960328,-25.3999996185303
817.6116578,-27.4500007629395
817.6272828,-29.6299991607666
817.6429078,-31.3999996185303
817.6585328,-32.1699981689453
817.6741578,-31.5900001525879
817.6897828,-29.6599998474121
817.7054078,-26.6399993896484
817.7210328,-22.7700004577637
817.7366578,-18.2999992370605
817.7522828,-13.6899995803833
817.7679078,-9.42000007629395
817.7835328,-5.67999982833862
817.7991578,-2.21000003814697
817.8147828,1.16999995708466
817.8304078,4.30000019073486
817.8460328,6.65999984741211
817.8616578,7.90999984741211
817.8772828,8.38000011444092
817.8929078,9.36999988555908
817.9085328,12.8199996948242
817.9241578,20.25
817.9397828,31.6100006103516
817.9554078,44.7799987792969
817.9710328,56.2999992370605
817.9866578,62.9799995422363
818.0022828,63.3199996948242
818.0179078,58.060001373291
818.0335328,49.4500007629395
818.0491578,40.0299987792969
818.0647828,31.5200004577637
818.0804078,24.5
818.0960328,18.9400005340576
818.1116578,14.6300001144409
818.1272828,11.2600002288818
818.1429078,8.39000034332275
818.1585328,5.63000011444092
818.1741578,2.83999991416931
818.1897828,0.0399999991059303
818.2054078,-2.61999988555908
818.2210328,-4.90999984741211
818.2366578,-6.59999990463257
818.2522828,-7.63000011444092
818.2679078,-8.14999961853027
818.2835328,-8.43000030517578
818.2991578,-8.89999961853027
818.3147828,-9.98999977111816
818.3304078,-11.8699998855591
818.3460328,-14.3500003814697
818.3616578,-16.9500007629395
818.3772828,-19.1700000762939
818.3929078,-20.7199993133545
818.4085328,-21.6599998474121
818.4241578,-22.3600006103516
818.4397828,-23.3799991607666
818.4554078,-25.1299991607666
818.4710328,-27.7800006866455
818.4866578,-31.0100002288818
818.5022828,-33.8699989318848
818.5179078,-35.0900001525879
818.5335328,-34.0499992370605
818.5491578,-31.1800003051758
818.5647828,-27.4200000762939
818.5804078,-23.5900001525879
818.5960328,-20.1800003051758
818.6116578,-17.5400009155273
818.6272828,-15.8400001525879
818.6429078,-15.0100002288818
818.6585328,-14.7200002670288
818.6741578,-14.6800003051758
818.6897828,-14.7700004577637
818.7054078,-14.8999996185303
818.7210328,-14.8599996566772
818.7366578,-14.3999996185303
818.7522828,-13.4300003051758
818.7679078,-12.0500001907349
818.7835328,-10.1199998855591
818.7991578,-6.69000005722046
818.8147828,-0.319999992847443
818.8304078,9.77000045776367
818.8460328,22.6200008392334
818.8616578,35.7400016784668
818.8772828,46.2999992370605
818.8929078,52.2999992370605
818.9085328,53.1800003051758
818.9241578,49.8899993896484
818.9397828,44.2200012207031
818.9554078,37.8899993896484
818.9710328,31.8799991607666
818.9866578,26.4899997711182
819.0022828,21.6599998474121
819.0179078,17.3700008392334
819.0335328,13.6199998855591
819.0491578,10.3699998855591
819.0647828,7.59999990463257
819.0804078,5.3600001335144
819.0960328,3.67000007629395
819.1116578,2.49000000953674
819.1272828,1.64999997615814
819.1429078,1.07000005245209
819.1585328,0.699999988079071
819.1741578,0.28999999165535
819.1897828,-0.740000009536743
819.2054078,-2.96000003814697
819.2210328,-6.46000003814697
819.2366578,-10.7200002670288
819.2522828,-14.8699998855591
819.2679078,-18.1900005340576
819.2835328,-20.4899997711182
819.2991578,-22.1499996185303
819.3147828,-23.8199996948242
819.3304078,-25.9400005340576
819.3460328,-28.3400001525879
819.3616578,-30.2900009155273
819.3772828,-30.9400005340576
819.3929078,-30.0900001525879
819.4085328,-28.3500003814697
819.4241578,-26.5
819.4397828,-24.6399993896484
819.4554078,-22.0
819.4710328,-17.8199996948242
819.4866578,-11.9499998092651
819.5022828,-5.07999992370605
819.5179078,1.62000000476837
819.5335328,6.94999980926514
819.5491578,10.0200004577637
819.5647828,10.6899995803833
819.5804078,9.61999988555908
819.5960328,7.94999980926514
819.6116578,6.65999984741211
819.6272828,6.34999990463257
819.6429078,7.21999979019165
819.6585328,9.36999988555908
819.6741578,13.3000001907349
819.6897828,19.8600006103516
819.7054078,29.5599994659424
819.7210328,41.6599998474121
819.7366578,54.060001373291
819.7522828,63.8800010681152
819.7679078,68.75
819.7835328,68.0
819.7991578,62.9599990844727
819.8147828,55.9500007629395
819.8304078,48.75
819.8460328,41.9000015258789
819.8616578,35.0
819.8772828,27.5799999237061
819.8929078,19.5499992370605
819.9085328,11.1999998092651
819.9241578,3.11999988555908
819.9397828,-3.79999995231628
819.9554078,-8.55000019073486
819.9710328,-10.710000038147
819.9866578,-10.9099998474121
820.0022828,-10.4799995422363
820.0179078,-10.6000003814697
820.0335328,-11.7299995422363
820.0491578,-13.6700000762939
820.0647828,-15.9700002670288
820.0804078,-18.0900001525879
820.0960328,-19.7199993133545
820.1116578,-20.9300003051758
820.1272828,-22.0400009155273
820.1429078,-23.0900001525879
820.1585328,-23.9799995422363
820.1741578,-24.6900005340576
820.1897828,-25.4799995422363
820.2054078,-26.5400009155273
820.2210328,-27.8799991607666
820.2366578,-29.2700004577637
820.2522828,-30.5200004577637
820.2679078,-31.4500007629395
820.2835328,-31.8400001525879
820.2991578,-31.4099998474121
820.3147828,-30.0799999237061
820.3304078,-28.0900001525879
820.3460328,-25.7900009155273
820.3616578,-23.2800006866455
820.3772828,-20.3500003814697
820.3929078,-16.8099994659424
820.4085328,-12.9799995422363
820.4241578,-9.43000030517578
820.4397828,-6.46999979019165
820.4554078,-3.9300000667572
820.4710328,-1.46000003814697
820.4866578,1.1599999666214
820.5022828,3.97000002861023
820.5179078,6.84999990463257
820.5335328,9.63000011444092
820.5491578,12.5299997329712
820.5647828,16.5300006866455
820.5804078,23.2999992370605
820.5960328,34.1800003051758
820.6116578,48.9300003051758
820.6272828,65.3099975585938
820.6429078,80.0
820.6585328,89.9100036621094
820.6741578,93.120002746582
820.6897828,89.3399963378906
820.7054078,79.9199981689453
820.7210328,67.25
820.7366578,53.6399993896484
820.7522828,40.2099990844727
820.7679078,27.0400009155273
820.7835328,13.8500003814697
820.7991578,0.730000019073486
820.8147828,-11.7799997329712
820.8304078,-23.0200004577637
820.8460328,-32.4300003051758
820.8616578,-39.7599983215332
820.8772828,-45.1199989318848
820.8929078,-48.9900016784668
820.9085328,-52.1599998474121
820.9241578,-55.310001373291
820.9397828,-58.5299987792969
820.9554078,-61.25
820.9710328,-62.9300003051758
820.9866578,-63.5099983215332
821.0022828,-63.0200004577637
821.0179078,-61.3899993896484
821.0335328,-58.6699981689453
821.0491578,-55.4700012207031
821.0647828,-52.6500015258789
821.0804078,-50.75
821.0960328,-49.6399993896484
821.1116578,-48.8800010681152
821.1272828,-48.0
821.1429078,-46.5999984741211
821.1585328,-44.439998626709
821.1741578,-41.6699981689453
821.1897828,-38.9799995422363
821.2054078,-37.0499992370605
821.2210328,-35.8199996948242
821.2366578,-34.4900016784668
821.2522828,-32.1599998474121
821.2679078,-28.3400001525879
821.2835328,-23.1200008392334
821.2991578,-17.1100006103516
821.3147828,-11.3599996566772
821.3304078,-6.96000003814697
821.3460328,-4.48000001907349
821.3616578,-3.61999988555908
821.3772828,-3.47000002861023
821.3929078,-3.00999999046326
821.4085328,-1.20000004768372
821.4241578,3.25999999046326
821.4397828,12.0600004196167
821.4554078,25.9500007629395
821.4710328,43.5299987792969
821.4866578,61.2999992370605
821.5022828,75.1399993896484
821.5179078,82.2799987792969
821.5335328,82.25
821.5491578,76.5500030517578
821.5647828,67.6399993896484
821.5804078,57.9700012207031
821.5960328,49.1800003051758
821.6116578,41.7900009155273
821.6272828,35.439998626709
821.6429078,29.6000003814697
821.6585328,23.9500007629395
821.6741578,18.6000003814697
821.6897828,13.8999996185303
821.7054078,10.2600002288818
821.7210328,7.92000007629395
821.7366578,6.84000015258789
