Time(s),Value(%)
572.0030072,-22.6299991607666
572.0186322,-27.1700000762939
572.0342572,-32.0699996948242
572.0498822,-37.2099990844727
572.0655072,-42.2999992370605
572.0811322,-47.0299987792969
572.0967572,-51.2700004577637
572.1123822,-55.2700004577637
572.1280072,-59.560001373291
572.1436322,-64.8199996948242
572.1592572,-71.2300033569336
572.1748822,-78.7799987792969
572.1905072,-87.5100021362305
572.2061322,-97.5100021362305
572.2217572,-108.449996948242
572.2373822,-119.199996948242
572.2530072,-128.050003051758
572.2686322,-133.600006103516
572.2842572,-135.509994506836
572.2998822,-134.330001831055
572.3155072,-130.660003662109
572.3311322,-124.620002746582
572.3467572,-115.98999786377
572.3623822,-104.730003356934
572.3780072,-91.4199981689453
572.3936322,-77.0400009155273
572.4092572,-62.5699996948242
572.4248822,-48.5699996948242
572.4405072,-35.1500015258789
572.4561322,-22.4300003051758
572.4717572,-10.9099998474121
572.4873822,-1.25
572.5030072,6.30000019073486
572.5186322,12.1000003814697
572.5342572,16.7999992370605
572.5498822,20.7099990844727
572.5655072,23.4799995422363
572.5811322,24.5
572.5967572,23.5200004577637
572.6123822,20.7399997711182
572.6280072,16.4799995422363
572.6436322,11.0699996948242
572.6592572,5.0
572.6748822,-0.930000007152557
572.6905072,-5.73000001907349
572.7061322,-8.9399995803833
572.7217572,-11.0900001525879
572.7373822,-13.1599998474121
572.7530072,-15.6599998474121
572.7686322,-18.6299991607666
572.7842572,-22.3199996948242
572.7998822,-27.1399993896484
572.8155072,-33.1500015258789
572.8311322,-39.5900001525879
572.8467572,-45.0499992370605
572.8623822,-48.5999984741211
572.8780072,-50.560001373291
572.8936322,-51.9199981689453
572.9092572,-53.0200004577637
572.9248822,-53.3699989318848
572.9405072,-52.310001373291
572.9561322,-49.6399993896484
572.9717572,-45.7000007629395
572.9873822,-40.7599983215332
573.0030072,-34.7000007629395
573.0186322,-27.1599998474121
573.0342572,-18.0900001525879
573.0498822,-7.94000005722046
573.0655072,2.54999995231628
573.0811322,12.710000038147
573.0967572,21.8500003814697
573.1123822,28.3899993896484
573.1280072,29.3999996185303
573.1436322,22.4500007629395
573.1592572,7.15999984741211
573.1748822,-15.1899995803833
573.1905072,-43.5099983215332
573.2061322,-77.0500030517578
573.2217572,-114.099998474121
573.2373822,-150.679992675781
573.2530072,-181.270004272461
573.2686322,-202.259994506836
573.2842572,-214.770004272461
573.2998822,-222.570007324219
573.3155072,-228.110000610352
573.3311322,-231.820007324219
573.3467572,-234.130004882813
573.3623822,-236.350006103516
573.3780072,-239.470001220703
573.3936322,-242.520004272461
573.4092572,-242.320007324219
573.4248822,-235.410003662109
573.4405072,-220.289993286133
573.4561322,-197.690002441406
573.4717572,-169.190002441406
573.4873822,-136.449996948242
573.5030072,-101.26000213623
573.5186322,-65.5
573.5342572,-30.7399997711182
573.5498822,2.13000011444092
573.5655072,33.060001373291
573.5811322,62.4700012207031
573.5967572,90.8099975585938
573.6123822,118.529998779297
573.6280072,146.070007324219
573.6436322,173.710006713867
573.6592572,201.279998779297
573.6748822,228.039993286133
573.6905072,252.990005493164
573.7061322,275.600006103516
573.7217572,296.200012207031
573.7373822,315.459991455078
573.7530072,327.670013427734
573.7686322,327.670013427734
573.7842572,327.670013427734
573.7998822,327.670013427734
573.8155072,327.670013427734
573.8311322,327.670013427734
573.8467572,327.670013427734
573.8623822,327.670013427734
573.8780072,327.670013427734
573.8936322,327.670013427734
573.9092572,327.670013427734
573.9248822,327.670013427734
573.9405072,327.670013427734
573.9561322,327.670013427734
573.9717572,327.670013427734
573.9873822,327.670013427734
574.0030072,327.670013427734
574.0186322,327.670013427734
574.0342572,327.670013427734
574.0498822,327.670013427734
574.0655072,327.670013427734
574.0811322,327.670013427734
574.0967572,327.670013427734
574.1123822,327.670013427734
574.1280072,327.670013427734
574.1436322,327.670013427734
574.1592572,327.670013427734
574.1748822,327.670013427734
574.1905072,327.670013427734
574.2061322,324.399993896484
574.2217572,316.739990234375
574.2373822,308.859985351563
574.2530072,300.369995117188
574.2686322,291.269989013672
574.2842572,282.269989013672
574.2998822,274.350006103516
574.3155072,267.959991455078
574.3311322,262.779998779297
574.3467572,258.040008544922
574.3623822,253.009994506836
574.3780072,247.309997558594
574.3936322,240.929992675781
574.4092572,234.130004882813
574.4248822,227.179992675781
574.4405072,220.25
574.4561322,213.440002441406
574.4717572,206.779998779297
574.4873822,200.300003051758
574.5030072,193.860000610352
574.5186322,186.970001220703
574.5342572,178.789993286133
574.5498822,168.610000610352
574.5655072,156.429992675781
574.5811322,142.929992675781
574.5967572,129.0
574.6123822,115.300003051758
574.6280072,102.129997253418
574.6436322,89.5100021362305
574.6592572,77.2799987792969
574.6748822,65.2300033569336
574.6905072,53.1100006103516
574.7061322,40.75
574.7217572,28.1499996185303
574.7373822,15.3800001144409
574.7530072,2.46000003814697
574.7686322,-10.6300001144409
574.7842572,-23.8099994659424
574.7998822,-36.8400001525879
574.8155072,-49.3800010681152
574.8311322,-61.1500015258789
574.8467572,-72.0299987792969
574.8623822,-82.0199966430664
574.8780072,-91.0500030517578
574.8936322,-99.0699996948242
574.9092572,-106.139999389648
574.9248822,-112.459999084473
574.9405072,-118.190002441406
574.9561322,-123.01000213623
574.9717572,-125.919998168945
574.9873822,-125.940002441406
575.0030072,-122.870002746582
575.0186322,-117.419998168945
575.0342572,-110.650001525879
575.0498822,-103.449996948242
575.0655072,-96.5199966430664
575.0811322,-90.7399978637695
575.0967572,-87.3000030517578
575.1123822,-87.120002746582
575.1280072,-88.4899978637695
575.1436322,-91.9899978637695
575.1592572,-96.4300003051758
575.1748822,-100.98999786377
575.1905072,-105.129997253418
575.2061322,-108.610000610352
575.2217572,-111.410003662109
575.2373822,-113.779998779297
575.2530072,-116.059997558594
575.2686322,-118.559997558594
575.2842572,-121.419998168945
575.2998822,-124.620002746582
575.3155072,-128.110000610352
575.3311322,-131.800003051758
575.3467572,-135.570007324219
575.3623822,-139.270004272461
575.3780072,-142.75
575.3936322,-146.039993286133
575.4092572,-149.309997558594
575.4248822,-152.779998779297
575.4405072,-156.529998779297
575.4561322,-160.389999389648
575.4717572,-164.110000610352
575.4873822,-167.470001220703
575.5030072,-170.320007324219
575.5186322,-172.539993286133
575.5342572,-173.910003662109
575.5498822,-173.990005493164
575.5655072,-172.160003662109
575.5811322,-168.080001831055
575.5967572,-162.009994506836
575.6123822,-154.770004272461
575.6280072,-147.300003051758
575.6436322,-140.320007324219
575.6592572,-134.100006103516
575.6748822,-128.570007324219
575.6905072,-123.449996948242
575.7061322,-118.51000213623
575.7217572,-113.610000610352
575.7373822,-108.680000305176
575.7530072,-103.660003662109
575.7686322,-98.5199966430664
575.7842572,-93.3600006103516
575.7998822,-88.5999984741211
575.8155072,-85.0199966430664
575.8311322,-83.2300033569336
575.8467572,-83.2099990844727
575.8623822,-84.3199996948242
575.8780072,-85.8099975585938
575.8936322,-87.1800003051758
575.9092572,-88.2399978637695
575.9248822,-89.0299987792969
575.9405072,-89.6800003051758
575.9561322,-90.379997253418
575.9717572,-91.3899993896484
575.9873822,-92.9100036621094
576.0030072,-94.9400024414063
576.0186322,-97.3300018310547
576.0342572,-99.9800033569336
576.0498822,-102.790000915527
576.0655072,-105.680000305176
576.0811322,-108.440002441406
576.0967572,-110.860000610352
576.1123822,-112.800003051758
576.1280072,-111.75
576.1436322,-110.589996337891
576.1592572,-109.319999694824
576.1748822,-107.790000915527
576.1905072,-105.879997253418
576.2061322,-103.580001831055
576.2217572,-100.940002441406
576.2373822,-97.7200012207031
576.2530072,-93.2799987792969
576.2686322,-87.0400009155273
576.2842572,-78.9700012207031
576.2998822,-69.5999984741211
576.3155072,-59.5900001525879
576.3311322,-49.4599990844727
576.3467572,-39.6500015258789
576.3623822,-30.6700000762939
576.3780072,-23.2299995422363
576.3936322,-17.8299999237061
576.4092572,-14.4399995803833
576.4248822,-12.6199998855591
576.4405072,-11.8400001525879
576.4561322,-11.710000038147
576.4717572,-11.9700002670288
576.4873822,-12.4099998474121
576.5030072,-12.8699998855591
576.5186322,-13.2399997711182
576.5342572,-13.5
576.5498822,-13.6700000762939
576.5655072,-13.8100004196167
576.5811322,-13.9799995422363
576.5967572,-14.3199996948242
576.6123822,-14.8999996185303
576.6280072,-15.7200002670288
576.6436322,-16.6900005340576
576.6592572,-17.6599998474121
576.6748822,-18.6200008392334
576.6905072,-19.6700000762939
576.7061322,-20.9099998474121
576.7217572,-22.2399997711182
576.7373822,-23.4599990844727
576.7530072,-24.3400001525879
576.7686322,-24.7999992370605
576.7842572,-24.9200000762939
576.7998822,-24.8899993896484
576.8155072,-24.9300003051758
576.8311322,-25.2000007629395
576.8467572,-25.6900005340576
576.8623822,-26.1700000762939
576.8780072,-26.2000007629395
576.8936322,-25.4200000762939
576.9092572,-23.7399997711182
576.9248822,-21.2299995422363
576.9405072,-17.9899997711182
576.9561322,-13.9799995422363
576.9717572,-9.22999954223633
576.9873822,-3.9300000667572
577.0030072,1.38999998569489
577.0186322,6.15000009536743
577.0342572,9.94999980926514
577.0498822,12.8000001907349
577.0655072,14.960000038147
577.0811322,16.7299995422363
577.0967572,18.2000007629395
577.1123822,19.3299999237061
577.1280072,20.0200004577637
577.1436322,20.3299999237061
577.1592572,20.4099998474121
577.1748822,20.5
577.1905072,20.7399997711182
577.2061322,21.1800003051758
577.2217572,21.75
577.2373822,22.2999992370605
577.2530072,22.6700000762939
577.2686322,22.7099990844727
577.2842572,22.3999996185303
577.2998822,21.7900009155273
577.3155072,20.8700008392334
577.3311322,19.6299991607666
577.3467572,18.1299991607666
577.3623822,16.5799999237061
577.3780072,15.2600002288818
577.3936322,14.3500003814697
577.4092572,13.7200002670288
577.4248822,13.1000003814697
577.4405072,12.3999996185303
577.4561322,11.7399997711182
577.4717572,11.3199996948242
577.4873822,11.2200002670288
577.5030072,11.460000038147
577.5186322,12.0500001907349
577.5342572,13.1700000762939
577.5498822,15.0200004577637
577.5655072,17.6299991607666
577.5811322,20.8199996948242
577.5967572,24.3799991607666
577.6123822,28.1200008392334
577.6280072,31.8999996185303
577.6436322,35.5499992370605
577.6592572,38.9000015258789
577.6748822,41.7999992370605
577.6905072,44.1599998474121
577.7061322,45.9300003051758
577.7217572,47.1100006103516
577.7373822,47.7099990844727
577.7530072,47.8499984741211
577.7686322,47.7299995422363
577.7842572,47.5200004577637
577.7998822,47.2999992370605
577.8155072,47.0699996948242
577.8311322,46.7599983215332
577.8467572,46.310001373291
577.8623822,45.6500015258789
577.8780072,44.7000007629395
577.8936322,43.4099998474121
577.9092572,41.7999992370605
577.9248822,40.0699996948242
577.9405072,38.4799995422363
577.9561322,37.1500015258789
577.9717572,35.9799995422363
577.9873822,34.7400016784668
578.0030072,33.3600006103516
578.0186322,31.9899997711182
578.0342572,30.7900009155273
578.0498822,29.8700008392334
578.0655072,29.2000007629395
578.0811322,28.6399993896484
578.0967572,28.0
578.1123822,27.1499996185303
578.1280072,26.7900009155273
578.1436322,26.2700004577637
578.1592572,25.8999996185303
578.1748822,25.9599990844727
578.1905072,26.5900001525879
578.2061322,27.8299999237061
578.2217572,29.7900009155273
578.2373822,32.6399993896484
578.2530072,36.4500007629395
578.2686322,41.0
578.2842572,45.75
578.2998822,50.1199989318848
578.3155072,53.7000007629395
578.3311322,56.4700012207031
578.3467572,58.6199989318848
578.3623822,60.3300018310547
578.3780072,61.5400009155273
578.3936322,62.0900001525879
578.4092572,61.8800010681152
578.4248822,61.0099983215332
578.4405072,59.6699981689453
578.4561322,58.060001373291
578.4717572,56.3400001525879
578.4873822,54.6599998474121
578.5030072,53.1599998474121
578.5186322,51.8699989318848
578.5342572,50.6399993896484
578.5498822,49.2799987792969
578.5655072,47.7200012207031
578.5811322,46.0299987792969
578.5967572,44.3499984741211
578.6123822,42.810001373291
578.6280072,41.3899993896484
578.6436322,39.939998626709
578.6592572,38.2200012207031
578.6748822,35.9799995422363
578.6905072,33.1699981689453
578.7061322,29.8999996185303
578.7217572,26.3299999237061
578.7373822,22.5599994659424
578.7530072,18.75
578.7686322,15.1700000762939
578.7842572,12.3400001525879
578.7998822,10.8000001907349
578.8155072,10.9799995422363
578.8311322,12.9399995803833
578.8467572,16.3600006103516
578.8623822,20.6599998474121
578.8780072,25.2000007629395
578.8936322,29.4699993133545
578.9092572,33.2299995422363
578.9248822,36.4199981689453
578.9405072,39.060001373291
578.9561322,41.25
578.9717572,43.0400009155273
578.9873822,44.5099983215332
579.0030072,45.689998626709
579.0186322,46.6100006103516
579.0342572,47.2400016784668
579.0498822,47.4700012207031
579.0655072,47.0800018310547
579.0811322,45.810001373291
579.0967572,43.6100006103516
579.1123822,40.6699981689453
579.1280072,38.2200012207031
579.1436322,35.5099983215332
579.1592572,32.6399993896484
579.1748822,29.5200004577637
579.1905072,26.0599994659424
579.2061322,22.3099994659424
579.2217572,18.4300003051758
579.2373822,14.5600004196167
579.2530072,10.6300001144409
579.2686322,6.48999977111816
579.2842572,2.21000003814697
579.2998822,-1.96000003814697
579.3155072,-5.78000020980835
579.3311322,-9.14000034332275
579.3467572,-12.1099996566772
579.3623822,-14.8800001144409
579.3780072,-17.6399993896484
579.3936322,-20.5100002288818
579.4092572,-23.4599990844727
579.4248822,-26.1700000762939
579.4405072,-28.0799999237061
579.4561322,-28.6700000762939
579.4717572,-27.8400001525879
579.4873822,-25.8099994659424
579.5030072,-22.8600006103516
579.5186322,-19.0799999237061
579.5342572,-14.4799995422363
579.5498822,-9.30000019073486
579.5655072,-4.23999977111816
579.5811322,-0.140000000596046
579.5967572,2.47000002861023
579.6123822,3.72000002861023
579.6280072,4.03999996185303
579.6436322,3.83999991416931
579.6592572,3.10999989509583
579.6748822,1.63999998569489
579.6905072,-0.689999997615814
579.7061322,-3.77999997138977
579.7217572,-7.30999994277954
579.7373822,-10.9499998092651
579.7530072,-14.460000038147
579.7686322,-17.7099990844727
579.7842572,-20.6100006103516
579.7998822,-23.2399997711182
579.8155072,-25.7900009155273
579.8311322,-28.5200004577637
579.8467572,-31.5
579.8623822,-34.5999984741211
579.8780072,-37.6199989318848
579.8936322,-40.4000015258789
579.9092572,-42.9099998474121
579.9248822,-45.310001373291
579.9405072,-47.939998626709
579.9561322,-51.0999984741211
579.9717572,-54.8400001525879
579.9873822,-58.9500007629395
580.0030072,-63.0800018310547
580.0186322,-66.9400024414063
580.0342572,-70.3199996948242
580.0498822,-73.0
580.0655072,-74.5599975585938
580.0811322,-74.4000015258789
580.0967572,-71.9599990844727
580.1123822,-67.1100006103516
580.1280072,-61.439998626709
580.1436322,-54.4700012207031
580.1592572,-47.2099990844727
580.1748822,-40.3899993896484
580.1905072,-34.3300018310547
580.2061322,-29.1200008392334
580.2217572,-24.8799991607666
580.2373822,-21.7700004577637
580.2530072,-19.7399997711182
580.2686322,-18.5100002288818
580.2842572,-17.6499996185303
580.2998822,-16.7999992370605
580.3155072,-15.8000001907349
580.3311322,-14.8100004196167
580.3467572,-14.2600002288818
580.3623822,-14.5799999237061
580.3780072,-15.8900003433228
580.3936322,-18.0
580.4092572,-20.5
580.4248822,-23.0300006866455
580.4405072,-25.3700008392334
580.4561322,-27.4500007629395
580.4717572,-29.3600006103516
580.4873822,-31.3600006103516
580.5030072,-33.8400001525879
580.5186322,-37.1599998474121
580.5342572,-41.3600006103516
580.5498822,-46.3199996948242
580.5655072,-51.9500007629395
580.5811322,-58.2000007629395
580.5967572,-64.8899993896484
580.6123822,-71.5100021362305
580.6280072,-77.3099975585938
580.6436322,-81.5400009155273
580.6592572,-83.7600021362305
580.6748822,-83.8600006103516
580.6905072,-82.0100021362305
580.7061322,-78.5800018310547
580.7217572,-74.1100006103516
580.7373822,-69.2200012207031
580.7530072,-64.3399963378906
580.7686322,-59.3899993896484
580.7842572,-53.7000007629395
580.7998822,-46.5299987792969
580.8155072,-37.6599998474121
580.8311322,-27.5599994659424
580.8467572,-17.0599994659424
580.8623822,-6.86999988555908
580.8780072,2.46000003814697
580.8936322,10.3599996566772
580.9092572,15.9499998092651
580.9248822,18.5499992370605
580.9405072,18.2900009155273
580.9561322,16.0900001525879
580.9717572,13.1000003814697
580.9873822,10.1700000762939
581.0030072,7.65000009536743
581.0186322,5.46999979019165
581.0342572,3.40000009536743
581.0498822,1.23000001907349
581.0655072,-1.19000005722046
581.0811322,-3.98000001907349
581.0967572,-7.23999977111816
581.1123822,-10.9399995803833
581.1280072,-15.0
581.1436322,-19.0900001525879
581.1592572,-22.9099998474121
581.1748822,-26.3400001525879
581.1905072,-29.3999996185303
581.2061322,-32.3800010681152
581.2217572,-35.7299995422363
581.2373822,-39.8400001525879
581.2530072,-44.75
581.2686322,-49.9799995422363
581.2842572,-54.7400016784668
581.2998822,-58.310001373291
581.3155072,-60.4099998474121
581.3311322,-61.0099983215332
581.3467572,-59.9599990844727
581.3623822,-56.7999992370605
581.3780072,-50.9000015258789
581.3936322,-42.1500015258789
581.4092572,-31.3799991607666
581.4248822,-20.0900001525879
581.4405072,-9.65999984741211
581.4561322,-0.75
581.4717572,6.61999988555908
581.4873822,12.710000038147
581.5030072,17.5599994659424
581.5186322,21.0599994659424
581.5342572,23.2299995422363
581.5498822,24.3700008392334
581.5655072,25.0200004577637
581.5811322,25.6200008392334
581.5967572,26.3999996185303
581.6123822,27.1599998474121
581.6280072,27.3700008392334
581.6436322,26.4899997711182
581.6592572,24.2900009155273
581.6748822,21.0300006866455
581.6905072,17.2000007629395
581.7061322,13.2799997329712
581.7217572,9.63000011444092
581.7373822,6.34999990463257
581.7530072,3.38000011444092
581.7686322,0.419999986886978
581.7842572,-2.96000003814697
581.7998822,-7.15999984741211
581.8155072,-12.2700004577637
581.8311322,-18.1700000762939
581.8467572,-24.8500003814697
581.8623822,-32.310001373291
581.8780072,-40.3699989318848
581.8936322,-48.4000015258789
581.9092572,-55.4700012207031
581.9248822,-60.6500015258789
581.9405072,-63.3800010681152
581.9561322,-63.5099983215332
581.9717572,-61.2299995422363
581.9873822,-56.9700012207031
582.0030072,-51.4099998474121
582.0186322,-45.3199996948242
582.0342572,-39.2700004577637
582.0498822,-33.2400016784668
582.0655072,-26.5799999237061
582.0811322,-18.5100002288818
582.0967572,-8.77000045776367
582.1123822,2.19000005722046
582.1280072,13.6599998474121
582.1436322,24.9699993133545
582.1592572,35.560001373291
582.1748822,44.7299995422363
582.1905072,51.4500007629395
582.2061322,54.8600006103516
582.2217572,54.9500007629395
582.2373822,52.6199989318848
582.2530072,49.0900001525879
582.2686322,45.3699989318848
582.2842572,42.0099983215332
582.2998822,39.0999984741211
582.3155072,36.4900016784668
582.3311322,33.8400001525879
582.3467572,30.7399997711182
582.3623822,26.9099998474121
582.3780072,22.3199996948242
582.3936322,17.1200008392334
582.4092572,11.4099998474121
582.4248822,5.23000001907349
582.4405072,-1.26999998092651
582.4561322,-7.71000003814697
582.4717572,-13.5600004196167
582.4873822,-18.4899997711182
582.5030072,-22.6800003051758
582.5186322,-26.5
582.5342572,-30.0900001525879
582.5498822,-33.25
582.5655072,-35.7400016784668
582.5811322,-37.4700012207031
582.5967572,-38.4300003051758
582.6123822,-38.1100006103516
582.6280072,-35.2799987792969
582.6436322,-28.6800003051758
582.6592572,-18.1000003814697
582.6748822,-4.28000020980835
582.6905072,11.8400001525879
582.7061322,29.5400009155273
582.7217572,47.9500007629395
