Time(s),Value(%)
1081.0123722,-26.3899993896484
1081.0279972,-24.5499992370605
1081.0436222,-22.75
1081.0592472,-21.2600002288818
1081.0748722,-19.7399997711182
1081.0904972,-17.7800006866455
1081.1061222,-15.3999996185303
1081.1217472,-13.0699996948242
1081.1373722,-11.2600002288818
1081.1529972,-10.1599998474121
1081.1686222,-9.80000019073486
1081.1842472,-10.0299997329712
1081.1998722,-10.4700002670288
1081.2154972,-10.5500001907349
1081.2311222,-9.90999984741211
1081.2467472,-8.75
1081.2623722,-7.67999982833862
1081.2779972,-7.32000017166138
1081.2936222,-7.69999980926514
1081.3092472,-8.32999992370605
1081.3248722,-8.52999973297119
1081.3404972,-7.92000007629395
1081.3561222,-6.59999990463257
1081.3717472,-5.01000022888184
1081.3873722,-3.46000003814697
1081.4029972,-1.97000002861023
1081.4186222,-0.159999996423721
1081.4342472,2.66000008583069
1081.4498722,6.98000001907349
1081.4654972,12.7600002288818
1081.4811222,19.4899997711182
1081.4967472,26.3099994659424
1081.5123722,32.2400016784668
1081.5279972,36.3800010681152
1081.5436222,38.3800010681152
1081.5592472,38.6100006103516
1081.5748722,37.75
1081.5904972,36.4700012207031
1081.6061222,35.1699981689453
1081.6217472,33.7999992370605
1081.6373722,31.75
1081.6529972,28.3400001525879
1081.6686222,23.4799995422363
1081.6842472,17.7000007629395
1081.6998722,11.7700004577637
1081.7154972,6.34000015258789
1081.7311222,1.75
1081.7467472,-1.89999997615814
1081.7623722,-4.69999980926514
1081.7779972,-6.80000019073486
1081.7936222,-8.4399995803833
1081.8092472,-9.89000034332275
1081.8248722,-11.1999998092651
1081.8404972,-12.1700000762939
1081.8561222,-12.5600004196167
1081.8717472,-12.3699998855591
1081.8873722,-12.0200004577637
1081.9029972,-11.8999996185303
1081.9186222,-12.039999961853
1081.9342472,-12.1599998474121
1081.9498722,-12.0799999237061
1081.9654972,-11.7700004577637
1081.9811222,-11.1800003051758
1081.9967472,-10.1700000762939
1082.0123722,-8.8100004196167
1082.0279972,-7.65000009536743
1082.0436222,-7.28000020980835
1082.0592472,-7.59999990463257
1082.0748722,-7.8899998664856
1082.0904972,-7.6100001335144
1082.1061222,-6.94000005722046
1082.1217472,-6.53000020980835
1082.1373722,-6.82999992370605
1082.1529972,-7.84999990463257
1082.1686222,-9.32999992370605
1082.1842472,-10.9300003051758
1082.1998722,-12.1599998474121
1082.2154972,-12.2399997711182
1082.2311222,-10.5699996948242
1082.2467472,-7.21999979019165
1082.2623722,-3.22000002861023
1082.2779972,-0.0299999993294477
1082.2936222,1.27999997138977
1082.3092472,0.810000002384186
1082.3248722,-0.189999997615814
1082.3404972,0.219999998807907
1082.3561222,3.63000011444092
1082.3717472,10.0799999237061
1082.3873722,18.0499992370605
1082.4029972,25.4599990844727
1082.4186222,30.6900005340576
1082.4342472,32.9700012207031
1082.4498722,32.2999992370605
1082.4654972,29.3099994659424
1082.4811222,25.2000007629395
1082.4967472,21.2600002288818
1082.5123722,18.4300003051758
1082.5279972,17.0300006866455
1082.5436222,16.5900001525879
1082.5592472,15.9799995422363
1082.5748722,13.9700002670288
1082.5904972,9.93000030517578
1082.6061222,4.19000005722046
1082.6217472,-2.01999998092651
1082.6373722,-7.13000011444092
1082.6529972,-10.0200004577637
1082.6686222,-10.6800003051758
1082.6842472,-10.0600004196167
1082.6998722,-9.32999992370605
1082.7154972,-9.19999980926514
1082.7311222,-9.71000003814697
1082.7467472,-10.460000038147
1082.7623722,-10.8500003814697
1082.7779972,-10.5699996948242
1082.7936222,-9.9399995803833
1082.8092472,-9.47999954223633
1082.8248722,-9.47000026702881
1082.8404972,-9.67000007629395
1082.8561222,-9.67000007629395
1082.8717472,-9.1899995803833
1082.8873722,-8.32999992370605
1082.9029972,-7.40999984741211
1082.9186222,-6.69000005722046
1082.9342472,-6.40000009536743
1082.9498722,-6.82000017166138
1082.9654972,-8.14999961853027
1082.9811222,-10.0799999237061
1082.9967472,-11.6999998092651
1083.0123722,-12.1099996566772
1083.0279972,-11.1899995803833
1083.0436222,-9.65999984741211
1083.0592472,-8.46000003814697
1083.0748722,-8.06999969482422
1083.0904972,-8.22000026702881
1083.1061222,-8.38000011444092
1083.1217472,-8.27999973297119
1083.1373722,-7.90999984741211
1083.1529972,-7.25
1083.1686222,-6.19999980926514
1083.1842472,-4.92000007629395
1083.1998722,-3.75
1083.2154972,-2.80999994277954
1083.2311222,-1.70000004768372
1083.2467472,0.230000004172325
1083.2623722,3.49000000953674
1083.2779972,8.10999965667725
1083.2936222,13.5799999237061
1083.3092472,19.1900005340576
1083.3248722,24.2700004577637
1083.3404972,28.2199993133545
1083.3561222,30.3199996948242
1083.3717472,30.1299991607666
1083.3873722,27.8799991607666
1083.4029972,24.2900009155273
1083.4186222,20.1399993896484
1083.4342472,16.0599994659424
1083.4498722,12.5
1083.4654972,9.65999984741211
1083.4811222,7.34999990463257
1083.4967472,5.03000020980835
1083.5123722,2.16000008583069
1083.5279972,-1.36000001430511
1083.5436222,-5.03000020980835
1083.5592472,-8.0
1083.5748722,-9.76000022888184
1083.5904972,-10.539999961853
1083.6061222,-10.8299999237061
1083.6217472,-10.8900003433228
1083.6373722,-10.6499996185303
1083.6529972,-10.1099996566772
1083.6686222,-9.48999977111816
1083.6842472,-9.1899995803833
1083.6998722,-9.56999969482422
1083.7154972,-10.6099996566772
1083.7311222,-11.7200002670288
1083.7467472,-12.1099996566772
1083.7623722,-11.5100002288818
1083.7779972,-10.3299999237061
1083.7936222,-9.18000030517578
1083.8092472,-8.38000011444092
1083.8248722,-7.92999982833862
1083.8404972,-7.76999998092651
1083.8561222,-7.82000017166138
1083.8717472,-8.03999996185303
1083.8873722,-8.26000022888184
1083.9029972,-8.11999988555908
1083.9186222,-7.3899998664856
1083.9342472,-6.32999992370605
1083.9498722,-5.65000009536743
1083.9654972,-5.90999984741211
1083.9811222,-7.01000022888184
1083.9967472,-8.21000003814697
1084.0123722,-8.76000022888184
1084.0279972,-8.5
1084.0436222,-7.75
1084.0592472,-6.8600001335144
1084.0748722,-5.82999992370605
1084.0904972,-4.42999982833862
1084.1061222,-2.59999990463257
1084.1217472,-0.589999973773956
1084.1373722,1.12000000476837
1084.1529972,2.28999996185303
1084.1686222,3.08999991416931
1084.1842472,4.13000011444092
1084.1998722,6.11999988555908
1084.2154972,9.32999992370605
1084.2311222,13.2299995422363
1084.2467472,16.7199993133545
1084.2623722,18.8099994659424
1084.2779972,19.1399993896484
1084.2936222,17.9300003051758
1084.3092472,15.7299995422363
1084.3248722,13.3299999237061
1084.3404972,11.6499996185303
1084.3561222,11.1999998092651
1084.3717472,11.6000003814697
1084.3873722,11.8500003814697
1084.4029972,11.1000003814697
1084.4186222,9.26000022888184
1084.4342472,6.8600001335144
1084.4498722,4.34999990463257
1084.4654972,1.66999995708466
1084.4811222,-1.51999998092651
1084.4967472,-5.28000020980835
1084.5123722,-8.96000003814697
1084.5279972,-11.6099996566772
1084.5436222,-12.6499996185303
1084.5592472,-12.2600002288818
1084.5748722,-11.0799999237061
1084.5904972,-9.85000038146973
1084.6061222,-9.07999992370605
1084.6217472,-8.89000034332275
1084.6373722,-9.07999992370605
1084.6529972,-9.36999988555908
1084.6686222,-9.48999977111816
1084.6842472,-9.30000019073486
1084.6998722,-8.86999988555908
1084.7154972,-8.36999988555908
1084.7311222,-7.90999984741211
1084.7467472,-7.59000015258789
1084.7623722,-7.46000003814697
1084.7779972,-7.38000011444092
1084.7936222,-7.05000019073486
1084.8092472,-6.34000015258789
1084.8248722,-5.44999980926514
1084.8404972,-4.6100001335144
1084.8561222,-3.90000009536743
1084.8717472,-3.27999997138977
1084.8873722,-2.92000007629395
1084.9029972,-3.26999998092651
1084.9186222,-4.76999998092651
1084.9342472,-7.15000009536743
1084.9498722,-9.34000015258789
1084.9654972,-10.1999998092651
1084.9811222,-9.22999954223633
1084.9967472,-6.84999990463257
1085.0123722,-3.9300000667572
1085.0279972,-1.3400000333786
1085.0436222,0.25
1085.0592472,0.600000023841858
1085.0748722,0.0099999997764825
1085.0904972,-0.670000016689301
1085.1061222,-0.430000007152557
1085.1217472,1.57000005245209
1085.1373722,5.78000020980835
1085.1529972,11.8800001144409
1085.1686222,18.6700000762939
1085.1842472,24.4400005340576
1085.1998722,27.7700004577637
1085.2154972,28.1599998474121
1085.2311222,26.1200008392334
1085.2467472,22.8700008392334
1085.2623722,19.7199993133545
1085.2779972,17.3899993896484
1085.2936222,15.9099998474121
1085.3092472,14.8199996948242
1085.3248722,13.4200000762939
1085.3404972,10.9200000762939
1085.3561222,6.78000020980835
1085.3717472,1.0900000333786
1085.3873722,-5.28999996185303
1085.4029972,-11.0600004196167
1085.4186222,-14.8900003433228
1085.4342472,-16.2000007629395
1085.4498722,-15.3699998855591
1085.4654972,-13.3400001525879
1085.4811222,-10.8299999237061
1085.4967472,-8.22999954223633
1085.5123722,-5.76999998092651
1085.5279972,-3.71000003814697
1085.5436222,-2.10999989509583
1085.5592472,-0.720000028610229
1085.5748722,0.5
1085.5904972,1.22000002861023
1085.6061222,0.939999997615814
1085.6217472,-0.349999994039536
1085.6373722,-2.03999996185303
1085.6529972,-3.25999999046326
1085.6686222,-3.47000002861023
1085.6842472,-2.69000005722046
1085.6998722,-1.3400000333786
1085.7154972,0.0099999997764825
1085.7311222,0.790000021457672
1085.7467472,0.610000014305115
1085.7623722,-0.449999988079071
1085.7779972,-1.89999997615814
1085.7936222,-3.09999990463257
1085.8092472,-3.73000001907349
1085.8248722,-3.89000010490417
1085.8404972,-3.92000007629395
1085.8561222,-4.11999988555908
1085.8717472,-4.51000022888184
1085.8873722,-4.96000003814697
1085.9029972,-5.32000017166138
1085.9186222,-5.32999992370605
1085.9342472,-4.82000017166138
1085.9498722,-4.01999998092651
1085.9654972,-3.38000011444092
1085.9811222,-2.85999989509583
1085.9967472,-1.72000002861023
1086.0123722,0.649999976158142
1086.0279972,4.05999994277954
1086.0436222,7.73000001907349
1086.0592472,10.9899997711182
1086.0748722,13.5
1086.0904972,15.0900001525879
1086.1061222,15.8500003814697
1086.1217472,16.25
1086.1373722,16.9599990844727
1086.1529972,18.1900005340576
1086.1686222,19.4200000762939
1086.1842472,19.6700000762939
1086.1998722,18.0200004577637
1086.2154972,14.0900001525879
1086.2311222,8.27000045776367
1086.2467472,1.63999998569489
1086.2623722,-4.44000005722046
1086.2779972,-8.97000026702881
1086.2936222,-11.6199998855591
1086.3092472,-12.6499996185303
1086.3248722,-12.5900001525879
1086.3404972,-12.1000003814697
1086.3561222,-11.7700004577637
1086.3717472,-11.75
1086.3873722,-11.6300001144409
1086.4029972,-10.9899997711182
1086.4186222,-9.88000011444092
1086.4342472,-8.76000022888184
1086.4498722,-8.05000019073486
1086.4654972,-7.96999979019165
1086.4811222,-8.3100004196167
1086.4967472,-8.68000030517578
1086.5123722,-8.85000038146973
1086.5279972,-8.97999954223633
1086.5436222,-9.34000015258789
1086.5592472,-9.97999954223633
1086.5748722,-10.6499996185303
1086.5904972,-10.8299999237061
1086.6061222,-10.1499996185303
1086.6217472,-8.64999961853027
1086.6373722,-6.69000005722046
1086.6529972,-4.69999980926514
1086.6686222,-3.11999988555908
1086.6842472,-2.38000011444092
1086.6998722,-2.53999996185303
1086.7154972,-3.08999991416931
1086.7311222,-3.19000005722046
1086.7467472,-2.36999988555908
1086.7623722,-0.769999980926514
1086.7779972,1.12999999523163
1086.7936222,2.77999997138977
1086.8092472,3.74000000953674
1086.8248722,3.89000010490417
1086.8404972,3.47000002861023
1086.8561222,2.89000010490417
1086.8717472,2.46000003814697
1086.8873722,2.47000002861023
1086.9029972,3.25999999046326
1086.9186222,5.25
1086.9342472,8.64000034332275
1086.9498722,13.1300001144409
1086.9654972,17.8799991607666
1086.9811222,21.8099994659424
1086.9967472,24.0900001525879
1087.0123722,24.3999996185303
1087.0279972,23.0
1087.0436222,20.6900005340576
1087.0592472,18.6499996185303
1087.0748722,17.7800006866455
1087.0904972,18.2299995422363
1087.1061222,19.3400001525879
1087.1217472,20.0400009155273
1087.1373722,19.3899993896484
1087.1529972,16.9200000762939
1087.1686222,12.6700000762939
1087.1842472,7.09000015258789
1087.1998722,0.939999997615814
1087.2154972,-4.82999992370605
1087.2311222,-9.47000026702881
1087.2467472,-12.5500001907349
1087.2623722,-14.1300001144409
1087.2779972,-14.75
1087.2936222,-15.1800003051758
1087.3092472,-15.9899997711182
1087.3248722,-17.25
1087.3404972,-18.4400005340576
1087.3561222,-18.8799991607666
1087.3717472,-18.2600002288818
1087.3873722,-16.7299995422363
1087.4029972,-14.710000038147
1087.4186222,-12.6000003814697
1087.4342472,-10.6999998092651
1087.4498722,-9.17000007629395
1087.4654972,-8.09000015258789
1087.4811222,-7.34999990463257
1087.4967472,-6.65999984741211
1087.5123722,-5.6399998664856
1087.5279972,-4.15000009536743
1087.5436222,-2.5699999332428
1087.5592472,-1.62000000476837
1087.5748722,-1.94000005722046
1087.5904972,-3.75
1087.6061222,-6.48999977111816
1087.6217472,-9.0
1087.6373722,-10.0299997329712
1087.6529972,-9.10000038146973
1087.6686222,-6.80000019073486
1087.6842472,-4.15000009536743
1087.6998722,-1.76999998092651
1087.7154972,0.0700000002980232
1087.7311222,1.21000003814697
1087.7467472,1.5
1087.7623722,1.07000005245209
1087.7779972,0.159999996423721
1087.7936222,-1.0900000333786
1087.8092472,-2.60999989509583
1087.8248722,-3.91000008583069
1087.8404972,-4.13000011444092
1087.8561222,-2.53999996185303
1087.8717472,0.839999973773956
1087.8873722,5.26000022888184
1087.9029972,9.71000003814697
1087.9186222,13.4799995422363
1087.9342472,16.3400001525879
1087.9498722,18.4200000762939
1087.9654972,19.9899997711182
1087.9811222,21.2000007629395
1087.9967472,22.0799999237061
1088.0123722,22.6000003814697
1088.0279972,22.8400001525879
1088.0436222,23.0100002288818
1088.0592472,22.9699993133545
1088.0748722,22.1399993896484
1088.0904972,19.7999992370605
1088.1061222,15.6800003051758
1088.1217472,10.210000038147
1088.1373722,4.23000001907349
1088.1529972,-1.27999997138977
1088.1686222,-5.42999982833862
1088.1842472,-7.6100001335144
1088.1998722,-7.67000007629395
1088.2154972,-6.05999994277954
1088.2311222,-3.99000000953674
1088.2467472,-2.95000004768372
1088.2623722,-3.89000010490417
1088.2779972,-6.67999982833862
1088.2936222,-10.3800001144409
1088.3092472,-13.9200000762939
1088.3248722,-16.5900001525879
1088.3404972,-18.0100002288818
1088.3561222,-18.0400009155273
1088.3717472,-16.8099994659424
1088.3873722,-14.7299995422363
1088.4029972,-12.3000001907349
1088.4186222,-9.97000026702881
1088.4342472,-8.13000011444092
1088.4498722,-7.15999984741211
1088.4654972,-7.1100001335144
1088.4811222,-7.46999979019165
1088.4967472,-7.48999977111816
1088.5123722,-6.94000005722046
1088.5279972,-6.23999977111816
1088.5436222,-5.96999979019165
1088.5592472,-6.40999984741211
1088.5748722,-7.51000022888184
1088.5904972,-9.01000022888184
1088.6061222,-10.4700002670288
1088.6217472,-11.4300003051758
1088.6373722,-11.75
1088.6529972,-11.6999998092651
1088.6686222,-11.6300001144409
1088.6842472,-11.5100002288818
1088.6998722,-11.0100002288818
1088.7154972,-9.86999988555908
1088.7311222,-8.05000019073486
1088.7467472,-5.32000017166138
1088.7623722,-1.26999998092651
1088.7779972,4.15000009536743
1088.7936222,10.3000001907349
1088.8092472,16.0400009155273
1088.8248722,20.4699993133545
1088.8404972,23.2000007629395
1088.8561222,24.5900001525879
1088.8717472,25.4899997711182
1088.8873722,26.5599994659424
1088.9029972,27.6800003051758
1088.9186222,28.25
1088.9342472,27.8500003814697
1088.9498722,26.4400005340576
1088.9654972,24.1200008392334
1088.9811222,20.9300003051758
1088.9967472,16.8400001525879
1089.0123722,11.8699998855591
1089.0279972,6.28000020980835
1089.0436222,0.829999983310699
1089.0592472,-3.38000011444092
1089.0748722,-5.69999980926514
1089.0904972,-6.25
1089.1061222,-5.82999992370605
1089.1217472,-5.55999994277954
1089.1373722,-6.28999996185303
1089.1529972,-8.10000038146973
1089.1686222,-10.3299999237061
1089.1842472,-12.2399997711182
1089.1998722,-13.4899997711182
1089.2154972,-14.1400003433228
1089.2311222,-14.289999961853
1089.2467472,-13.9399995803833
1089.2623722,-13.3299999237061
1089.2779972,-13.0
1089.2936222,-13.4799995422363
1089.3092472,-14.9200000762939
1089.3248722,-16.8999996185303
1089.3404972,-18.6800003051758
1089.3561222,-19.6299991607666
1089.3717472,-19.5900001525879
1089.3873722,-18.9099998474121
1089.4029972,-18.2199993133545
1089.4186222,-17.7399997711182
1089.4342472,-17.0599994659424
1089.4498722,-15.5900001525879
1089.4654972,-13.210000038147
1089.4811222,-10.4099998474121
1089.4967472,-7.8600001335144
1089.5123722,-6.03999996185303
1089.5279972,-4.98000001907349
1089.5436222,-4.30000019073486
1089.5592472,-3.51999998092651
1089.5748722,-2.51999998092651
1089.5904972,-1.50999999046326
1089.6061222,-0.579999983310699
1089.6217472,0.430000007152557
1089.6373722,1.99000000953674
1089.6529972,4.76000022888184
1089.6686222,9.32999992370605
1089.6842472,15.7799997329712
1089.6998722,23.4300003051758
1089.7154972,30.9500007629395
1089.7311222,36.9700012207031
1089.7467472,40.5499992370605
1089.7623722,41.4700012207031
1089.7779972,40.2099990844727
1089.7936222,37.689998626709
1089.8092472,34.9900016784668
1089.8248722,32.8899993896484
1089.8404972,31.5
1089.8561222,30.25
1089.8717472,28.4099998474121
1089.8873722,25.6200008392334
1089.9029972,21.9599990844727
1089.9186222,17.7700004577637
1089.9342472,13.4300003051758
1089.9498722,9.14999961853027
1089.9654972,5.05000019073486
1089.9811222,1.22000002861023
1089.9967472,-2.15000009536743
1090.0123722,-5.03000020980835
1090.0279972,-7.59000015258789
1090.0436222,-10.1700000762939
1090.0592472,-13.1099996566772
1090.0748722,-16.5400009155273
1090.0904972,-20.1800003051758
1090.1061222,-23.2800006866455
1090.1217472,-24.9699993133545
1090.1373722,-24.7399997711182
1090.1529972,-22.6200008392334
1090.1686222,-19.3400001525879
1090.1842472,-16.0699996948242
1090.1998722,-13.8100004196167
1090.2154972,-12.9799995422363
1090.2311222,-13.3800001144409
1090.2467472,-14.5600004196167
1090.2623722,-16.1000003814697
1090.2779972,-17.6200008392334
1090.2936222,-18.6200008392334
1090.3092472,-18.6599998474121
1090.3248722,-17.4400005340576
1090.3404972,-14.8900003433228
1090.3561222,-11.5
1090.3717472,-8.22000026702881
1090.3873722,-5.86999988555908
1090.4029972,-4.40999984741211
1090.4186222,-2.99000000953674
1090.4342472,-0.769999980926514
1090.4498722,2.16000008583069
1090.4654972,4.84999990463257
1090.4811222,6.51999998092651
1090.4967472,7.23999977111816
1090.5123722,7.71000003814697
1090.5279972,8.56999969482422
1090.5436222,10.0600004196167
1090.5592472,12.4200000762939
1090.5748722,16.2199993133545
1090.5904972,22.4200000762939
1090.6061222,31.3500003814697
1090.6217472,41.6599998474121
1090.6373722,50.7599983215332
1090.6529972,56.310001373291
1090.6686222,57.5200004577637
1090.6842472,55.1599998474121
1090.6998722,50.6699981689453
1090.7154972,45.2200012207031
1090.7311222,39.4199981689453
1090.7467472,33.4599990844727
1090.7623722,27.3999996185303
1090.7779972,21.1200008392334
1090.7936222,14.0699996948242
1090.8092472,5.36999988555908
1090.8248722,-5.76000022888184
1090.8404972,-19.3799991607666
1090.8561222,-34.2999992370605
1090.8717472,-48.1599998474121
1090.8873722,-58.4300003051758
1090.9029972,-63.7200012207031
1090.9186222,-64.4199981689453
1090.9342472,-62.189998626709
1090.9498722,-58.9500007629395
1090.9654972,-56.0999984741211
1090.9811222,-54.0900001525879
1090.9967472,-52.439998626709
1091.0123722,-50.5499992370605
1091.0279972,-48.2700004577637
1091.0436222,-46.0299987792969
1091.0592472,-44.439998626709
1091.0748722,-43.6800003051758
1091.0904972,-43.3300018310547
1091.1061222,-42.6500015258789
1091.1217472,-41.1100006103516
1091.1373722,-38.4799995422363
1091.1529972,-34.8899993896484
1091.1686222,-30.7700004577637
1091.1842472,-26.7299995422363
1091.1998722,-23.2399997711182
1091.2154972,-20.3899993896484
1091.2311222,-17.8899993896484
1091.2467472,-15.3400001525879
1091.2623722,-12.539999961853
1091.2779972,-9.59000015258789
1091.2936222,-6.57999992370605
1091.3092472,-3.53999996185303
1091.3248722,-0.680000007152557
1091.3404972,1.71000003814697
1091.3561222,3.70000004768372
