Time(s),Value(%)
1024.0022828,-27.9699993133545
1024.0179078,-32.4099998474121
1024.0335328,-36.8300018310547
1024.0491578,-40.8600006103516
1024.0647828,-44.2099990844727
1024.0804078,-46.8300018310547
1024.0960328,-48.9099998474121
1024.1116578,-50.5999984741211
1024.1272828,-51.9700012207031
1024.1429078,-53.0699996948242
1024.1585328,-53.9599990844727
1024.1741578,-54.7299995422363
1024.1897828,-55.3899993896484
1024.2054078,-55.8499984741211
1024.2210328,-55.9900016784668
1024.2366578,-55.7999992370605
1024.2522828,-55.3899993896484
1024.2679078,-55.0
1024.2835328,-54.8300018310547
1024.2991578,-54.9700012207031
1024.3147828,-55.4199981689453
1024.3304078,-56.1399993896484
1024.3460328,-57.0999984741211
1024.3616578,-58.3600006103516
1024.3772828,-59.7900009155273
1024.3929078,-61.2400016784668
1024.4085328,-62.5900001525879
1024.4241578,-63.7200012207031
1024.4397828,-64.6600036621094
1024.4554078,-65.4499969482422
1024.4710328,-66.1699981689453
1024.4866578,-66.8600006103516
1024.5022828,-67.5199966430664
1024.5179078,-68.1399993896484
1024.5335328,-68.7099990844727
1024.5491578,-69.2799987792969
1024.5647828,-69.870002746582
1024.5804078,-70.5
1024.5960328,-71.1399993896484
1024.6116578,-71.7200012207031
1024.6272828,-72.2099990844727
1024.6429078,-72.620002746582
1024.6585328,-73.0
1024.6741578,-73.3600006103516
1024.6897828,-73.6999969482422
1024.7054078,-73.9899978637695
1024.7210328,-74.1999969482422
1024.7366578,-74.3399963378906
1024.7522828,-74.4400024414063
1024.7679078,-74.5400009155273
1024.7835328,-74.6699981689453
1024.7991578,-74.8399963378906
1024.8147828,-75.0500030517578
1024.8304078,-75.3000030517578
1024.8460328,-75.5999984741211
1024.8616578,-75.9199981689453
1024.8772828,-76.2099990844727
1024.8929078,-76.3499984741211
1024.9085328,-76.1800003051758
1024.9241578,-75.5400009155273
1024.9397828,-74.3499984741211
1024.9554078,-72.6500015258789
1024.9710328,-70.5999984741211
1024.9866578,-68.4100036621094
1025.0022828,-66.25
1025.0179078,-64.2399978637695
1025.0335328,-62.4199981689453
1025.0491578,-60.7999992370605
1025.0647828,-59.3699989318848
1025.0804078,-58.1199989318848
1025.0960328,-57.0299987792969
1025.1116578,-56.1500015258789
1025.1272828,-55.5299987792969
1025.1429078,-55.1699981689453
1025.1585328,-55.0200004577637
1025.1741578,-55.0800018310547
1025.1897828,-55.3300018310547
1025.2054078,-55.7400016784668
1025.2210328,-56.2000007629395
1025.2366578,-56.5400009155273
1025.2522828,-56.5699996948242
1025.2679078,-56.2000007629395
1025.2835328,-55.4599990844727
1025.2991578,-54.4799995422363
1025.3147828,-53.4099998474121
1025.3304078,-52.3300018310547
1025.3460328,-51.2799987792969
1025.3616578,-50.4300003051758
1025.3772828,-49.5900001525879
1025.3929078,-48.7999992370605
1025.4085328,-48.060001373291
1025.4241578,-47.3899993896484
1025.4397828,-46.75
1025.4554078,-46.1199989318848
1025.4710328,-45.4700012207031
1025.4866578,-44.810001373291
1025.5022828,-44.1599998474121
1025.5179078,-43.5400009155273
1025.5335328,-42.939998626709
1025.5491578,-42.3300018310547
1025.5647828,-41.7200012207031
1025.5804078,-41.0699996948242
1025.5960328,-40.3600006103516
1025.6116578,-39.5400009155273
1025.6272828,-38.560001373291
1025.6429078,-37.3300018310547
1025.6585328,-35.7999992370605
1025.6741578,-34.0200004577637
1025.6897828,-32.0900001525879
1025.7054078,-30.1200008392334
1025.7210328,-28.2199993133545
1025.7366578,-26.3600006103516
1025.7522828,-24.3199996948242
1025.7679078,-21.6100006103516
1025.7835328,-17.7800006866455
1025.7991578,-12.7299995422363
1025.8147828,-6.76000022888184
1025.8304078,-0.230000004172325
1025.8460328,6.53000020980835
1025.8616578,13.2399997711182
1025.8772828,19.4300003051758
1025.8929078,24.4099998474121
1025.9085328,27.6700000762939
1025.9241578,29.2600002288818
1025.9397828,29.6800003051758
1025.9554078,29.4599990844727
1025.9710328,28.9099998474121
1025.9866578,28.1399993896484
1026.0022828,27.2199993133545
1026.0179078,26.2000007629395
1026.0335328,25.1900005340576
1026.0491578,24.3199996948242
1026.0647828,23.6900005340576
1026.0804078,23.3199996948242
1026.0960328,23.1700000762939
1026.1116578,23.1599998474121
1026.1272828,23.25
1026.1429078,23.3600006103516
1026.1585328,23.3600006103516
1026.1741578,22.9699993133545
1026.1897828,21.9500007629395
1026.2054078,20.2299995422363
1026.2210328,17.9400005340576
1026.2366578,15.3199996948242
1026.2522828,12.6099996566772
1026.2679078,9.98999977111816
1026.2835328,7.53999996185303
1026.2991578,5.28000020980835
1026.3147828,3.17000007629395
1026.3304078,1.0900000333786
1026.3460328,-0.990000009536743
1026.3616578,-3.1800000667572
1026.3772828,-5.44000005722046
1026.3929078,-7.76999998092651
1026.4085328,-10.1499996185303
1026.4241578,-12.5600004196167
1026.4397828,-14.8699998855591
1026.4554078,-16.8799991607666
1026.4710328,-18.3199996948242
1026.4866578,-18.8999996185303
1026.5022828,-18.4200000762939
1026.5179078,-16.9500007629395
1026.5335328,-14.75
1026.5491578,-12.1999998092651
1026.5647828,-9.64000034332275
1026.5804078,-7.23000001907349
1026.5960328,-4.8600001335144
1026.6116578,-2.10999989509583
1026.6272828,1.45000004768372
1026.6429078,5.94999980926514
1026.6585328,11.1800003051758
1026.6741578,16.8299999237061
1026.6897828,22.6299991607666
1026.7054078,28.2999992370605
1026.7210328,33.3600006103516
1026.7366578,37.1199989318848
1026.7522828,39.0499992370605
1026.7679078,39.2799987792969
1026.7835328,38.4799995422363
1026.7991578,37.3400001525879
1026.8147828,36.25
1026.8304078,35.2599983215332
1026.8460328,34.2900009155273
1026.8616578,33.2799987792969
1026.8772828,32.3199996948242
1026.8929078,31.6800003051758
1026.9085328,31.6499996185303
1026.9241578,32.3199996948242
1026.9397828,33.6800003051758
1026.9554078,35.7400016784668
1026.9710328,38.5
1026.9866578,41.7999992370605
1027.0022828,45.1100006103516
1027.0179078,47.6500015258789
1027.0335328,48.8699989318848
1027.0491578,48.8699989318848
1027.0647828,48.1800003051758
1027.0804078,47.189998626709
1027.0960328,45.9500007629395
1027.1116578,44.3600006103516
1027.1272828,42.3699989318848
1027.1429078,40.0900001525879
1027.1585328,37.6500015258789
1027.1741578,35.1500015258789
1027.1897828,32.5999984741211
1027.2054078,30.0200004577637
1027.2210328,27.5
1027.2366578,25.2199993133545
1027.2522828,23.3400001525879
1027.2679078,21.8899993896484
1027.2835328,20.6399993896484
1027.2991578,19.2399997711182
1027.3147828,17.5499992370605
1027.3304078,15.9099998474121
1027.3460328,14.8599996566772
1027.3616578,15.0699996948242
1027.3772828,15.9099998474121
1027.3929078,16.9500007629395
1027.4085328,17.7700004577637
1027.4241578,18.1599998474121
1027.4397828,18.1499996185303
1027.4554078,17.9099998474121
1027.4710328,17.6100006103516
1027.4866578,17.3600006103516
1027.5022828,17.2999992370605
1027.5179078,17.6100006103516
1027.5335328,18.4599990844727
1027.5491578,19.8099994659424
1027.5647828,21.1700000762939
1027.5804078,21.6599998474121
1027.5960328,20.6499996185303
1027.6116578,18.2299995422363
1027.6272828,15.0600004196167
1027.6429078,11.8199996948242
1027.6585328,8.89000034332275
1027.6741578,6.46999979019165
1027.6897828,4.67999982833862
1027.7054078,3.47000002861023
1027.7210328,2.48000001907349
1027.7366578,1.13999998569489
1027.7522828,-0.980000019073486
1027.7679078,-3.91000008583069
1027.7835328,-7.34000015258789
1027.7991578,-11.039999961853
1027.8147828,-14.9499998092651
1027.8304078,-19.0499992370605
1027.8460328,-23.2900009155273
1027.8616578,-27.5300006866455
1027.8772828,-31.6499996185303
1027.8929078,-35.6399993896484
1027.9085328,-39.560001373291
1027.9241578,-43.4199981689453
1027.9397828,-47.2000007629395
1027.9554078,-50.810001373291
1027.9710328,-54.1699981689453
1027.9866578,-57.2299995422363
1028.0022828,-60.0299987792969
1028.0179078,-62.6199989318848
1028.0335328,-64.9599990844727
1028.0491578,-66.8199996948242
1028.0647828,-67.9199981689453
1028.0804078,-68.1500015258789
1028.0960328,-67.6699981689453
1028.1116578,-66.7699966430664
1028.1272828,-65.7699966430664
1028.1429078,-64.7600021362305
1028.1585328,-63.4900016784668
1028.1741578,-61.3300018310547
1028.1897828,-57.6699981689453
1028.2054078,-52.3699989318848
1028.2210328,-45.9099998474121
1028.2366578,-38.9799995422363
1028.2522828,-32.189998626709
1028.2679078,-25.9799995422363
1028.2835328,-20.8500003814697
1028.2991578,-17.5599994659424
1028.3147828,-16.7800006866455
1028.3304078,-18.5900001525879
1028.3460328,-22.3700008392334
1028.3616578,-27.4099998474121
1028.3772828,-32.5800018310547
1028.3929078,-37.2599983215332
1028.4085328,-41.2700004577637
1028.4241578,-44.7000007629395
1028.4397828,-47.7200012207031
1028.4554078,-50.4099998474121
1028.4710328,-52.7700004577637
1028.4866578,-54.7900009155273
1028.5022828,-56.5699996948242
1028.5179078,-58.3499984741211
1028.5335328,-60.3800010681152
1028.5491578,-62.75
1028.5647828,-65.3000030517578
1028.5804078,-67.75
1028.5960328,-69.9599990844727
1028.6116578,-72.0100021362305
1028.6272828,-74.0199966430664
1028.6429078,-75.9100036621094
1028.6585328,-77.4199981689453
1028.6741578,-78.2900009155273
1028.6897828,-78.4800033569336
1028.7054078,-78.0699996948242
1028.7210328,-77.1699981689453
1028.7366578,-75.7099990844727
1028.7522828,-73.5599975585938
1028.7679078,-70.6500015258789
1028.7835328,-66.9499969482422
1028.7991578,-62.3400001525879
1028.8147828,-56.7200012207031
1028.8304078,-50.1800003051758
1028.8460328,-43.0900001525879
1028.8616578,-35.7900009155273
1028.8772828,-28.2099990844727
1028.8929078,-19.6399993896484
1028.9085328,-9.44999980926514
1028.9241578,2.17000007629395
1028.9397828,14.210000038147
1028.9554078,25.5300006866455
1028.9710328,35.4500007629395
1028.9866578,43.9099998474121
1029.0022828,51.1399993896484
1029.0179078,57.2900009155273
1029.0335328,62.3899993896484
1029.0491578,66.5299987792969
1029.0647828,70.0400009155273
1029.0804078,73.4700012207031
1029.0960328,77.3099975585938
1029.1116578,81.6800003051758
1029.1272828,86.0899963378906
1029.1429078,89.5800018310547
1029.1585328,91.4199981689453
1029.1741578,91.629997253418
1029.1897828,90.870002746582
1029.2054078,89.7699966430664
1029.2210328,88.5999984741211
1029.2366578,87.3600006103516
1029.2522828,85.9800033569336
1029.2679078,84.4100036621094
1029.2835328,82.7200012207031
1029.2991578,81.0199966430664
1029.3147828,79.4000015258789
1029.3304078,77.9100036621094
1029.3460328,76.5999984741211
1029.3616578,76.0199966430664
1029.3772828,75.7699966430664
1029.3929078,75.8199996948242
1029.4085328,75.870002746582
1029.4241578,75.4400024414063
1029.4397828,74.120002746582
1029.4554078,71.8899993896484
1029.4710328,69.0400009155273
1029.4866578,65.9000015258789
1029.5022828,62.6800003051758
1029.5179078,59.4500007629395
1029.5335328,56.25
1029.5491578,53.0999984741211
1029.5647828,50.0099983215332
1029.5804078,46.9700012207031
1029.5960328,43.9799995422363
1029.6116578,41.0999984741211
1029.6272828,38.6599998474121
1029.6429078,37.3400001525879
1029.6585328,37.7599983215332
1029.6741578,39.9900016784668
1029.6897828,43.4500007629395
1029.7054078,47.3199996948242
1029.7210328,51.1199989318848
1029.7366578,55.0299987792969
1029.7522828,59.310001373291
1029.7679078,63.6399993896484
1029.7835328,67.2300033569336
1029.7991578,69.4100036621094
1029.8147828,70.0800018310547
1029.8304078,69.6600036621094
1029.8460328,68.629997253418
1029.8616578,67.2200012207031
1029.8772828,65.4199981689453
1029.8929078,63.189998626709
1029.9085328,60.75
1029.9241578,58.560001373291
1029.9397828,57.1199989318848
1029.9554078,56.5699996948242
1029.9710328,56.5
1029.9866578,56.189998626709
1030.0022828,55.0499992370605
1030.0179078,53.0499992370605
1030.0335328,50.560001373291
1030.0491578,47.8699989318848
1030.0647828,45.0800018310547
1030.0804078,42.2900009155273
1030.0960328,39.6699981689453
1030.1116578,37.310001373291
1030.1272828,35.1300010681152
1030.1429078,32.7599983215332
1030.1585328,29.8700008392334
1030.1741578,26.3799991607666
1030.1897828,22.4200000762939
1030.2054078,18.1599998474121
1030.2210328,13.7200002670288
1030.2366578,9.17000007629395
1030.2522828,4.61999988555908
1030.2679078,0.140000000596046
1030.2835328,-4.3600001335144
1030.2991578,-9.27999973297119
1030.3147828,-15.0
1030.3304078,-21.6399993896484
1030.3460328,-29.1499996185303
1030.3616578,-37.4900016784668
1030.3772828,-46.7700004577637
1030.3929078,-56.7700004577637
1030.4085328,-66.8099975585938
1030.4241578,-75.9499969482422
1030.4397828,-83.4199981689453
1030.4554078,-88.9599990844727
1030.4710328,-92.6699981689453
1030.4866578,-94.620002746582
1030.5022828,-94.8399963378906
1030.5179078,-93.5299987792969
1030.5335328,-91.1800003051758
1030.5491578,-88.4000015258789
1030.5647828,-85.8600006103516
1030.5804078,-84.1399993896484
1030.5960328,-83.5899963378906
1030.6116578,-84.1600036621094
1030.6272828,-85.629997253418
1030.6429078,-87.8300018310547
1030.6585328,-90.7300033569336
1030.6741578,-94.1500015258789
1030.6897828,-97.5699996948242
1030.7054078,-100.25
1030.7210328,-101.650001525879
1030.7366578,-101.879997253418
1030.7522828,-101.379997253418
1030.7679078,-100.379997253418
1030.7835328,-98.7900009155273
1030.7991578,-96.4700012207031
1030.8147828,-93.4400024414063
1030.8304078,-89.9599990844727
1030.8460328,-86.5100021362305
1030.8616578,-83.6999969482422
1030.8772828,-81.9800033569336
1030.8929078,-81.3899993896484
1030.9085328,-81.7699966430664
1030.9241578,-82.9499969482422
1030.9397828,-84.870002746582
1030.9554078,-87.2699966430664
1030.9710328,-89.5
1030.9866578,-90.5
1031.0022828,-89.5599975585938
1031.0179078,-86.8199996948242
1031.0335328,-83.0500030517578
1031.0491578,-78.8899993896484
1031.0647828,-74.5
1031.0804078,-69.7699966430664
1031.0960328,-64.6500015258789
1031.1116578,-59.2700004577637
1031.1272828,-54.1399993896484
1031.1429078,-50.0
1031.1585328,-47.5
1031.1741578,-46.7799987792969
1031.1897828,-47.6399993896484
1031.2054078,-49.9000015258789
1031.2210328,-53.4900016784668
1031.2366578,-58.0200004577637
1031.2522828,-62.4599990844727
1031.2679078,-65.2399978637695
1031.2835328,-65.1399993896484
1031.2991578,-62.0999984741211
1031.3147828,-56.9300003051758
1031.3304078,-50.439998626709
1031.3460328,-43.0299987792969
1031.3616578,-34.9900016784668
1031.3772828,-26.3999996185303
1031.3929078,-17.6200008392334
1031.4085328,-9.09000015258789
1031.4241578,-1.23000001907349
1031.4397828,5.71999979019165
1031.4554078,11.7600002288818
1031.4710328,17.0499992370605
1031.4866578,21.75
1031.5022828,25.9300003051758
1031.5179078,29.75
1031.5335328,33.560001373291
1031.5491578,38.0
1031.5647828,43.6100006103516
1031.5804078,50.4700012207031
1031.5960328,58.189998626709
1031.6116578,66.25
1031.6272828,74.2300033569336
1031.6429078,81.9100036621094
1031.6585328,89.1900024414063
1031.6741578,96.0100021362305
1031.6897828,102.209999084473
1031.7054078,107.5
1031.7210328,111.569999694824
1031.7366578,114.379997253418
1031.7522828,116.059997558594
1031.7679078,116.709999084473
1031.7835328,116.419998168945
1031.7991578,115.389999389648
1031.8147828,114.089996337891
1031.8304078,113.160003662109
1031.8460328,112.970001220703
1031.8616578,113.300003051758
1031.8772828,113.629997253418
1031.8929078,113.669998168945
1031.9085328,113.580001831055
1031.9241578,113.650001525879
1031.9397828,114.050003051758
1031.9554078,114.680000305176
1031.9710328,115.169998168945
1031.9866578,114.940002441406
1032.0022828,113.540000915527
1032.0179078,110.870002746582
1032.0335328,107.050003051758
1032.0491578,102.150001525879
1032.0647828,96.1999969482422
1032.0804078,89.4499969482422
1032.0960328,82.6900024414063
1032.1116578,77.1900024414063
1032.1272828,74.0
1032.1429078,73.370002746582
1032.1585328,74.8300018310547
1032.1741578,77.7300033569336
1032.1897828,81.5599975585938
1032.2054078,85.9400024414063
1032.2210328,90.4700012207031
1032.2366578,94.8300018310547
1032.2522828,98.7600021362305
1032.2679078,102.139999389648
1032.2835328,104.949996948242
1032.2991578,107.279998779297
1032.3147828,109.220001220703
1032.3304078,110.860000610352
1032.3460328,112.26000213623
1032.3616578,113.790000915527
1032.3772828,114.980003356934
1032.3929078,115.690002441406
1032.4085328,115.779998779297
1032.4241578,115.230003356934
1032.4397828,114.089996337891
1032.4554078,112.410003662109
1032.4710328,110.180000305176
1032.4866578,107.449996948242
1032.5022828,104.410003662109
1032.5179078,101.419998168945
1032.5335328,98.8499984741211
1032.5491578,96.8499984741211
1032.5647828,95.2799987792969
1032.5804078,93.8300018310547
1032.5960328,92.2200012207031
1032.6116578,90.3499984741211
1032.6272828,88.2699966430664
1032.6429078,86.0999984741211
1032.6585328,83.9400024414063
1032.6741578,81.7799987792969
1032.6897828,79.5100021362305
1032.7054078,76.9800033569336
1032.7210328,74.0199966430664
1032.7366578,70.6100006103516
1032.7522828,66.8199996948242
1032.7679078,62.7200012207031
1032.7835328,58.3699989318848
1032.7991578,53.8600006103516
1032.8147828,49.4599990844727
1032.8304078,45.5699996948242
1032.8460328,42.4700012207031
1032.8616578,40.1399993896484
1032.8772828,38.25
1032.8929078,36.4799995422363
1032.9085328,34.6699981689453
1032.9241578,32.7900009155273
1032.9397828,30.8799991607666
1032.9554078,28.9899997711182
1032.9710328,27.2299995422363
1032.9866578,25.8199996948242
1033.0022828,24.9400005340576
1033.0179078,24.6299991607666
1033.0335328,24.8500003814697
1033.0491578,25.6000003814697
1033.0647828,26.8999996185303
1033.0804078,28.6599998474121
1033.0960328,30.5599994659424
1033.1116578,32.189998626709
1033.1272828,33.2200012207031
1033.1429078,33.5499992370605
1033.1585328,33.189998626709
1033.1741578,32.0800018310547
1033.1897828,30.1299991607666
1033.2054078,27.3500003814697
1033.2210328,23.9599990844727
1033.2366578,20.2900009155273
1033.2522828,16.6299991607666
1033.2679078,13.1700000762939
1033.2835328,9.96000003814697
1033.2991578,6.96000003814697
1033.3147828,4.05000019073486
1033.3304078,1.13999998569489
1033.3460328,-1.82000005245209
1033.3616578,-4.8600001335144
1033.3772828,-7.94000005722046
1033.3929078,-11.039999961853
1033.4085328,-14.1400003433228
1033.4241578,-17.2299995422363
1033.4397828,-20.3700008392334
1033.4554078,-23.6599998474121
1033.4710328,-27.1900005340576
1033.4866578,-30.9699993133545
1033.5022828,-34.9599990844727
1033.5179078,-39.1300010681152
1033.5335328,-43.4900016784668
1033.5491578,-48.1300010681152
1033.5647828,-53.0400009155273
1033.5804078,-58.0299987792969
1033.5960328,-62.8499984741211
1033.6116578,-67.3199996948242
1033.6272828,-71.4199981689453
1033.6429078,-75.2200012207031
1033.6585328,-78.75
1033.6741578,-81.9599990844727
1033.6897828,-84.7799987792969
1033.7054078,-87.2399978637695
1033.7210328,-89.5
1033.7366578,-91.6699981689453
1033.7522828,-93.8000030517578
1033.7679078,-95.8499984741211
1033.7835328,-97.7799987792969
1033.7991578,-99.5
1033.8147828,-100.709999084473
1033.8304078,-100.839996337891
1033.8460328,-99.4000015258789
1033.8616578,-96.3099975585938
1033.8772828,-91.8399963378906
1033.8929078,-86.3300018310547
1033.9085328,-80.0100021362305
1033.9241578,-73.2200012207031
1033.9397828,-66.5699996948242
1033.9554078,-60.9199981689453
1033.9710328,-56.9099998474121
1033.9866578,-54.5900001525879
1034.0022828,-53.6100006103516
1034.0179078,-53.6300010681152
1034.0335328,-54.5200004577637
1034.0491578,-56.189998626709
1034.0647828,-58.4000015258789
1034.0804078,-60.8699989318848
1034.0960328,-63.4199981689453
1034.1116578,-66.0400009155273
1034.1272828,-68.8899993896484
1034.1429078,-72.0299987792969
1034.1585328,-75.4499969482422
1034.1741578,-79.0899963378906
1034.1897828,-82.8499984741211
1034.2054078,-86.6500015258789
1034.2210328,-90.3300018310547
1034.2366578,-93.75
1034.2522828,-96.9000015258789
1034.2679078,-99.9400024414063
1034.2835328,-103.01000213623
1034.2991578,-106.099998474121
1034.3147828,-109.01000213623
1034.3304078,-111.529998779297
1034.3460328,-113.559997558594
1034.3616578,-115.160003662109
1034.3772828,-116.610000610352
1034.3929078,-118.290000915527
1034.4085328,-120.529998779297
1034.4241578,-123.430000305176
