Time(s),Value(%)
1024.0022828,-15.8400001525879
1024.0179078,-13.6400003433228
1024.0335328,-7.86999988555908
1024.0491578,2.46000003814697
1024.0647828,16.9799995422363
1024.0804078,33.7099990844727
1024.0960328,49.75
1024.1116578,62.1199989318848
1024.1272828,68.6100006103516
1024.1429078,68.5599975585938
1024.1585328,63.060001373291
1024.1741578,54.3499984741211
1024.1897828,44.7000007629395
1024.2054078,35.5999984741211
1024.2210328,27.5300006866455
1024.2366578,20.3500003814697
1024.2522828,13.5200004577637
1024.2679078,6.53000020980835
1024.2835328,-0.569999992847443
1024.2991578,-6.94000005722046
1024.3147828,-11.4399995803833
1024.3304078,-13.6000003814697
1024.3460328,-13.8599996566772
1024.3616578,-13.1099996566772
1024.3772828,-12.1000003814697
1024.3929078,-11.2799997329712
1024.4085328,-10.8599996566772
1024.4241578,-10.9499998092651
1024.4397828,-11.5900001525879
1024.4554078,-12.7200002670288
1024.4710328,-14.0500001907349
1024.4866578,-15.1899995803833
1024.5022828,-15.8800001144409
1024.5179078,-16.2299995422363
1024.5335328,-16.4799995422363
1024.5491578,-16.8799991607666
1024.5647828,-17.6200008392334
1024.5804078,-18.6200008392334
1024.5960328,-19.5100002288818
1024.6116578,-19.9300003051758
1024.6272828,-19.7600002288818
1024.6429078,-19.0699996948242
1024.6585328,-18.0400009155273
1024.6741578,-16.9599990844727
1024.6897828,-16.2600002288818
1024.7054078,-16.2000007629395
1024.7210328,-16.5300006866455
1024.7366578,-16.5799999237061
1024.7522828,-15.960000038147
1024.7679078,-14.8900003433228
1024.7835328,-13.789999961853
1024.7991578,-12.5500001907349
1024.8147828,-10.2799997329712
1024.8304078,-5.46000003814697
1024.8460328,3.40000009536743
1024.8616578,16.6299991607666
1024.8772828,32.5699996948242
1024.8929078,47.9199981689453
1024.9085328,59.1300010681152
1024.9241578,63.9900016784668
1024.9397828,62.4300003051758
1024.9554078,56.2900009155273
1024.9710328,48.2799987792969
1024.9866578,40.7400016784668
1025.0022828,34.810001373291
1025.0179078,30.1700000762939
1025.0335328,25.5900001525879
1025.0491578,19.9699993133545
1025.0647828,13.3299999237061
1025.0804078,6.80999994277954
1025.0960328,1.80999994277954
1025.1116578,-1.0
1025.1272828,-1.9099999666214
1025.1429078,-1.60000002384186
1025.1585328,-0.769999980926514
1025.1741578,-0.100000001490116
1025.1897828,-0.119999997317791
1025.2054078,-0.930000007152557
1025.2210328,-2.25
1025.2366578,-3.8199999332428
1025.2522828,-5.65000009536743
1025.2679078,-7.8600001335144
1025.2835328,-10.2799997329712
1025.2991578,-12.4099998474121
1025.3147828,-13.8199996948242
1025.3304078,-14.5299997329712
1025.3460328,-15.210000038147
1025.3616578,-16.5100002288818
1025.3772828,-18.3099994659424
1025.3929078,-19.9200000762939
1025.4085328,-20.7600002288818
1025.4241578,-20.7099990844727
1025.4397828,-19.8600006103516
1025.4554078,-18.3799991607666
1025.4710328,-16.5200004577637
1025.4866578,-14.6099996566772
1025.5022828,-12.8199996948242
1025.5179078,-11.2700004577637
1025.5335328,-10.1300001144409
1025.5491578,-9.53999996185303
1025.5647828,-9.38000011444092
1025.5804078,-9.13000011444092
1025.5960328,-7.57999992370605
1025.6116578,-2.95000004768372
1025.6272828,6.30000019073486
1025.6429078,20.3700008392334
1025.6585328,37.439998626709
1025.6741578,54.0800018310547
1025.6897828,66.4499969482422
1025.7054078,71.8600006103516
1025.7210328,69.9499969482422
1025.7366578,62.5900001525879
1025.7522828,52.6399993896484
1025.7679078,42.5699996948242
1025.7835328,33.7099990844727
1025.7991578,26.2099990844727
1025.8147828,19.3899993896484
1025.8304078,12.3400001525879
1025.8460328,4.61999988555908
1025.8616578,-3.25999999046326
1025.8772828,-10.1300001144409
1025.8929078,-14.9799995422363
1025.9085328,-17.6200008392334
1025.9241578,-18.3999996185303
1025.9397828,-17.7999992370605
1025.9554078,-16.3700008392334
1025.9710328,-14.8299999237061
1025.9866578,-13.9499998092651
1026.0022828,-14.1899995803833
1026.0179078,-15.4799995422363
1026.0335328,-17.2399997711182
1026.0491578,-18.7099990844727
1026.0647828,-19.4099998474121
1026.0804078,-19.2999992370605
1026.0960328,-18.7700004577637
1026.1116578,-18.3700008392334
1026.1272828,-18.4699993133545
1026.1429078,-19.0100002288818
1026.1585328,-19.7199993133545
1026.1741578,-20.4899997711182
1026.1897828,-21.3600006103516
1026.2054078,-22.3999996185303
1026.2210328,-23.5300006866455
1026.2366578,-24.4500007629395
1026.2522828,-24.7000007629395
1026.2679078,-24.0200004577637
1026.2835328,-22.5100002288818
1026.2991578,-20.4799995422363
1026.3147828,-18.2700004577637
1026.3304078,-16.4400005340576
1026.3460328,-15.5
1026.3616578,-15.3199996948242
1026.3772828,-15.0
1026.3929078,-13.5100002288818
1026.4085328,-10.1899995803833
1026.4241578,-4.46999979019165
1026.4397828,4.34999990463257
1026.4554078,16.5799999237061
1026.4710328,31.0900001525879
1026.4866578,45.2400016784668
1026.5022828,55.9099998474121
1026.5179078,60.8699989318848
1026.5335328,59.7200012207031
1026.5491578,53.7900009155273
1026.5647828,45.4199981689453
1026.5804078,36.8699989318848
1026.5960328,29.4500007629395
1026.6116578,23.2800006866455
1026.6272828,17.9699993133545
1026.6429078,13.1000003814697
1026.6585328,8.43000030517578
1026.6741578,3.85999989509583
1026.6897828,-0.449999988079071
1026.7054078,-4.07000017166138
1026.7210328,-6.44000005722046
1026.7366578,-7.17999982833862
1026.7522828,-6.51999998092651
1026.7679078,-5.21999979019165
1026.7835328,-4.3899998664856
1026.7991578,-4.8899998664856
1026.8147828,-6.94999980926514
1026.8304078,-10.1999998092651
1026.8460328,-13.8900003433228
1026.8616578,-17.2299995422363
1026.8772828,-19.6200008392334
1026.8929078,-20.9400005340576
1026.9085328,-21.5400009155273
1026.9241578,-22.0
1026.9397828,-22.8500003814697
1026.9554078,-24.2700004577637
1026.9710328,-25.9500007629395
1026.9866578,-27.2399997711182
1027.0022828,-27.5
1027.0179078,-26.5200004577637
1027.0335328,-24.6599998474121
1027.0491578,-22.6800003051758
1027.0647828,-21.2800006866455
1027.0804078,-20.75
1027.0960328,-20.9799995422363
1027.1116578,-21.4599990844727
1027.1272828,-21.5699996948242
1027.1429078,-20.8099994659424
1027.1585328,-19.0799999237061
1027.1741578,-16.6700000762939
1027.1897828,-13.8500003814697
1027.2054078,-10.2299995422363
1027.2210328,-4.42000007629395
1027.2366578,5.09999990463257
1027.2522828,18.5200004577637
1027.2679078,33.7999992370605
1027.2835328,47.4199981689453
1027.2991578,56.1100006103516
1027.3147828,58.3699989318848
1027.3304078,54.8199996948242
1027.3460328,47.5200004577637
1027.3616578,38.8199996948242
1027.3772828,30.5300006866455
1027.3929078,23.6499996185303
1027.4085328,18.2999992370605
1027.4241578,13.9499998092651
1027.4397828,9.85000038146973
1027.4554078,5.57999992370605
1027.4710328,1.44000005722046
1027.4866578,-1.73000001907349
1027.5022828,-3.04999995231628
1027.5179078,-2.27999997138977
1027.5335328,-0.239999994635582
1027.5491578,1.55999994277954
1027.5647828,2.0
1027.5804078,0.850000023841858
1027.5960328,-1.3400000333786
1027.6116578,-3.97000002861023
1027.6272828,-6.80999994277954
1027.6429078,-9.81999969482422
1027.6585328,-12.8100004196167
1027.6741578,-15.460000038147
1027.6897828,-17.6700000762939
1027.7054078,-19.5499992370605
1027.7210328,-21.1800003051758
1027.7366578,-22.5300006866455
1027.7522828,-23.4799995422363
1027.7679078,-23.9699993133545
1027.7835328,-23.9500007629395
1027.7991578,-23.4400005340576
1027.8147828,-22.6100006103516
1027.8304078,-21.6299991607666
1027.8460328,-20.5300006866455
1027.8616578,-19.1800003051758
1027.8772828,-17.3799991607666
1027.8929078,-15.0100002288818
1027.9085328,-12.210000038147
1027.9241578,-9.43000030517578
1027.9397828,-7.1399998664856
1027.9554078,-5.3899998664856
1027.9710328,-3.47000002861023
1027.9866578,0.109999999403954
1028.0022828,7.09000015258789
1028.0179078,18.3199996948242
1028.0335328,32.689998626709
1028.0491578,47.2200012207031
1028.0647828,58.2999992370605
1028.0804078,63.4199981689453
1028.0960328,62.1399993896484
1028.1116578,55.7999992370605
1028.1272828,46.6199989318848
1028.1429078,36.8899993896484
1028.1585328,28.25
1028.1741578,21.1800003051758
1028.1897828,15.1199998855591
1028.2054078,9.26000022888184
1028.2210328,3.1800000667572
1028.2366578,-2.82999992370605
1028.2522828,-8.13000011444092
1028.2679078,-12.0
1028.2835328,-14.0100002288818
1028.2991578,-14.3199996948242
1028.3147828,-13.6000003814697
1028.3304078,-12.6400003433228
1028.3460328,-12.039999961853
1028.3616578,-12.1599998474121
1028.3772828,-13.0799999237061
1028.3929078,-14.6000003814697
1028.4085328,-16.3199996948242
1028.4241578,-17.7600002288818
1028.4397828,-18.6700000762939
1028.4554078,-19.1599998474121
1028.4710328,-19.6800003051758
1028.4866578,-20.5400009155273
1028.5022828,-21.6399993896484
1028.5179078,-22.5900001525879
1028.5335328,-23.0799999237061
1028.5491578,-23.1599998474121
1028.5647828,-22.9899997711182
1028.5804078,-22.5499992370605
1028.5960328,-21.4899997711182
1028.6116578,-19.5599994659424
1028.6272828,-16.9599990844727
1028.6429078,-14.3500003814697
1028.6585328,-12.5
1028.6741578,-11.8199996948242
1028.6897828,-12.0500001907349
1028.7054078,-12.4799995422363
1028.7210328,-12.4200000762939
1028.7366578,-11.25
1028.7522828,-8.10000038146973
1028.7679078,-1.70000004768372
1028.7835328,8.85999965667725
1028.7991578,23.1399993896484
1028.8147828,38.8800010681152
1028.8304078,52.6800003051758
1028.8460328,61.4599990844727
1028.8616578,63.9500007629395
1028.8772828,60.9099998474121
1028.8929078,54.2400016784668
1028.9085328,45.7000007629395
1028.9241578,36.4900016784668
1028.9397828,27.5
1028.9554078,19.4400005340576
1028.9710328,12.7299995422363
1028.9866578,7.3899998664856
1029.0022828,3.0699999332428
1029.0179078,-0.670000016689301
1029.0335328,-4.01999998092651
1029.0491578,-6.78999996185303
1029.0647828,-8.60999965667725
1029.0804078,-9.21000003814697
1029.0960328,-8.72999954223633
1029.1116578,-7.76999998092651
1029.1272828,-7.21999979019165
1029.1429078,-7.80000019073486
1029.1585328,-9.67000007629395
1029.1741578,-12.4700002670288
1029.1897828,-15.8299999237061
1029.2054078,-19.4599990844727
1029.2210328,-22.9500007629395
1029.2366578,-25.5900001525879
1029.2522828,-26.8500003814697
1029.2679078,-26.7600002288818
1029.2835328,-25.9099998474121
1029.2991578,-25.1100006103516
1029.3147828,-24.9200000762939
1029.3304078,-25.2800006866455
1029.3460328,-25.7600002288818
1029.3616578,-25.7999992370605
1029.3772828,-24.9099998474121
1029.3929078,-23.0200004577637
1029.4085328,-20.7800006866455
1029.4241578,-19.1900005340576
1029.4397828,-18.6900005340576
1029.4554078,-18.75
1029.4710328,-18.4799995422363
1029.4866578,-17.4300003051758
1029.5022828,-15.6499996185303
1029.5179078,-13.3800001144409
1029.5335328,-10.6899995803833
1029.5491578,-7.3600001335144
1029.5647828,-2.65000009536743
1029.5804078,4.65000009536743
1029.5960328,15.3599996566772
1029.6116578,28.7000007629395
1029.6272828,42.25
1029.6429078,53.0299987792969
1029.6585328,58.6699981689453
1029.6741578,58.3400001525879
1029.6897828,52.810001373291
1029.7054078,44.0299987792969
1029.7210328,34.2999992370605
1029.7366578,25.6599998474121
1029.7522828,19.2299995422363
1029.7679078,15.0
1029.7835328,12.1999998092651
1029.7991578,10.0900001525879
1029.8147828,8.27000045776367
1029.8304078,6.67000007629395
1029.8460328,5.34000015258789
1029.8616578,4.13000011444092
1029.8772828,2.75
1029.8929078,1.04999995231628
1029.9085328,-0.800000011920929
1029.9241578,-2.59999990463257
1029.9397828,-4.25
1029.9554078,-5.8600001335144
1029.9710328,-7.65999984741211
1029.9866578,-9.8100004196167
1030.0022828,-12.289999961853
1030.0179078,-14.9899997711182
1030.0335328,-17.8199996948242
1030.0491578,-20.8199996948242
1030.0647828,-23.9500007629395
1030.0804078,-26.7399997711182
1030.0960328,-28.4300003051758
1030.1116578,-28.5599994659424
1030.1272828,-27.3999996185303
1030.1429078,-25.5599994659424
1030.1585328,-23.5900001525879
1030.1741578,-21.8400001525879
1030.1897828,-20.5699996948242
1030.2054078,-19.8700008392334
1030.2210328,-19.4899997711182
1030.2366578,-19.0100002288818
1030.2522828,-17.9899997711182
1030.2679078,-16.2999992370605
1030.2835328,-14.0799999237061
1030.2991578,-11.5799999237061
1030.3147828,-8.89000034332275
1030.3304078,-5.57000017166138
1030.3460328,-0.46000000834465
1030.3616578,7.76999998092651
1030.3772828,19.5
1030.3929078,33.3199996948242
1030.4085328,46.5200004577637
1030.4241578,56.3899993896484
1030.4397828,61.4500007629395
1030.4554078,61.8699989318848
1030.4710328,58.9900016784668
1030.4866578,54.189998626709
1030.5022828,48.2000007629395
1030.5179078,41.3300018310547
1030.5335328,33.8600006103516
1030.5491578,26.1599998474121
1030.5647828,18.4799995422363
1030.5804078,11.1300001144409
1030.5960328,4.55999994277954
1030.6116578,-0.610000014305115
1030.6272828,-3.99000000953674
1030.6429078,-5.51000022888184
1030.6585328,-5.57999992370605
1030.6741578,-4.96000003814697
1030.6897828,-4.59000015258789
1030.7054078,-5.21000003814697
1030.7210328,-6.94000005722046
1030.7366578,-9.26000022888184
1030.7522828,-11.5900001525879
1030.7679078,-13.8400001525879
1030.7835328,-16.2999992370605
1030.7991578,-19.1700000762939
1030.8147828,-22.1900005340576
1030.8304078,-24.9500007629395
1030.8460328,-27.2900009155273
1030.8616578,-29.3199996948242
1030.8772828,-31.1499996185303
1030.8929078,-32.7200012207031
1030.9085328,-33.9500007629395
1030.9241578,-34.8300018310547
1030.9397828,-35.2000007629395
1030.9554078,-34.7599983215332
1030.9710328,-33.310001373291
1030.9866578,-30.8899993896484
1031.0022828,-27.7600002288818
1031.0179078,-24.3099994659424
1031.0335328,-20.9899997711182
1031.0491578,-18.2299995422363
1031.0647828,-16.2900009155273
1031.0804078,-15.0600004196167
1031.0960328,-14.1899995803833
1031.1116578,-13.3699998855591
1031.1272828,-12.4099998474121
1031.1429078,-10.8699998855591
1031.1585328,-7.48999977111816
1031.1741578,-0.519999980926514
1031.1897828,11.0100002288818
1031.2054078,26.2399997711182
1031.2210328,42.6599998474121
1031.2366578,57.1500015258789
1031.2522828,67.0599975585938
1031.2679078,70.8199996948242
1031.2835328,68.370002746582
1031.2991578,61.1399993896484
1031.3147828,51.5499992370605
1031.3304078,41.9700012207031
1031.3460328,33.8199996948242
1031.3616578,27.3600006103516
1031.3772828,22.0300006866455
1031.3929078,16.9099998474121
1031.4085328,11.2799997329712
1031.4241578,5.03999996185303
1031.4397828,-1.1599999666214
1031.4554078,-6.23999977111816
1031.4710328,-9.27999973297119
1031.4866578,-10.0600004196167
1031.5022828,-9.23999977111816
1031.5179078,-8.18000030517578
1031.5335328,-8.22000026702881
1031.5491578,-9.94999980926514
1031.5647828,-12.9499998092651
1031.5804078,-16.1800003051758
1031.5960328,-18.4799995422363
1031.6116578,-19.1800003051758
1031.6272828,-18.4500007629395
1031.6429078,-17.2000007629395
1031.6585328,-16.4799995422363
1031.6741578,-16.8600006103516
1031.6897828,-18.3899993896484
1031.7054078,-20.7900009155273
1031.7210328,-23.5499992370605
1031.7366578,-26.1900005340576
1031.7522828,-28.3899993896484
1031.7679078,-29.8899993896484
1031.7835328,-30.4799995422363
1031.7991578,-29.9300003051758
1031.8147828,-28.1499996185303
1031.8304078,-25.2800006866455
1031.8460328,-21.8999996185303
1031.8616578,-18.7000007629395
1031.8772828,-15.9300003051758
1031.8929078,-13.5200004577637
1031.9085328,-11.5200004577637
1031.9241578,-10.4399995803833
1031.9397828,-10.8199996948242
1031.9554078,-12.6199998855591
1031.9710328,-14.9899997711182
1031.9866578,-16.6200008392334
1032.0022828,-16.2099990844727
1032.0179078,-12.5900001525879
1032.0335328,-4.8600001335144
1032.0491578,7.21999979019165
1032.0647828,22.7199993133545
1032.0804078,39.3899993896484
1032.0960328,54.25
1032.1116578,64.5699996948242
1032.1272828,68.9100036621094
1032.1429078,67.5500030517578
1032.1585328,62.2000007629395
1032.1741578,55.2299995422363
1032.1897828,48.5900001525879
1032.2054078,42.9900016784668
1032.2210328,37.9500007629395
1032.2366578,32.4799995422363
1032.2522828,25.8600006103516
1032.2679078,17.9899997711182
1032.2835328,9.48999977111816
1032.2991578,1.52999997138977
1032.3147828,-4.73000001907349
1032.3304078,-8.72000026702881
1032.3460328,-10.5600004196167
1032.3616578,-10.7600002288818
1032.3772828,-10.1199998855591
1032.3929078,-9.59000015258789
1032.4085328,-10.0500001907349
1032.4241578,-11.8599996566772
1032.4397828,-14.5100002288818
1032.4554078,-16.9799995422363
1032.4710328,-18.4099998474121
1032.4866578,-18.8500003814697
1032.5022828,-19.0799999237061
1032.5179078,-19.9500007629395
1032.5335328,-21.6399993896484
1032.5491578,-23.8099994659424
1032.5647828,-26.0100002288818
1032.5804078,-27.8600006103516
1032.5960328,-29.1100006103516
1032.6116578,-29.5900001525879
1032.6272828,-29.2199993133545
1032.6429078,-28.0400009155273
1032.6585328,-26.2800006866455
1032.6741578,-24.3500003814697
1032.6897828,-22.6000003814697
1032.7054078,-21.1599998474121
1032.7210328,-19.9300003051758
1032.7366578,-18.7600002288818
1032.7522828,-17.5900001525879
1032.7679078,-16.4599990844727
1032.7835328,-15.3699998855591
1032.7991578,-14.0299997329712
1032.8147828,-11.9300003051758
1032.8304078,-8.94999980926514
1032.8460328,-5.69000005722046
1032.8616578,-3.07999992370605
1032.8772828,-1.45000004768372
1032.8929078,0.300000011920929
1032.9085328,4.48000001907349
1032.9241578,12.9799995422363
1032.9397828,25.7000007629395
1032.9554078,40.310001373291
1032.9710328,53.4700012207031
1032.9866578,62.2400016784668
1033.0022828,65.2200012207031
1033.0179078,62.7700004577637
1033.0335328,56.4700012207031
1033.0491578,48.189998626709
1033.0647828,39.5
1033.0804078,31.4500007629395
1033.0960328,24.4799995422363
1033.1116578,18.4500007629395
1033.1272828,12.8000001907349
1033.1429078,7.07999992370605
1033.1585328,1.33000004291534
1033.1741578,-3.83999991416931
1033.1897828,-7.80000019073486
1033.2054078,-10.2299995422363
1033.2210328,-11.2399997711182
1033.2366578,-11.210000038147
1033.2522828,-10.4799995422363
1033.2679078,-9.28999996185303
1033.2835328,-7.92999982833862
1033.2991578,-6.69000005722046
1033.3147828,-5.6399998664856
1033.3304078,-4.75
1033.3460328,-4.09000015258789
1033.3616578,-3.8199999332428
1033.3772828,-4.07000017166138
1033.3929078,-5.01999998092651
1033.4085328,-6.86999988555908
1033.4241578,-9.52000045776367
1033.4397828,-12.3900003433228
1033.4554078,-14.6700000762939
1033.4710328,-15.8299999237061
1033.4866578,-15.9099998474121
1033.5022828,-15.1899995803833
1033.5179078,-13.8699998855591
1033.5335328,-12.0100002288818
1033.5491578,-9.72000026702881
1033.5647828,-7.25
1033.5804078,-4.98000001907349
1033.5960328,-3.45000004768372
1033.6116578,-3.08999991416931
1033.6272828,-3.92000007629395
1033.6429078,-5.38000011444092
1033.6585328,-6.63000011444092
1033.6741578,-7.09999990463257
1033.6897828,-6.57000017166138
1033.7054078,-4.94000005722046
1033.7210328,-1.62000000476837
1033.7366578,4.51999998092651
1033.7522828,14.4300003051758
1033.7679078,27.7000007629395
1033.7835328,42.2299995422363
1033.7991578,54.8800010681152
1033.8147828,62.9099998474121
1033.8304078,65.1100006103516
1033.8460328,61.8199996948242
1033.8616578,54.4099998474121
1033.8772828,44.6300010681152
1033.8929078,34.2099990844727
1033.9085328,24.3700008392334
1033.9241578,15.6599998474121
1033.9397828,8.03999996185303
1033.9554078,1.24000000953674
1033.9710328,-4.84000015258789
1033.9866578,-10.0200004577637
1034.0022828,-13.8500003814697
1034.0179078,-15.960000038147
1034.0335328,-16.3799991607666
1034.0491578,-15.8500003814697
1034.0647828,-15.460000038147
1034.0804078,-15.9399995803833
1034.0960328,-17.2700004577637
1034.1116578,-18.8999996185303
1034.1272828,-20.2199993133545
1034.1429078,-20.9300003051758
1034.1585328,-21.1299991607666
1034.1741578,-21.25
1034.1897828,-21.8099994659424
1034.2054078,-23.1399993896484
1034.2210328,-25.1700000762939
1034.2366578,-27.4500007629395
1034.2522828,-29.4699993133545
1034.2679078,-30.9599990844727
1034.2835328,-31.9200000762939
1034.2991578,-32.2700004577637
1034.3147828,-31.7000007629395
