Time(s),Value(%)
0.0745582,-327.679992675781
0.0901832,-327.679992675781
0.1058082,-228.050003051758
0.1214332,-114.819999694824
0.1370582,-0.389999985694885
0.1526832,112.76000213623
0.1683082,221.869995117188
0.1839332,325.390014648438
0.1995582,327.670013427734
0.2151832,327.670013427734
0.2308082,327.670013427734
0.2464332,327.670013427734
0.2620582,327.670013427734
0.2776832,327.670013427734
0.2933082,327.670013427734
0.3089332,327.670013427734
0.3245582,327.670013427734
0.3401832,327.670013427734
0.3558082,327.670013427734
0.3714332,327.670013427734
0.3870582,327.670013427734
0.4026832,327.670013427734
0.4183082,327.670013427734
0.4339332,327.670013427734
0.4495582,327.670013427734
0.4651832,327.670013427734
0.4808082,327.670013427734
0.4964332,327.670013427734
0.5120582,327.670013427734
0.5276832,327.670013427734
0.5433082,327.670013427734
0.5589332,327.670013427734
0.5745582,327.670013427734
0.5901832,327.670013427734
0.6058082,327.670013427734
0.6214332,327.670013427734
0.6370582,327.670013427734
0.6526832,327.670013427734
0.6683082,327.670013427734
0.6839332,327.670013427734
0.6995582,327.670013427734
0.7151832,327.670013427734
0.7308082,327.670013427734
0.7464332,327.670013427734
0.7620582,327.670013427734
0.7776832,327.670013427734
0.7933082,327.670013427734
0.8089332,327.670013427734
0.8245582,327.670013427734
0.8401832,327.670013427734
0.8558082,327.670013427734
0.8714332,327.670013427734
0.8870582,327.670013427734
0.9026832,327.670013427734
0.9183082,327.670013427734
0.9339332,327.670013427734
0.9495582,327.670013427734
0.9651832,327.670013427734
0.9808082,327.670013427734
0.9964332,327.670013427734
1.0120582,327.670013427734
1.0276832,327.670013427734
1.0433082,327.670013427734
1.0589332,327.670013427734
1.0745582,327.670013427734
1.0901832,327.670013427734
1.1058082,327.670013427734
1.1214332,327.670013427734
1.1370582,327.670013427734
1.1526832,327.670013427734
1.1683082,327.670013427734
1.1839332,327.670013427734
1.1995582,327.670013427734
1.2151832,327.670013427734
1.2308082,327.670013427734
1.2464332,327.670013427734
1.2620582,327.670013427734
1.2776832,327.670013427734
1.2933082,327.670013427734
1.3089332,327.670013427734
1.3245582,327.670013427734
1.3401832,327.670013427734
1.3558082,327.670013427734
1.3714332,327.670013427734
1.3870582,327.670013427734
1.4026832,327.670013427734
1.4183082,327.670013427734
1.4339332,327.670013427734
1.4495582,327.670013427734
1.4651832,327.670013427734
1.4808082,318.890014648438
1.4964332,291.920013427734
1.5120582,266.429992675781
1.5276832,243.389999389648
1.5433082,223.479995727539
1.5589332,206.880004882813
1.5745582,193.089996337891
1.5901832,180.949996948242
1.6058082,169.110000610352
1.6214332,156.570007324219
1.6370582,142.940002441406
1.6526832,128.419998168945
1.6683082,113.550003051758
1.6839332,99.0
1.6995582,85.2300033569336
1.7151832,72.1699981689453
1.7308082,58.8699989318848
1.7464332,43.6599998474121
1.7620582,25.0699996948242
1.7776832,2.75
1.7933082,-22.6100006103516
1.8089332,-50.1800003051758
1.8245582,-79.370002746582
1.8401832,-109.629997253418
1.8558082,-139.839996337891
1.8714332,-168.110000610352
1.8870582,-192.600006103516
1.9026832,-212.660003662109
1.9183082,-229.059997558594
1.9339332,-243.539993286133
1.9495582,-258.25
1.9651832,-275.329986572266
1.9808082,-296.100006103516
1.9964332,-320.489990234375
2.0120582,-327.679992675781
2.0276832,-327.679992675781
2.0433082,-327.679992675781
2.0589332,-327.679992675781
2.0745582,-327.679992675781
2.0901832,-327.679992675781
2.1058082,-327.679992675781
2.1214332,-327.679992675781
2.1370582,-327.679992675781
2.1526832,-327.679992675781
2.1683082,-327.679992675781
2.1839332,-327.679992675781
2.1995582,-327.679992675781
2.2151832,-327.679992675781
2.2308082,-327.679992675781
2.2464332,-327.679992675781
2.2620582,-327.679992675781
2.2776832,-327.679992675781
2.2933082,-327.679992675781
2.3089332,-327.679992675781
2.3245582,-327.679992675781
2.3401832,-327.679992675781
2.3558082,-327.679992675781
2.3714332,-327.679992675781
2.3870582,-327.679992675781
2.4026832,-327.679992675781
2.4183082,-327.679992675781
2.4339332,-327.679992675781
2.4495582,-327.679992675781
2.4651832,-327.679992675781
2.4808082,-327.679992675781
2.4964332,-327.679992675781
2.5120582,-327.679992675781
2.5276832,-327.679992675781
2.5433082,-327.679992675781
2.5589332,-327.679992675781
2.5745582,-327.679992675781
2.5901832,-327.679992675781
2.6058082,-327.679992675781
2.6214332,-327.679992675781
2.6370582,-327.679992675781
2.6526832,-327.679992675781
2.6683082,-327.679992675781
2.6839332,-327.679992675781
2.6995582,-327.679992675781
2.7151832,-327.679992675781
2.7308082,-327.679992675781
2.7464332,-327.679992675781
2.7620582,-327.679992675781
2.7776832,-327.679992675781
2.7933082,-327.679992675781
2.8089332,-327.679992675781
2.8245582,-327.679992675781
2.8401832,-327.679992675781
2.8558082,-327.679992675781
2.8714332,-327.679992675781
2.8870582,-327.679992675781
2.9026832,-327.679992675781
2.9183082,-327.679992675781
2.9339332,-327.679992675781
2.9495582,-327.679992675781
2.9651832,-327.679992675781
2.9808082,-327.679992675781
2.9964332,-327.679992675781
3.0120582,-327.679992675781
3.0276832,-327.679992675781
3.0433082,-327.679992675781
3.0589332,-327.679992675781
3.0745582,-327.679992675781
3.0901832,-313.359985351563
3.1058082,-291.489990234375
3.1214332,-269.450012207031
3.1370582,-247.839996337891
3.1526832,-227.020004272461
3.1683082,-207.130004882813
3.1839332,-188.149993896484
3.1995582,-169.940002441406
3.2151832,-152.360000610352
3.2308082,-135.229995727539
3.2464332,-118.370002746582
3.2620582,-101.660003662109
3.2776832,-85.0899963378906
3.2933082,-68.7699966430664
3.3089332,-52.9000015258789
3.3245582,-37.6500015258789
3.3401832,-22.9699993133545
3.3558082,-8.17000007629395
3.3714332,8.21000003814697
3.3870582,27.5499992370605
3.4026832,50.4099998474121
3.4183082,77.5599975585938
3.4339332,111.029998779297
3.4495582,152.759994506836
3.4651832,202.169998168945
3.4808082,255.139999389648
3.4964332,306.019989013672
3.5120582,327.670013427734
3.5276832,327.670013427734
3.5433082,327.670013427734
3.5589332,327.670013427734
3.5745582,327.670013427734
3.5901832,327.670013427734
3.6058082,327.670013427734
3.6214332,327.670013427734
3.6370582,327.670013427734
3.6526832,327.670013427734
3.6683082,327.670013427734
3.6839332,327.670013427734
3.6995582,327.670013427734
3.7151832,327.670013427734
3.7308082,327.670013427734
3.7464332,327.670013427734
3.7620582,327.670013427734
3.7776832,327.670013427734
3.7933082,327.670013427734
3.8089332,327.670013427734
3.8245582,327.670013427734
3.8401832,327.670013427734
3.8558082,327.670013427734
3.8714332,327.670013427734
3.8870582,327.670013427734
3.9026832,327.670013427734
3.9183082,327.670013427734
3.9339332,327.670013427734
3.9495582,327.670013427734
3.9651832,327.670013427734
3.9808082,327.670013427734
3.9964332,327.670013427734
4.0120582,327.670013427734
4.0276832,327.670013427734
4.0433082,327.670013427734
4.0589332,327.670013427734
4.0745582,327.670013427734
4.0901832,327.670013427734
4.1058082,327.670013427734
4.1214332,327.670013427734
4.1370582,327.670013427734
4.1526832,327.670013427734
4.1683082,327.670013427734
4.1839332,327.670013427734
4.1995582,327.670013427734
4.2151832,327.670013427734
4.2308082,327.670013427734
4.2464332,327.670013427734
4.2620582,327.670013427734
4.2776832,293.0
4.2933082,205.110000610352
4.3089332,119.75
4.3245582,38.689998626709
4.3401832,-37.9799995422363
4.3558082,-112.610000610352
4.3714332,-189.770004272461
4.3870582,-273.630004882813
4.4026832,-327.679992675781
4.4183082,-327.679992675781
4.4339332,-327.679992675781
4.4495582,-327.679992675781
4.4651832,-327.679992675781
4.4808082,-327.679992675781
4.4964332,-327.679992675781
4.5120582,-327.679992675781
4.5276832,-327.679992675781
4.5433082,-327.679992675781
4.5589332,-327.679992675781
4.5745582,-327.679992675781
4.5901832,-327.679992675781
4.6058082,-327.679992675781
4.6214332,-327.679992675781
4.6370582,-327.679992675781
4.6526832,-327.679992675781
4.6683082,-327.679992675781
4.6839332,-327.679992675781
4.6995582,-327.679992675781
4.7151832,-327.679992675781
4.7308082,-327.679992675781
4.7464332,-327.679992675781
4.7620582,-327.679992675781
4.7776832,-327.679992675781
4.7933082,-327.679992675781
4.8089332,-327.679992675781
4.8245582,-327.679992675781
4.8401832,-327.679992675781
4.8558082,-327.679992675781
4.8714332,-327.679992675781
4.8870582,-327.679992675781
4.9026832,-327.679992675781
4.9183082,-327.679992675781
4.9339332,-327.679992675781
4.9495582,-327.679992675781
4.9651832,-327.679992675781
4.9808082,-327.679992675781
4.9964332,-327.679992675781
5.0120582,-327.679992675781
5.0276832,-327.679992675781
5.0433082,-327.679992675781
5.0589332,-327.679992675781
5.0745582,-327.679992675781
5.0901832,-327.679992675781
5.1058082,-327.679992675781
5.1214332,-327.679992675781
5.1370582,-327.679992675781
5.1526832,-327.679992675781
5.1683082,-327.679992675781
5.1839332,-327.679992675781
5.1995582,-327.679992675781
5.2151832,-327.679992675781
5.2308082,-327.679992675781
5.2464332,-314.480010986328
5.2620582,-297.480010986328
5.2776832,-282.709991455078
5.2933082,-270.279998779297
5.3089332,-259.739990234375
5.3245582,-249.419998168945
5.3401832,-236.839996337891
5.3558082,-220.710006713867
5.3714332,-202.389999389648
5.3870582,-184.589996337891
5.4026832,-168.759994506836
5.4183082,-154.259994506836
5.4339332,-139.479995727539
5.4495582,-123.160003662109
5.4651832,-105.029998779297
5.4808082,-85.5400009155273
5.4964332,-65.3499984741211
5.5120582,-44.9199981689453
5.5276832,-24.7900009155273
5.5433082,-6.44000005722046
5.5589332,7.34999990463257
5.5745582,14.1000003814697
5.5901832,13.6999998092651
5.6058082,9.39999961853027
5.6214332,6.25
5.6370582,7.59000015258789
5.6526832,12.7799997329712
5.6683082,19.2800006866455
5.6839332,26.3899993896484
5.6995582,36.0099983215332
5.7151832,50.3800010681152
5.7308082,70.120002746582
5.7464332,94.1399993896484
5.7620582,121.370002746582
5.7776832,152.339996337891
5.7933082,188.619995117188
5.8089332,231.050003051758
5.8245582,278.450012207031
5.8401832,327.670013427734
5.8558082,327.670013427734
5.8714332,327.670013427734
5.8870582,327.670013427734
5.9026832,327.670013427734
5.9183082,327.670013427734
5.9339332,327.670013427734
5.9495582,327.670013427734
5.9651832,327.670013427734
5.9808082,327.670013427734
5.9964332,327.670013427734
6.0120582,327.670013427734
6.0276832,327.670013427734
6.0433082,327.670013427734
6.0589332,327.670013427734
6.0745582,327.670013427734
6.0901832,327.670013427734
6.1058082,327.670013427734
6.1214332,327.670013427734
6.1370582,327.670013427734
6.1526832,327.670013427734
6.1683082,327.670013427734
6.1839332,327.670013427734
6.1995582,327.670013427734
6.2151832,327.670013427734
6.2308082,327.670013427734
6.2464332,327.670013427734
6.2620582,327.670013427734
6.2776832,327.670013427734
6.2933082,327.670013427734
6.3089332,327.670013427734
6.3245582,327.670013427734
6.3401832,327.670013427734
6.3558082,327.670013427734
6.3714332,327.670013427734
6.3870582,327.670013427734
6.4026832,327.670013427734
6.4183082,327.670013427734
6.4339332,327.670013427734
6.4495582,327.670013427734
6.4651832,327.670013427734
6.4808082,327.670013427734
6.4964332,327.670013427734
6.5120582,327.670013427734
6.5276832,327.670013427734
6.5433082,327.670013427734
6.5589332,327.670013427734
6.5745582,327.670013427734
6.5901832,327.670013427734
6.6058082,327.670013427734
6.6214332,327.670013427734
6.6370582,327.670013427734
6.6526832,327.670013427734
6.6683082,327.670013427734
6.6839332,327.670013427734
6.6995582,327.670013427734
6.7151832,327.670013427734
6.7308082,327.670013427734
6.7464332,327.670013427734
6.7620582,327.670013427734
6.7776832,327.670013427734
6.7933082,327.670013427734
6.8089332,327.670013427734
6.8245582,327.670013427734
6.8401832,327.670013427734
6.8558082,327.670013427734
6.8714332,327.670013427734
6.8870582,327.670013427734
6.9026832,327.670013427734
6.9183082,327.670013427734
6.9339332,327.670013427734
6.9495582,327.670013427734
6.9651832,327.670013427734
6.9808082,327.670013427734
6.9964332,327.670013427734
7.0120582,327.670013427734
7.0276832,327.670013427734
7.0433082,327.670013427734
7.0589332,327.670013427734
7.0745582,327.670013427734
7.0901832,327.670013427734
7.1058082,327.670013427734
7.1214332,327.670013427734
7.1370582,327.670013427734
7.1526832,327.670013427734
7.1683082,327.670013427734
7.1839332,327.670013427734
7.1995582,327.670013427734
7.2151832,322.459991455078
7.2308082,303.839996337891
7.2464332,283.029998779297
7.2620582,260.619995117188
7.2776832,236.929992675781
7.2933082,212.369995117188
7.3089332,187.5
7.3245582,162.889999389648
7.3401832,138.949996948242
7.3558082,115.860000610352
7.3714332,93.620002746582
7.3870582,72.3199996948242
7.4026832,52.3300018310547
7.4183082,34.0499992370605
7.4339332,17.4400005340576
7.4495582,1.82000005245209
7.4651832,-13.960000038147
7.4808082,-31.0900001525879
7.4964332,-50.1800003051758
7.5120582,-71.3399963378906
7.5276832,-94.3399963378906
7.5433082,-118.730003356934
7.5589332,-143.830001831055
7.5745582,-168.850006103516
7.5901832,-193.149993896484
7.6058082,-216.539993286133
7.6214332,-239.289993286133
7.6370582,-261.890014648438
7.6526832,-284.609985351563
7.6683082,-307.510009765625
7.6839332,-327.679992675781
7.6995582,-327.679992675781
7.7151832,-327.679992675781
7.7308082,-327.679992675781
7.7464332,-327.679992675781
7.7620582,-327.679992675781
7.7776832,-327.679992675781
7.7933082,-327.679992675781
7.8089332,-327.679992675781
7.8245582,-327.679992675781
7.8401832,-327.679992675781
7.8558082,-327.679992675781
7.8714332,-327.679992675781
7.8870582,-327.679992675781
7.9026832,-327.679992675781
7.9183082,-327.679992675781
7.9339332,-327.679992675781
7.9495582,-327.679992675781
7.9651832,-327.679992675781
7.9808082,-327.679992675781
7.9964332,-327.679992675781
8.0120582,-327.679992675781
8.0276832,-327.679992675781
8.0433082,-327.679992675781
8.0589332,-327.679992675781
8.0745582,-327.679992675781
8.0901832,-327.679992675781
8.1058082,-327.679992675781
8.1214332,-327.679992675781
8.1370582,-327.679992675781
8.1526832,-327.679992675781
8.1683082,-327.679992675781
8.1839332,-327.679992675781
8.1995582,-327.679992675781
8.2151832,-327.679992675781
8.2308082,-327.679992675781
8.2464332,-327.679992675781
8.2620582,-327.679992675781
8.2776832,-327.679992675781
8.2933082,-327.679992675781
8.3089332,-327.679992675781
8.3245582,-327.679992675781
8.3401832,-327.679992675781
8.3558082,-313.399993896484
8.3714332,-297.070007324219
8.3870582,-288.179992675781
8.4026832,-296.760009765625
8.4183082,-327.679992675781
8.4339332,-327.679992675781
8.4495582,-327.679992675781
8.4651832,-327.679992675781
8.4808082,-327.679992675781
8.4964332,-327.679992675781
8.5120582,-327.679992675781
8.5276832,-327.679992675781
8.5433082,-327.679992675781
8.5589332,-327.679992675781
8.5745582,-327.679992675781
8.5901832,-327.679992675781
8.6058082,-327.679992675781
8.6214332,-312.209991455078
8.6370582,-259.299987792969
8.6526832,-217.889999389648
8.6683082,-180.220001220703
8.6839332,-137.119995117188
8.6995582,-82.0299987792969
8.7151832,-14.6000003814697
8.7308082,58.8600006103516
8.7464332,128.139999389648
8.7620582,182.740005493164
8.7776832,214.800003051758
8.7933082,220.410003662109
8.8089332,199.850006103516
8.8245582,157.630004882813
8.8401832,101.809997558594
8.8558082,41.5800018310547
8.8714332,-15.8199996948242
8.8870582,-67.0699996948242
8.9026832,-112.589996337891
8.9183082,-154.740005493164
8.9339332,-196.25
8.9495582,-240.850006103516
8.9651832,-293.910003662109
8.9808082,-327.679992675781
8.9964332,-327.679992675781
9.0120582,-327.679992675781
9.0276832,-327.679992675781
9.0433082,-327.679992675781
9.0589332,-327.679992675781
9.0745582,-327.679992675781
9.0901832,-327.679992675781
9.1058082,-327.679992675781
9.1214332,-327.679992675781
9.1370582,-327.679992675781
9.1526832,-286.839996337891
9.1683082,-206.889999389648
9.1839332,-128.070007324219
9.1995582,-45.1699981689453
9.2151832,44.0999984741211
9.2308082,137.050003051758
9.2464332,227.509994506836
9.2620582,309.480010986328
9.2776832,327.670013427734
9.2933082,327.670013427734
9.3089332,327.670013427734
9.3245582,327.670013427734
9.3401832,327.670013427734
9.3558082,327.670013427734
9.3714332,327.670013427734
9.3870582,327.670013427734
9.4026832,327.670013427734
9.4183082,312.179992675781
9.4339332,300.040008544922
9.4495582,289.820007324219
9.4651832,279.829986572266
9.4808082,270.170013427734
9.4964332,261.649993896484
9.5120582,254.600006103516
9.5276832,248.610000610352
9.5433082,242.830001831055
9.5589332,236.619995117188
9.5745582,229.929992675781
9.5901832,223.259994506836
9.6058082,217.229995727539
9.6214332,212.149993896484
9.6370582,208.029998779297
9.6526832,204.779998779297
9.6683082,202.479995727539
9.6839332,201.399993896484
9.6995582,201.75
9.7151832,203.339996337891
9.7308082,205.669998168945
9.7464332,208.089996337891
9.7620582,209.940002441406
9.7776832,210.529998779297
9.7933082,209.25
9.8089332,205.720001220703
9.8245582,200.0
9.8401832,192.669998168945
9.8558082,184.600006103516
9.8714332,176.770004272461
9.8870582,170.479995727539
9.9026832,167.449996948242
9.9183082,169.029998779297
9.9339332,175.149993896484
9.9495582,184.320007324219
9.9651832,194.539993286133
9.9808082,204.149993896484
9.9964332,212.210006713867
10.0120582,218.050003051758
10.0276832,220.839996337891
10.0433082,220.149993896484
10.0589332,216.570007324219
10.0745582,211.529998779297
10.0901832,206.399993896484
10.1058082,201.889999389648
10.1214332,198.009994506836
10.1370582,194.380004882813
10.1526832,190.520004272461
10.1683082,185.839996337891
10.1839332,179.559997558594
10.1995582,171.130004882813
10.2151832,160.710006713867
10.2308082,149.539993286133
10.2464332,139.600006103516
10.2620582,132.610000610352
10.2776832,129.059997558594
10.2933082,128.259994506836
10.3089332,129.0
10.3245582,129.960006713867
10.3401832,129.869995117188
10.3558082,127.449996948242
10.3714332,121.629997253418
10.3870582,112.040000915527
10.4026832,99.370002746582
10.4183082,85.0899963378906
10.4339332,70.8499984741211
10.4495582,58.2200012207031
10.4651832,48.5299987792969
10.4808082,42.5299987792969
10.4964332,39.9199981689453
10.5120582,39.7700004577637
10.5276832,41.1100006103516
10.5433082,43.2900009155273
10.5589332,45.8499984741211
10.5745582,48.2599983215332
10.5901832,49.7900009155273
10.6058082,49.8600006103516
10.6214332,48.3899993896484
10.6370582,45.6199989318848
10.6526832,41.7099990844727
10.6683082,36.75
10.6839332,30.8700008392334
10.6995582,24.4099998474121
10.7151832,17.7700004577637
10.7308082,11.1700000762939
10.7464332,4.51999998092651
10.7620582,-2.41000008583069
10.7776832,-9.77000045776367
10.7933082,-17.5100002288818
10.8089332,-25.5200004577637
10.8245582,-33.689998626709
10.8401832,-41.8199996948242
10.8558082,-49.6399993896484
10.8714332,-56.7799987792969
10.8870582,-62.9500007629395
10.9026832,-68.120002746582
10.9183082,-72.379997253418
10.9339332,-75.870002746582
10.9495582,-78.6600036621094
10.9651832,-80.8399963378906
10.9808082,-82.5699996948242
10.9964332,-83.9599990844727
11.0120582,-84.9000015258789
11.0276832,-84.9499969482422
11.0433082,-83.6699981689453
11.0589332,-80.9400024414063
11.0745582,-76.9700012207031
11.0901832,-72.0599975585938
11.1058082,-66.4300003051758
11.1214332,-60.3899993896484
11.1370582,-54.5099983215332
11.1526832,-49.5800018310547
11.1683082,-46.189998626709
11.1839332,-44.3699989318848
11.1995582,-43.7099990844727
11.2151832,-43.8499984741211
11.2308082,-44.6199989318848
11.2464332,-45.9300003051758
11.2620582,-47.6199989318848
11.2776832,-49.5099983215332
11.2933082,-51.6199989318848
11.3089332,-54.2299995422363
11.3245582,-57.7299995422363
11.3401832,-61.25
11.3558082,-65.620002746582
11.3714332,-70.8399963378906
11.3870582,-76.9100036621094
11.4026832,-83.5800018310547
11.4183082,-90.2699966430664
11.4339332,-96.2300033569336
11.4495582,-100.970001220703
11.4651832,-104.51000213623
