Time(s),Value(%)
775.0046269,11.3599996566772
775.0202519,11.9499998092651
775.0358769,12.6800003051758
775.0515019,13.3599996566772
775.0671269,13.6899995803833
775.0827519,13.4200000762939
775.0983769,12.4099998474121
775.1140019,10.7600002288818
775.1296269,8.60999965667725
775.1452519,6.05000019073486
775.1608769,3.05999994277954
775.1765019,-0.370000004768372
775.1921269,-4.19000005722046
775.2077519,-8.15999984741211
775.2233769,-11.9799995422363
775.2390019,-15.4200000762939
775.2546269,-18.3400001525879
775.2702519,-20.6800003051758
775.2858769,-22.4300003051758
775.3015019,-23.5
775.3171269,-23.9400005340576
775.3327519,-23.9699993133545
775.3483769,-23.8099994659424
775.3640019,-23.6100006103516
775.3796269,-23.3400001525879
775.3952519,-22.9300003051758
775.4108769,-22.2999992370605
775.4265019,-21.4400005340576
775.4421269,-20.3700008392334
775.4577519,-19.1299991607666
775.4733769,-17.7900009155273
775.4890019,-16.4899997711182
775.5046269,-15.4200000762939
775.5202519,-14.7299995422363
775.5358769,-14.4499998092651
775.5515019,-14.4899997711182
775.5671269,-14.75
775.5827519,-15.1499996185303
775.5983769,-15.6400003433228
775.6140019,-16.1399993896484
775.6296269,-16.6399993896484
775.6452519,-17.1000003814697
775.6608769,-17.5599994659424
775.6765019,-18.0400009155273
775.6921269,-18.5599994659424
775.7077519,-19.0699996948242
775.7233769,-19.4899997711182
775.7390019,-19.7399997711182
775.7546269,-19.7900009155273
775.7702519,-19.6700000762939
775.7858769,-19.4300003051758
775.8015019,-19.1599998474121
775.8171269,-19.0100002288818
775.8327519,-19.1499996185303
775.8483769,-19.6399993896484
775.8640019,-20.4500007629395
775.8796269,-21.4300003051758
775.8952519,-22.4200000762939
775.9108769,-23.3099994659424
775.9265019,-24.1399993896484
775.9421269,-25.1000003814697
775.9577519,-26.4099998474121
775.9733769,-28.1299991607666
775.9890019,-30.2199993133545
776.0046269,-32.6199989318848
776.0202519,-35.2700004577637
776.0358769,-38.0400009155273
776.0515019,-40.6199989318848
776.0671269,-42.5699996948242
776.0827519,-43.5
776.0983769,-43.3300018310547
776.1140019,-42.25
776.1296269,-40.5400009155273
776.1452519,-38.3899993896484
776.1608769,-35.9799995422363
776.1765019,-33.439998626709
776.1921269,-30.8799991607666
776.2077519,-28.3500003814697
776.2233769,-25.8199996948242
776.2390019,-23.2199993133545
776.2546269,-20.5200004577637
776.2702519,-17.7800006866455
776.2858769,-15.1300001144409
776.3015019,-12.5699996948242
776.3171269,-10.1499996185303
776.3327519,-7.90000009536743
776.3483769,-5.84999990463257
776.3640019,-4.05999994277954
776.3796269,-2.5699999332428
776.3952519,-1.38999998569489
776.4108769,-0.449999988079071
776.4265019,0.349999994039536
776.4421269,1.13999998569489
776.4577519,1.99000000953674
776.4733769,2.88000011444092
776.4890019,3.74000000953674
776.5046269,4.40999984741211
776.5202519,4.75
776.5358769,4.76000022888184
776.5515019,4.5
776.5671269,4.1100001335144
776.5827519,3.67000007629395
776.5983769,3.27999997138977
776.6140019,3.05999994277954
776.6296269,3.19000005722046
776.6452519,3.69000005722046
776.6608769,4.32999992370605
776.6765019,4.71999979019165
776.6921269,4.61999988555908
776.7077519,4.09000015258789
776.7233769,3.36999988555908
776.7390019,2.71000003814697
776.7546269,2.28999996185303
776.7702519,2.20000004768372
776.7858769,2.53999996185303
776.8015019,3.38000011444092
776.8171269,4.71999979019165
776.8327519,6.59999990463257
776.8483769,9.22000026702881
776.8640019,12.7799997329712
776.8796269,17.2600002288818
776.8952519,22.3700008392334
776.9108769,27.7800006866455
776.9265019,33.4799995422363
776.9421269,39.7799987792969
776.9577519,46.9000015258789
776.9733769,54.5299987792969
776.9890019,62.0999984741211
777.0046269,69.4400024414063
777.0202519,76.7799987792969
777.0358769,84.3499984741211
777.0515019,91.8499984741211
777.0671269,98.4800033569336
777.0827519,103.550003051758
777.0983769,107.040000915527
777.1140019,109.419998168945
777.1296269,110.959999084473
777.1452519,111.559997558594
777.1608769,111.089996337891
777.1765019,109.639999389648
777.1921269,107.400001525879
777.2077519,104.120002746582
777.2233769,98.7699966430664
777.2390019,90.3099975585938
777.2546269,78.5400009155273
777.2702519,64.25
777.2858769,48.2400016784668
777.3015019,32.0800018310547
777.3171269,16.5
777.3327519,2.3199999332428
777.3483769,-9.4399995803833
777.3640019,-18.2099990844727
777.3796269,-24.25
777.3952519,-28.5
777.4108769,-31.7600002288818
777.4265019,-34.3499984741211
777.4421269,-36.3199996948242
777.4577519,-37.689998626709
777.4733769,-38.5699996948242
777.4890019,-39.0900001525879
777.5046269,-39.3199996948242
777.5202519,-39.2700004577637
777.5358769,-38.9300003051758
777.5515019,-38.310001373291
777.5671269,-37.4199981689453
777.5827519,-36.25
777.5983769,-34.8199996948242
777.6140019,-33.1100006103516
777.6296269,-31.0
777.6452519,-28.2900009155273
777.6608769,-24.7999992370605
777.6765019,-20.6100006103516
777.6921269,-16.0300006866455
777.7077519,-11.5200004577637
777.7233769,-7.44000005722046
777.7390019,-3.91000008583069
777.7546269,-0.839999973773956
777.7702519,2.03999996185303
777.7858769,5.09000015258789
777.8015019,8.57999992370605
777.8171269,12.539999961853
777.8327519,16.8500003814697
777.8483769,21.3799991607666
777.8640019,26.0499992370605
777.8796269,30.7299995422363
777.8952519,35.0800018310547
777.9108769,38.560001373291
777.9265019,40.7400016784668
777.9421269,41.5400009155273
777.9577519,41.25
777.9733769,40.2599983215332
777.9890019,38.8300018310547
778.0046269,37.1599998474121
778.0202519,35.3699989318848
778.0358769,33.5499992370605
778.0515019,31.7299995422363
778.0671269,29.8600006103516
778.0827519,27.8799991607666
778.0983769,25.7700004577637
778.1140019,23.4799995422363
778.1296269,20.9500007629395
778.1452519,18.1000003814697
778.1608769,14.960000038147
778.1765019,11.6800003051758
778.1921269,8.47999954223633
778.2077519,5.46999979019165
778.2233769,2.6800000667572
778.2390019,0.0900000035762787
778.2546269,-2.24000000953674
778.2702519,-4.19000005722046
778.2858769,-5.65999984741211
778.3015019,-6.73000001907349
778.3171269,-7.55000019073486
778.3327519,-8.1899995803833
778.3483769,-8.64000034332275
778.3640019,-8.82999992370605
778.3796269,-8.69999980926514
778.3952519,-8.22999954223633
778.4108769,-7.34000015258789
778.4265019,-5.96000003814697
778.4421269,-4.15999984741211
778.4577519,-2.13000011444092
778.4733769,-0.170000001788139
778.4890019,1.48000001907349
778.5046269,2.73000001907349
778.5202519,3.48000001907349
778.5358769,3.65000009536743
778.5515019,3.20000004768372
778.5671269,2.22000002861023
778.5827519,0.910000026226044
778.5983769,-0.5
778.6140019,-1.94000005722046
778.6296269,-3.53999996185303
778.6452519,-5.48000001907349
778.6608769,-7.88000011444092
778.6765019,-10.8100004196167
778.6921269,-14.4499998092651
778.7077519,-18.9400005340576
778.7233769,-24.1499996185303
778.7390019,-29.6299991607666
778.7546269,-34.7599983215332
778.7702519,-39.3499984741211
778.7858769,-43.9199981689453
778.8015019,-49.1500015258789
778.8171269,-55.1199989318848
778.8327519,-61.2000007629395
778.8483769,-66.6100006103516
778.8640019,-70.8899993896484
778.8796269,-74.0500030517578
778.8952519,-76.4000015258789
778.9108769,-78.2699966430664
778.9265019,-79.8899993896484
778.9421269,-81.3600006103516
778.9577519,-82.8300018310547
778.9733769,-84.5999984741211
778.9890019,-86.9400024414063
779.0046269,-89.8099975585938
779.0202519,-92.5899963378906
779.0358769,-94.2099990844727
779.0515019,-93.75
779.0671269,-91.0999984741211
779.0827519,-86.7900009155273
779.0983769,-81.5199966430664
779.1140019,-75.75
779.1296269,-69.7399978637695
779.1452519,-63.6399993896484
779.1608769,-57.5999984741211
779.1765019,-51.7299995422363
779.1921269,-46.1399993896484
779.2077519,-40.8400001525879
779.2233769,-35.8600006103516
779.2390019,-31.2399997711182
779.2546269,-27.0900001525879
779.2702519,-23.5599994659424
779.2858769,-20.3700008392334
779.3015019,-17.6000003814697
779.3171269,-14.9099998474121
779.3327519,-12.0600004196167
779.3483769,-9.14999961853027
779.3640019,-6.42999982833862
779.3796269,-4.0
779.3952519,-1.77999997138977
779.4108769,0.270000010728836
779.4265019,2.14000010490417
779.4421269,3.79999995231628
779.4577519,5.3600001335144
779.4733769,7.07000017166138
779.4890019,9.06999969482422
779.5046269,11.2399997711182
779.5202519,13.2799997329712
779.5358769,15.0200004577637
779.5515019,16.5400009155273
779.5671269,18.0100002288818
779.5827519,19.5499992370605
779.5983769,21.1700000762939
779.6140019,22.6900005340576
779.6296269,23.8299999237061
779.6452519,24.3400001525879
779.6608769,24.1399993896484
779.6765019,23.2800006866455
779.6921269,21.75
779.7077519,19.5300006866455
779.7233769,16.7700004577637
779.7390019,13.9399995803833
779.7546269,11.75
779.7702519,10.7200002670288
779.7858769,10.7399997711182
779.8015019,11.3599996566772
779.8171269,12.2200002670288
779.8327519,13.289999961853
779.8483769,14.6599998474121
779.8640019,16.3500003814697
779.8796269,18.25
779.8952519,20.2199993133545
779.9108769,22.1100006103516
779.9265019,23.8600006103516
779.9421269,25.4699993133545
779.9577519,26.8700008392334
779.9733769,27.9699993133545
779.9890019,28.6499996185303
780.0046269,28.9300003051758
780.0202519,29.0400009155273
780.0358769,29.3999996185303
780.0515019,30.3299999237061
780.0671269,31.8400001525879
780.0827519,33.6800003051758
780.0983769,35.6100006103516
780.1140019,37.5499992370605
780.1296269,39.4799995422363
780.1452519,41.3899993896484
780.1608769,43.25
780.1765019,44.9700012207031
780.1921269,46.4300003051758
780.2077519,47.5400009155273
780.2233769,48.2900009155273
780.2390019,48.7000007629395
780.2546269,48.810001373291
780.2702519,48.6300010681152
780.2858769,48.2000007629395
780.3015019,47.7000007629395
780.3171269,47.4000015258789
780.3327519,47.4799995422363
780.3483769,47.8899993896484
780.3640019,48.4000015258789
780.3796269,48.8499984741211
780.3952519,49.189998626709
780.4108769,49.439998626709
780.4265019,49.5499992370605
780.4421269,49.3600006103516
780.4577519,48.7099990844727
780.4733769,47.6399993896484
780.4890019,46.3199996948242
780.5046269,44.7999992370605
780.5202519,43.0099983215332
780.5358769,40.8400001525879
780.5515019,38.3600006103516
780.5671269,35.8600006103516
780.5827519,33.7200012207031
780.5983769,32.1599998474121
780.6140019,31.1399993896484
780.6296269,30.4599990844727
780.6452519,29.9200000762939
780.6608769,29.4400005340576
780.6765019,29.0499992370605
780.6921269,28.7800006866455
780.7077519,28.6200008392334
780.7233769,28.5100002288818
780.7390019,28.3799991607666
780.7546269,28.1800003051758
780.7702519,27.8999996185303
780.7858769,27.5300006866455
780.8015019,27.0400009155273
780.8171269,26.3099994659424
780.8327519,25.2399997711182
780.8483769,23.8299999237061
780.8640019,22.2700004577637
780.8796269,20.8500003814697
780.8952519,19.8299999237061
780.9108769,19.2099990844727
780.9265019,18.8400001525879
780.9421269,18.5799999237061
780.9577519,18.4200000762939
780.9733769,18.3700008392334
780.9890019,18.3999996185303
781.0046269,18.4599990844727
781.0202519,18.4400005340576
781.0358769,18.1700000762939
781.0515019,17.5400009155273
781.0671269,16.5499992370605
781.0827519,15.25
781.0983769,13.6800003051758
781.1140019,11.8699998855591
781.1296269,9.89999961853027
781.1452519,7.94000005722046
781.1608769,6.26999998092651
781.1765019,5.07999992370605
781.1921269,4.28999996185303
781.2077519,3.6800000667572
781.2233769,3.04999995231628
781.2390019,2.3199999332428
781.2546269,1.41999995708466
781.2702519,0.300000011920929
781.2858769,-1.02999997138977
781.3015019,-2.46000003814697
781.3171269,-3.75
781.3327519,-4.75
781.3483769,-5.51000022888184
781.3640019,-6.21000003814697
781.3796269,-6.90999984741211
781.3952519,-7.57999992370605
781.4108769,-8.11999988555908
781.4265019,-8.53999996185303
781.4421269,-8.96000003814697
781.4577519,-9.48999977111816
781.4733769,-10.0600004196167
781.4890019,-10.4899997711182
781.5046269,-10.5799999237061
781.5202519,-10.2399997711182
781.5358769,-9.47999954223633
781.5515019,-8.32999992370605
781.5671269,-6.8600001335144
781.5827519,-5.1399998664856
781.5983769,-3.27999997138977
781.6140019,-1.39999997615814
781.6296269,0.389999985694885
781.6452519,2.02999997138977
781.6608769,3.41000008583069
781.6765019,4.44000005722046
781.6921269,5.1100001335144
781.7077519,5.5
781.7233769,5.69999980926514
781.7390019,5.78000020980835
781.7546269,5.73000001907349
781.7702519,5.51999998092651
781.7858769,5.11999988555908
781.8015019,4.51999998092651
781.8171269,3.69000005722046
781.8327519,2.64000010490417
781.8483769,1.39999997615814
781.8640019,0.0299999993294477
781.8796269,-1.39999997615814
781.8952519,-2.86999988555908
781.9108769,-4.34999990463257
781.9265019,-5.78999996185303
781.9421269,-7.09999990463257
781.9577519,-8.22000026702881
781.9733769,-9.10999965667725
781.9890019,-9.84000015258789
782.0046269,-10.4799995422363
782.0202519,-11.1400003433228
782.0358769,-11.8900003433228
782.0515019,-12.7600002288818
782.0671269,-13.75
782.0827519,-14.8400001525879
782.0983769,-16.0699996948242
782.1140019,-17.4599990844727
782.1296269,-19.0200004577637
782.1452519,-20.6399993896484
782.1608769,-22.2099990844727
782.1765019,-23.6100006103516
782.1921269,-24.8099994659424
782.2077519,-25.8400001525879
782.2233769,-26.6800003051758
782.2390019,-27.3199996948242
782.2546269,-27.7299995422363
782.2702519,-27.9699993133545
782.2858769,-28.1200008392334
782.3015019,-28.2600002288818
782.3171269,-28.4400005340576
782.3327519,-28.6599998474121
782.3483769,-28.9300003051758
782.3640019,-29.2099990844727
782.3796269,-29.4699993133545
782.3952519,-29.6900005340576
782.4108769,-29.8799991607666
782.4265019,-29.9500007629395
782.4421269,-29.8099994659424
782.4577519,-29.3400001525879
782.4733769,-28.5200004577637
782.4890019,-27.4599990844727
782.5046269,-26.2999992370605
782.5202519,-25.1700000762939
782.5358769,-24.1399993896484
782.5515019,-23.2800006866455
782.5671269,-22.6299991607666
782.5827519,-22.2299995422363
782.5983769,-21.9699993133545
782.6140019,-21.7099990844727
782.6296269,-21.3400001525879
782.6452519,-20.8400001525879
782.6608769,-20.2099990844727
782.6765019,-19.5
782.6921269,-18.75
782.7077519,-18.0699996948242
782.7233769,-17.5400009155273
782.7390019,-17.2600002288818
782.7546269,-17.2099990844727
782.7702519,-17.3099994659424
782.7858769,-17.5
782.8015019,-17.7299995422363
782.8171269,-17.9899997711182
782.8327519,-18.2600002288818
782.8483769,-18.5499992370605
782.8640019,-18.8099994659424
782.8796269,-19.0499992370605
782.8952519,-19.2299995422363
782.9108769,-19.3600006103516
782.9265019,-19.4599990844727
782.9421269,-19.5599994659424
782.9577519,-19.6800003051758
782.9733769,-19.8400001525879
782.9890019,-20.0300006866455
783.0046269,-20.2600002288818
783.0202519,-20.5300006866455
783.0358769,-20.7700004577637
783.0515019,-20.9099998474121
783.0671269,-20.8899993896484
783.0827519,-20.7199993133545
783.0983769,-20.4400005340576
783.1140019,-20.1100006103516
783.1296269,-19.75
783.1452519,-19.2099990844727
783.1608769,-18.1499996185303
783.1765019,-16.2600002288818
783.1921269,-13.4499998092651
783.2077519,-9.82999992370605
783.2233769,-5.53000020980835
783.2390019,-0.610000014305115
783.2546269,4.71000003814697
783.2702519,9.97000026702881
783.2858769,14.4899997711182
783.3015019,17.8099994659424
783.3171269,20.0400009155273
783.3327519,21.6100006103516
783.3483769,22.8099994659424
783.3640019,23.6000003814697
783.3796269,23.8600006103516
783.3952519,23.5900001525879
783.4108769,22.9300003051758
783.4265019,22.1599998474121
783.4421269,21.5300006866455
783.4577519,21.2399997711182
783.4733769,21.2900009155273
783.4890019,21.6399993896484
783.5046269,22.2800006866455
783.5202519,23.2299995422363
783.5358769,24.3899993896484
783.5515019,25.4699993133545
783.5671269,25.9400005340576
783.5827519,25.4400005340576
783.5983769,24.0400009155273
783.6140019,22.1800003051758
783.6296269,20.2399997711182
783.6452519,18.4099998474121
783.6608769,16.7199993133545
783.6765019,15.1899995803833
783.6921269,13.789999961853
783.7077519,12.3800001144409
783.7233769,10.7299995422363
783.7390019,8.65999984741211
783.7546269,6.23999977111816
783.7702519,3.70000004768372
783.7858769,1.23000001907349
783.8015019,-1.0900000333786
783.8171269,-3.33999991416931
783.8327519,-5.53999996185303
783.8483769,-7.71000003814697
783.8640019,-9.71000003814697
783.8796269,-11.3100004196167
783.8952519,-12.3199996948242
783.9108769,-12.6700000762939
783.9265019,-12.3199996948242
783.9421269,-11.1499996185303
783.9577519,-9.02999973297119
783.9733769,-6.07000017166138
783.9890019,-2.75999999046326
784.0046269,0.180000007152557
784.0202519,2.3199999332428
784.0358769,3.80999994277954
784.0515019,5.07000017166138
784.0671269,6.26999998092651
784.0827519,7.17000007629395
784.0983769,7.46000003814697
784.1140019,7.07000017166138
784.1296269,6.17999982833862
784.1452519,5.1399998664856
784.1608769,4.30000019073486
784.1765019,3.91000008583069
784.1921269,3.98000001907349
784.2077519,4.46999979019165
784.2233769,5.3600001335144
784.2390019,6.67999982833862
784.2546269,8.32999992370605
784.2702519,9.89000034332275
784.2858769,10.6700000762939
784.3015019,10.1199998855591
784.3171269,8.27000045776367
784.3327519,5.6399998664856
784.3483769,2.73000001907349
784.3640019,-0.189999997615814
784.3796269,-3.09999990463257
784.3952519,-6.0
784.4108769,-8.90999984741211
784.4265019,-11.789999961853
784.4421269,-14.6700000762939
784.4577519,-17.5400009155273
784.4733769,-20.3899993896484
784.4890019,-23.1800003051758
784.5046269,-25.7999992370605
784.5202519,-28.2099990844727
784.5358769,-30.3799991607666
784.5515019,-32.4000015258789
784.5671269,-34.4500007629395
784.5827519,-36.7099990844727
784.5983769,-39.2099990844727
784.6140019,-41.8499984741211
784.6296269,-44.4799995422363
784.6452519,-46.9500007629395
784.6608769,-49.1800003051758
784.6765019,-51.1699981689453
784.6921269,-52.8800010681152
784.7077519,-54.1300010681152
784.7233769,-54.5299987792969
784.7390019,-53.7000007629395
784.7546269,-51.5499992370605
784.7702519,-48.2200012207031
784.7858769,-43.8300018310547
784.8015019,-38.4500007629395
784.8171269,-32.3199996948242
784.8327519,-26.0599994659424
784.8483769,-20.4599990844727
784.8640019,-15.960000038147
784.8796269,-12.210000038147
784.8952519,-8.5
784.9108769,-4.55999994277954
784.9265019,-0.720000028610229
784.9421269,2.50999999046326
784.9577519,4.88000011444092
784.9733769,6.48999977111816
784.9890019,7.65000009536743
785.0046269,8.72000026702881
785.0202519,9.89999961853027
785.0358769,11.2600002288818
785.0515019,12.8500003814697
785.0671269,14.789999961853
785.0827519,17.2399997711182
785.0983769,20.1200008392334
785.1140019,22.9099998474121
785.1296269,24.7199993133545
785.1452519,24.8400001525879
785.1608769,23.2399997711182
785.1765019,20.5100002288818
785.1921269,17.2900009155273
785.2077519,13.9300003051758
785.2233769,10.5699996948242
785.2390019,7.23000001907349
785.2546269,3.95000004768372
785.2702519,0.740000009536743
785.2858769,-2.35999989509583
785.3015019,-5.3600001335144
785.3171269,-8.23999977111816
785.3327519,-10.8900003433228
785.3483769,-13.1400003433228
785.3640019,-14.8199996948242
785.3796269,-15.9300003051758
785.3952519,-16.6700000762939
785.4108769,-17.3899993896484
785.4265019,-18.2199993133545
785.4421269,-18.9300003051758
785.4577519,-19.1499996185303
785.4733769,-18.7099990844727
785.4890019,-17.6499996185303
785.5046269,-15.9300003051758
785.5202519,-13.4399995803833
785.5358769,-10.25
785.5515019,-6.78000020980835
785.5671269,-3.72000002861023
785.5827519,-1.54999995231628
785.5983769,-0.209999993443489
785.6140019,0.670000016689301
785.6296269,1.27999997138977
785.6452519,1.48000001907349
785.6608769,1.08000004291534
785.6765019,0.109999999403954
785.6921269,-1.24000000953674
785.7077519,-2.74000000953674
785.7233769,-4.30000019073486
785.7390019,-5.92999982833862
785.7546269,-7.65000009536743
785.7702519,-9.39999961853027
