Time(s),Value(%)
480.0089315,-77.1800003051758
480.0245565,-79.4100036621094
480.0401815,-78.0599975585938
480.0558065,-73.6399993896484
480.0714315,-67.0299987792969
480.0870565,-59.1199989318848
480.1026815,-50.6500015258789
480.1183065,-42.1699981689453
480.1339315,-34.0299987792969
480.1495565,-26.1599998474121
480.1651815,-18.1200008392334
480.1808065,-9.42000007629395
480.1964315,0.0700000002980232
480.2120565,10.1199998855591
480.2276815,20.2900009155273
480.2433065,30.1399993896484
480.2589315,39.3699989318848
480.2745565,47.5900001525879
480.2901815,54.2200012207031
480.3058065,58.7999992370605
480.3214315,61.2900009155273
480.3370565,62.1599998474121
480.3526815,62.060001373291
480.3683065,61.5900001525879
480.3839315,61.1399993896484
480.3995565,60.8699989318848
480.4151815,60.7700004577637
480.4308065,60.7400016784668
480.4464315,60.6300010681152
480.4620565,60.310001373291
480.4776815,59.5999984741211
480.4933065,58.3800010681152
480.5089315,56.5800018310547
480.5245565,54.2999992370605
480.5401815,51.7000007629395
480.5558065,49.0099983215332
480.5714315,46.3400001525879
480.5870565,43.6500015258789
480.6026815,40.6500015258789
480.6183065,37.0800018310547
480.6339315,32.8400001525879
480.6495565,28.0
480.6651815,22.6599998474121
480.6808065,16.8899993896484
480.6964315,10.8699998855591
480.7120565,5.01000022888184
480.7276815,-0.0199999995529652
480.7433065,-3.65000009536743
480.7589315,-5.63000011444092
480.7745565,-6.09999990463257
480.7901815,-5.38000011444092
480.8058065,-3.84999990463257
480.8214315,-1.87000000476837
480.8370565,0.230000004172325
480.8526815,2.23000001907349
480.8683065,4.17999982833862
480.8839315,6.3600001335144
480.8995565,9.10999965667725
480.9151815,12.5200004577637
480.9308065,16.4099998474121
480.9464315,20.4599990844727
480.9620565,24.3799991607666
480.9776815,27.9500007629395
480.9933065,30.8999996185303
481.0089315,32.810001373291
481.0245565,33.2999992370605
481.0401815,32.25
481.0558065,29.9200000762939
481.0714315,26.7700004577637
481.0870565,23.2800006866455
481.1026815,19.8099994659424
481.1183065,16.5400009155273
481.1339315,13.4899997711182
481.1495565,10.4499998092651
481.1651815,7.09999990463257
481.1808065,3.16000008583069
481.1964315,-1.41999995708466
481.2120565,-6.61999988555908
481.2276815,-12.3599996566772
481.2433065,-18.6399993896484
481.2589315,-25.2999992370605
481.2745565,-31.8999996185303
481.2901815,-37.7700004577637
481.3058065,-42.5099983215332
481.3214315,-46.2999992370605
481.3370565,-49.6399993896484
481.3526815,-52.7900009155273
481.3683065,-55.6599998474121
481.3839315,-58.0099983215332
481.3995565,-59.7400016784668
481.4151815,-60.9500007629395
481.4308065,-61.9900016784668
481.4464315,-63.310001373291
481.4620565,-65.2699966430664
481.4776815,-67.9199981689453
481.4933065,-70.9199981689453
481.5089315,-73.7799987792969
481.5245565,-76.0899963378906
481.5401815,-77.620002746582
481.5558065,-78.129997253418
481.5714315,-77.1999969482422
481.5870565,-74.2300033569336
481.6026815,-68.8199996948242
481.6183065,-61.1500015258789
481.6339315,-52.0499992370605
481.6495565,-42.6399993896484
481.6651815,-33.8499984741211
481.6808065,-26.1100006103516
481.6964315,-19.3899993896484
481.7120565,-13.3400001525879
481.7276815,-7.59999990463257
481.7433065,-1.95000004768372
481.7589315,3.61999988555908
481.7745565,8.84000015258789
481.7901815,13.1999998092651
481.8058065,16.2800006866455
481.8214315,17.9400005340576
481.8370565,18.2800006866455
481.8526815,17.2299995422363
481.8683065,14.5900001525879
481.8839315,10.2399997711182
481.8995565,4.5
481.9151815,-1.75999999046326
481.9308065,-7.46999979019165
481.9464315,-11.960000038147
481.9620565,-15.1400003433228
481.9776815,-17.4599990844727
481.9933065,-19.6900005340576
482.0089315,-22.6900005340576
482.0245565,-27.0599994659424
482.0401815,-32.7599983215332
482.0558065,-39.2599983215332
482.0714315,-45.7900009155273
482.0870565,-51.7599983215332
482.1026815,-56.8899993896484
482.1183065,-60.9799995422363
482.1339315,-63.810001373291
482.1495565,-65.1600036621094
482.1651815,-65.1500015258789
482.1808065,-64.3399963378906
482.1964315,-63.560001373291
482.2120565,-63.6100006103516
482.2276815,-64.6399993896484
482.2433065,-66.1900024414063
482.2589315,-67.3000030517578
482.2745565,-67.0199966430664
482.2901815,-64.7799987792969
482.3058065,-60.5200004577637
482.3214315,-54.4599990844727
482.3370565,-46.7999992370605
482.3526815,-37.5499992370605
482.3683065,-26.7299995422363
482.3839315,-14.7299995422363
482.3995565,-2.38000011444092
482.4151815,9.35999965667725
482.4308065,19.9899997711182
482.4464315,29.7800006866455
482.4620565,39.2200012207031
482.4776815,48.2799987792969
482.4933065,56.3800010681152
482.5089315,62.9799995422363
482.5245565,67.9700012207031
482.5401815,71.6999969482422
482.5558065,74.6100006103516
482.5714315,76.9199981689453
482.5870565,78.6500015258789
482.6026815,79.7699966430664
482.6183065,80.3499984741211
482.6339315,80.5500030517578
482.6495565,80.5899963378906
482.6651815,80.5299987792969
482.6808065,80.2399978637695
482.6964315,79.2799987792969
482.7120565,77.1699981689453
482.7276815,73.6800003051758
482.7433065,68.9499969482422
482.7589315,63.4099998474121
482.7745565,57.5800018310547
482.7901815,51.810001373291
482.8058065,46.2700004577637
482.8214315,40.9799995422363
482.8370565,35.9799995422363
482.8526815,31.3999996185303
482.8683065,27.3600006103516
482.8839315,23.8500003814697
482.8995565,20.7299995422363
482.9151815,17.8799991607666
482.9308065,15.2299995422363
482.9464315,12.7399997711182
482.9620565,10.4099998474121
482.9776815,8.28999996185303
482.9933065,6.65999984741211
483.0089315,6.1100001335144
483.0245565,7.21000003814697
483.0401815,10.0100002288818
483.0558065,13.9700002670288
483.0714315,18.2900009155273
483.0870565,22.2900009155273
483.1026815,25.6900005340576
483.1183065,28.8500003814697
483.1339315,32.6500015258789
483.1495565,37.939998626709
483.1651815,44.9799995422363
483.1808065,53.4500007629395
483.1964315,62.8899993896484
483.2120565,72.9000015258789
483.2276815,82.9700012207031
483.2433065,92.0500030517578
483.2589315,98.4899978637695
483.2745565,101.040000915527
483.2901815,99.7399978637695
483.3058065,95.7699966430664
483.3214315,90.4300003051758
483.3370565,84.5500030517578
483.3526815,78.5100021362305
483.3683065,72.4899978637695
483.3839315,66.5100021362305
483.3995565,60.4900016784668
483.4151815,54.1100006103516
483.4308065,47.0699996948242
483.4464315,39.2200012207031
483.4620565,30.6900005340576
483.4776815,21.7900009155273
483.4933065,12.9099998474121
483.5089315,4.34000015258789
483.5245565,-3.73000001907349
483.5401815,-11.3199996948242
483.5558065,-18.5699996948242
483.5714315,-25.7600002288818
483.5870565,-33.1399993896484
483.6026815,-40.7799987792969
483.6183065,-48.6699981689453
483.6339315,-56.9000015258789
483.6495565,-65.5400009155273
483.6651815,-74.4700012207031
483.6808065,-83.2600021362305
483.6964315,-91.1999969482422
483.7120565,-97.629997253418
483.7276815,-102.209999084473
483.7433065,-104.900001525879
483.7589315,-105.860000610352
483.7745565,-105.339996337891
483.7901815,-103.769996643066
483.8058065,-101.629997253418
483.8214315,-99.3199996948242
483.8370565,-96.9100036621094
483.8526815,-94.0999984741211
483.8683065,-90.4899978637695
483.8839315,-85.9400024414063
483.8995565,-80.6999969482422
483.9151815,-75.2200012207031
483.9308065,-69.9000015258789
483.9464315,-65.0500030517578
483.9620565,-60.9500007629395
483.9776815,-58.0699996948242
483.9933065,-56.8699989318848
484.0089315,-57.5099983215332
484.0245565,-59.7200012207031
484.0401815,-62.8699989318848
484.0558065,-66.2300033569336
484.0714315,-69.25
484.0870565,-71.6999969482422
484.1026815,-73.6100006103516
484.1183065,-75.2300033569336
484.1339315,-76.879997253418
484.1495565,-78.7900009155273
484.1651815,-81.0
484.1808065,-83.4000015258789
484.1964315,-85.8199996948242
484.2120565,-88.0299987792969
484.2276815,-90.0299987792969
484.2433065,-91.5899963378906
484.2589315,-92.3000030517578
484.2745565,-91.879997253418
484.2901815,-90.4300003051758
484.3058065,-88.3600006103516
484.3214315,-86.1100006103516
484.3370565,-83.8899993896484
484.3526815,-81.7099990844727
484.3683065,-79.5
484.3839315,-77.1600036621094
484.3995565,-74.5199966430664
484.4151815,-71.2900009155273
484.4308065,-67.2200012207031
484.4464315,-62.25
484.4620565,-56.2000007629395
484.4776815,-48.6100006103516
484.4933065,-39.0099983215332
484.5089315,-27.5
484.5245565,-14.9200000762939
484.5401815,-2.36999988555908
484.5558065,9.55000019073486
484.5714315,21.2000007629395
484.5870565,33.0499992370605
484.6026815,44.75
484.6183065,55.2400016784668
484.6339315,63.5999984741211
484.6495565,69.6699981689453
484.6651815,74.0100021362305
484.6808065,77.2900009155273
484.6964315,79.8899993896484
484.7120565,81.8300018310547
484.7276815,83.0599975585938
484.7433065,83.6399993896484
484.7589315,83.8199996948242
484.7745565,83.879997253418
484.7901815,83.9300003051758
484.8058065,83.7399978637695
484.8214315,82.6500015258789
484.8370565,80.0599975585938
484.8526815,75.7600021362305
484.8683065,70.1500015258789
484.8839315,63.8899993896484
484.8995565,57.5400009155273
484.9151815,51.3400001525879
484.9308065,45.25
484.9464315,39.189998626709
484.9620565,33.1800003051758
484.9776815,27.3500003814697
484.9933065,21.7800006866455
485.0089315,16.4400005340576
485.0245565,11.2600002288818
485.0401815,6.28999996185303
485.0558065,1.73000001907349
485.0714315,-2.25
485.0870565,-5.65999984741211
485.1026815,-8.56999969482422
485.1183065,-10.9300003051758
485.1339315,-12.4700002670288
485.1495565,-12.8699998855591
485.1651815,-12.0200004577637
485.1808065,-9.78999996185303
485.1964315,-5.84000015258789
485.2120565,0.180000007152557
485.2276815,8.02999973297119
485.2433065,16.8299999237061
485.2589315,25.4599990844727
485.2745565,33.3800010681152
485.2901815,41.0
485.3058065,48.9199981689453
485.3214315,56.9300003051758
485.3370565,64.0400009155273
485.3526815,69.3399963378906
485.3683065,72.629997253418
485.3839315,74.3099975585938
485.3995565,74.8399963378906
485.4151815,74.2600021362305
485.4308065,72.3000030517578
485.4464315,68.8600006103516
485.4620565,64.0299987792969
485.4776815,57.939998626709
485.4933065,50.7099990844727
485.5089315,42.6100006103516
485.5245565,33.9900016784668
485.5401815,25.0
485.5558065,15.3100004196167
485.5714315,4.09999990463257
485.5870565,-9.0600004196167
485.6026815,-23.5900001525879
485.6183065,-38.0699996948242
485.6339315,-51.1300010681152
485.6495565,-62.1399993896484
485.6651815,-71.2900009155273
485.6808065,-79.4700012207031
485.6964315,-87.8199996948242
485.7120565,-97.2099990844727
485.7276815,-107.839996337891
485.7433065,-119.51000213623
485.7589315,-132.089996337891
485.7745565,-145.559997558594
485.7901815,-159.529998779297
485.8058065,-172.630004882813
485.8214315,-182.630004882813
485.8370565,-187.619995117188
485.8526815,-187.179992675781
485.8683065,-182.309997558594
485.8839315,-174.429992675781
485.8995565,-164.669998168945
485.9151815,-153.889999389648
485.9308065,-142.75
485.9464315,-131.699996948242
485.9620565,-120.98999786377
485.9776815,-110.599998474121
485.9933065,-100.410003662109
486.0089315,-90.370002746582
486.0245565,-80.6500015258789
486.0401815,-71.6900024414063
486.0558065,-63.8899993896484
486.0714315,-57.3600006103516
486.0870565,-51.8699989318848
486.1026815,-47.0299987792969
486.1183065,-42.7599983215332
486.1339315,-39.3499984741211
486.1495565,-37.0699996948242
486.1651815,-35.6800003051758
486.1808065,-34.4700012207031
486.1964315,-32.7400016784668
486.2120565,-29.9400005340576
486.2276815,-26.5699996948242
486.2433065,-23.2600002288818
486.2589315,-20.8500003814697
486.2745565,-19.9500007629395
486.2901815,-20.7000007629395
486.3058065,-22.9599990844727
486.3214315,-26.7800006866455
486.3370565,-32.2700004577637
486.3526815,-39.0999984741211
486.3683065,-46.0499992370605
486.3839315,-51.3699989318848
486.3995565,-53.8699989318848
486.4151815,-53.8800010681152
486.4308065,-52.5999984741211
486.4464315,-50.8199996948242
486.4620565,-48.4599990844727
486.4776815,-45.1599998474121
486.4933065,-40.7799987792969
486.5089315,-35.5499992370605
486.5245565,-29.6900005340576
486.5401815,-23.1299991607666
486.5558065,-15.6199998855591
486.5714315,-7.09000015258789
486.5870565,2.45000004768372
486.6026815,13.1000003814697
486.6183065,24.9599990844727
486.6339315,37.8199996948242
486.6495565,51.2599983215332
486.6651815,64.879997253418
486.6808065,78.6800003051758
486.6964315,92.9400024414063
486.7120565,107.699996948242
486.7276815,122.25
486.7433065,135.429992675781
486.7589315,146.429992675781
486.7745565,155.169998168945
486.7901815,162.199996948242
486.8058065,168.220001220703
486.8214315,173.770004272461
486.8370565,179.050003051758
486.8526815,184.029998779297
486.8683065,188.619995117188
486.8839315,192.880004882813
486.8995565,196.889999389648
486.9151815,200.669998168945
486.9308065,203.869995117188
486.9464315,205.850006103516
486.9620565,205.990005493164
486.9776815,204.210006713867
486.9933065,200.940002441406
487.0089315,196.770004272461
487.0245565,192.199996948242
487.0401815,187.509994506836
487.0558065,182.809997558594
487.0714315,178.110000610352
487.0870565,173.380004882813
487.1026815,168.570007324219
487.1183065,163.660003662109
487.1339315,158.660003662109
487.1495565,153.699996948242
487.1651815,149.020004272461
487.1808065,144.789993286133
487.1964315,141.050003051758
487.2120565,136.199996948242
487.2276815,131.660003662109
487.2433065,127.519996643066
487.2589315,124.269996643066
487.2745565,122.349998474121
487.2901815,121.76000213623
487.3058065,122.120002746582
487.3214315,123.180000305176
487.3370565,124.910003662109
487.3526815,127.129997253418
487.3683065,129.270004272461
487.3839315,130.369995117188
487.3995565,129.610000610352
487.4151815,126.800003051758
487.4308065,122.23999786377
487.4464315,116.309997558594
487.4620565,109.25
487.4776815,101.349998474121
487.4933065,93.0
487.5089315,84.5599975585938
487.5245565,76.0500030517578
487.5401815,67.0699996948242
487.5558065,57.0900001525879
487.5714315,45.9700012207031
487.5870565,33.9099998474121
487.6026815,21.2399997711182
487.6183065,8.25
487.6339315,-4.69999980926514
487.6495565,-17.0799999237061
487.6651815,-28.1200008392334
487.6808065,-37.3699989318848
487.6964315,-45.0
487.7120565,-51.5999984741211
487.7276815,-57.560001373291
487.7433065,-62.9500007629395
487.7589315,-67.6399993896484
487.7745565,-71.629997253418
487.7901815,-75.0400009155273
487.8058065,-78.2300033569336
487.8214315,-81.6600036621094
487.8370565,-85.6699981689453
487.8526815,-90.3099975585938
487.8683065,-95.3399963378906
487.8839315,-100.410003662109
487.8995565,-105.26000213623
487.9151815,-109.660003662109
487.9308065,-113.290000915527
487.9464315,-115.569999694824
487.9620565,-115.900001525879
487.9776815,-114.059997558594
487.9933065,-110.319999694824
488.0089315,-105.370002746582
488.0245565,-99.9599990844727
488.0401815,-94.6699981689453
488.0558065,-89.8199996948242
488.0714315,-85.4199981689453
488.0870565,-81.3199996948242
488.1026815,-77.2799987792969
488.1183065,-73.120002746582
488.1339315,-68.8300018310547
488.1495565,-64.4700012207031
488.1651815,-60.2000007629395
488.1808065,-56.1100006103516
488.1964315,-52.2900009155273
488.2120565,-48.3300018310547
488.2276815,-45.1699981689453
488.2433065,-43.0099983215332
488.2589315,-41.8300018310547
488.2745565,-41.3699989318848
488.2901815,-41.2700004577637
488.3058065,-41.2099990844727
488.3214315,-41.0400009155273
488.3370565,-40.7200012207031
488.3526815,-40.3400001525879
488.3683065,-40.0
488.3839315,-39.8699989318848
488.3995565,-40.0299987792969
488.4151815,-40.5099983215332
488.4308065,-41.2299995422363
488.4464315,-42.1599998474121
488.4620565,-43.2900009155273
488.4776815,-44.560001373291
488.4933065,-45.8199996948242
488.5089315,-46.8499984741211
488.5245565,-47.4799995422363
488.5401815,-47.6699981689453
488.5558065,-47.4900016784668
488.5714315,-46.9799995422363
488.5870565,-46.189998626709
488.6026815,-45.1399993896484
488.6183065,-43.9300003051758
488.6339315,-42.5900001525879
488.6495565,-40.8800010681152
488.6651815,-38.189998626709
488.6808065,-33.9500007629395
488.6964315,-28.0599994659424
488.7120565,-20.8500003814697
488.7276815,-12.7399997711182
488.7433065,-4.09999990463257
488.7589315,4.69000005722046
488.7745565,12.9899997711182
488.7901815,19.8799991607666
488.8058065,24.6299991607666
488.8214315,27.1499996185303
488.8370565,27.8700008392334
488.8526815,27.2900009155273
488.8683065,25.7700004577637
488.8839315,23.5900001525879
488.8995565,21.0400009155273
488.9151815,18.3299999237061
488.9308065,15.460000038147
488.9464315,12.1099996566772
488.9620565,7.90000009536743
488.9776815,2.71000003814697
488.9933065,-3.32999992370605
489.0089315,-10.0900001525879
489.0245565,-17.4300003051758
489.0401815,-25.1000003814697
489.0558065,-32.5900001525879
489.0714315,-39.25
489.0870565,-44.7099990844727
489.1026815,-49.2099990844727
489.1183065,-53.2900009155273
489.1339315,-57.2299995422363
489.1495565,-61.0200004577637
489.1651815,-64.7300033569336
489.1808065,-68.5599975585938
489.1964315,-72.629997253418
489.2120565,-76.2099990844727
489.2276815,-79.0899963378906
489.2433065,-80.7099990844727
489.2589315,-80.9599990844727
489.2745565,-80.0899963378906
489.2901815,-78.3199996948242
489.3058065,-75.7600021362305
489.3214315,-72.5100021362305
489.3370565,-68.8099975585938
489.3526815,-64.9000015258789
489.3683065,-60.8800010681152
489.3839315,-56.6199989318848
489.3995565,-51.8699989318848
489.4151815,-46.5800018310547
489.4308065,-40.9700012207031
489.4464315,-35.4500007629395
489.4620565,-30.3899993896484
489.4776815,-25.9799995422363
489.4933065,-22.2299995422363
489.5089315,-19.1200008392334
489.5245565,-16.6900005340576
489.5401815,-14.9899997711182
489.5558065,-13.9899997711182
489.5714315,-13.4300003051758
489.5870565,-12.9700002670288
489.6026815,-12.3199996948242
489.6183065,-11.3800001144409
489.6339315,-10.210000038147
489.6495565,-8.98999977111816
489.6651815,-7.94000005722046
489.6808065,-7.23000001907349
489.6964315,-6.8600001335144
489.7120565,-6.80999994277954
489.7276815,-7.07000017166138
489.7433065,-7.6399998664856
489.7589315,-8.47000026702881
489.7745565,-9.28999996185303
489.7901815,-9.67000007629395
489.8058065,-9.31999969482422
489.8214315,-8.27999973297119
489.8370565,-6.84000015258789
489.8526815,-5.23999977111816
489.8683065,-3.55999994277954
489.8839315,-1.77999997138977
489.8995565,0.109999999403954
489.9151815,2.10999989509583
489.9308065,4.17999982833862
489.9464315,6.34999990463257
489.9620565,8.6899995803833
489.9776815,11.2299995422363
489.9933065,14.0799999237061
490.0089315,17.5
490.0245565,21.7099990844727
490.0401815,26.7000007629395
490.0558065,32.1699981689453
490.0714315,37.7799987792969
490.0870565,43.3899993896484
490.1026815,49.189998626709
490.1183065,55.3300018310547
490.1339315,61.5499992370605
490.1495565,67.2200012207031
490.1651815,71.870002746582
490.1808065,75.379997253418
490.1964315,77.9800033569336
490.2120565,79.8199996948242
490.2276815,81.2699966430664
490.2433065,82.4000015258789
490.2589315,83.1699981689453
490.2745565,83.6600036621094
490.2901815,83.9800033569336
490.3058065,84.3000030517578
490.3214315,84.6699981689453
490.3370565,84.9000015258789
490.3526815,84.629997253418
490.3683065,83.5
490.3839315,81.4199981689453
490.3995565,78.5599975585938
490.4151815,75.2300033569336
490.4308065,71.7200012207031
490.4464315,68.2200012207031
490.4620565,64.8300018310547
490.4776815,61.5499992370605
490.4933065,58.2799987792969
490.5089315,54.7999992370605
490.5245565,50.9300003051758
490.5401815,46.6399993896484
490.5558065,41.9799995422363
490.5714315,36.9799995422363
490.5870565,31.6599998474121
490.6026815,26.1100006103516
490.6183065,20.6200008392334
490.6339315,15.5699996948242
490.6495565,11.3199996948242
490.6651815,7.96999979019165
490.6808065,5.44999980926514
490.6964315,3.66000008583069
490.7120565,2.51999998092651
490.7276815,1.88999998569489
