Time(s),Value(%)
2150.010146,0.430000007152557
2150.025771,-1.62000000476837
2150.041396,-3.33999991416931
2150.057021,-5.1100001335144
2150.072646,-7.1399998664856
2150.088271,-9.38000011444092
2150.103896,-11.6800003051758
2150.119521,-13.8900003433228
2150.135146,-15.9099998474121
2150.150771,-17.6000003814697
2150.166396,-18.8600006103516
2150.182021,-19.7299995422363
2150.197646,-20.3999996185303
2150.213271,-21.0300006866455
2150.228896,-21.6200008392334
2150.244521,-22.0599994659424
2150.260146,-22.2399997711182
2150.275771,-22.1700000762939
2150.291396,-21.8999996185303
2150.307021,-21.5
2150.322646,-21.0200004577637
2150.338271,-20.5200004577637
2150.353896,-19.9599990844727
2150.369521,-19.2800006866455
2150.385146,-18.3999996185303
2150.400771,-17.2700004577637
2150.416396,-15.9700002670288
2150.432021,-14.710000038147
2150.447646,-13.710000038147
2150.463271,-13.0100002288818
2150.478896,-12.3999996185303
2150.494521,-11.6499996185303
2150.510146,-10.5900001525879
2150.525771,-8.97000026702881
2150.541396,-6.26999998092651
2150.557021,-1.55999994277954
2150.572646,5.88000011444092
2150.588271,15.7799997329712
2150.603896,26.5900001525879
2150.619521,36.2000007629395
2150.635146,42.810001373291
2150.650771,45.6399993896484
2150.666396,45.0
2150.682021,42.1100006103516
2150.697646,38.3400001525879
2150.713271,34.75
2150.728896,31.8099994659424
2150.744521,29.4899997711182
2150.760146,27.2999992370605
2150.775771,24.7299995422363
2150.791396,21.4699993133545
2150.807021,17.6200008392334
2150.822646,13.5200004577637
2150.838271,9.57999992370605
2150.853896,6.1100001335144
2150.869521,3.24000000953674
2150.885146,0.949999988079071
2150.900771,-0.920000016689301
2150.916396,-2.65000009536743
2150.932021,-4.55000019073486
2150.947646,-6.82999992370605
2150.963271,-9.47000026702881
2150.978896,-12.2299995422363
2150.994521,-14.8199996948242
2151.010146,-17.0
2151.025771,-18.7000007629395
2151.041396,-20.0499992370605
2151.057021,-21.1900005340576
2151.072646,-22.1599998474121
2151.088271,-22.8999996185303
2151.103896,-23.2700004577637
2151.119521,-23.1599998474121
2151.135146,-22.6299991607666
2151.150771,-21.9400005340576
2151.166396,-21.3299999237061
2151.182021,-20.8299999237061
2151.197646,-20.3099994659424
2151.213271,-19.5400009155273
2151.228896,-18.3700008392334
2151.244521,-16.9599990844727
2151.260146,-15.6199998855591
2151.275771,-14.6099996566772
2151.291396,-13.8599996566772
2151.307021,-13.2200002670288
2151.322646,-12.5900001525879
2151.338271,-12.0
2151.353896,-11.4300003051758
2151.369521,-10.7799997329712
2151.385146,-9.89999961853027
2151.400771,-8.69999980926514
2151.416396,-7.28999996185303
2151.432021,-5.80999994277954
2151.447646,-4.3899998664856
2151.463271,-2.90000009536743
2151.478896,-0.879999995231628
2151.494521,2.5
2151.510146,8.17000007629395
2151.525771,16.4500007629395
2151.541396,26.6599998474121
2151.557021,37.0800018310547
2151.572646,45.7200012207031
2151.588271,51.0400009155273
2151.603896,52.4599990844727
2151.619521,50.4599990844727
2151.635146,46.2599983215332
2151.650771,41.3699989318848
2151.666396,36.9300003051758
2151.682021,33.4900016784668
2151.697646,30.8799991607666
2151.713271,28.4899997711182
2151.728896,25.6900005340576
2151.744521,22.0900001525879
2151.760146,17.7299995422363
2151.775771,13.0500001907349
2151.791396,8.53999996185303
2151.807021,4.59999990463257
2151.822646,1.4099999666214
2151.838271,-1.04999995231628
2151.853896,-3.02999997138977
2151.869521,-4.80999994277954
2151.885146,-6.61999988555908
2151.900771,-8.51000022888184
2151.916396,-10.4799995422363
2151.932021,-12.4799995422363
2151.947646,-14.4700002670288
2151.963271,-16.4099998474121
2151.978896,-18.2700004577637
2151.994521,-20.0300006866455
2152.010146,-21.6700000762939
2152.025771,-23.1299991607666
2152.041396,-24.3199996948242
2152.057021,-25.1000003814697
2152.072646,-25.3899993896484
2152.088271,-25.2999992370605
2152.103896,-25.0400009155273
2152.119521,-24.7399997711182
2152.135146,-24.3600006103516
2152.150771,-23.8199996948242
2152.166396,-23.0699996948242
2152.182021,-22.2199993133545
2152.197646,-21.4099998474121
2152.213271,-20.6800003051758
2152.228896,-19.9500007629395
2152.244521,-19.1800003051758
2152.260146,-18.4099998474121
2152.275771,-17.7000007629395
2152.291396,-17.0
2152.307021,-16.0699996948242
2152.322646,-14.710000038147
2152.338271,-13.0299997329712
2152.353896,-11.3599996566772
2152.369521,-9.97999954223633
2152.385146,-8.89999961853027
2152.400771,-7.88000011444092
2152.416396,-6.57000017166138
2152.432021,-4.40999984741211
2152.447646,-0.75
2152.463271,5.09000015258789
2152.478896,13.4200000762939
2152.494521,23.7299995422363
2152.510146,34.4700012207031
2152.525771,43.6100006103516
2152.541396,49.4700012207031
2152.557021,51.4099998474121
2152.572646,49.9099998474121
2152.588271,46.189998626709
2152.603896,41.5800018310547
2152.619521,37.0499992370605
2152.635146,33.1599998474121
2152.650771,30.0599994659424
2152.666396,27.4699993133545
2152.682021,24.7900009155273
2152.697646,21.4799995422363
2152.713271,17.4300003051758
2152.728896,13.0200004577637
2152.744521,8.85000038146973
2152.760146,5.3899998664856
2152.775771,2.73000001907349
2152.791396,0.660000026226044
2152.807021,-1.12000000476837
2152.822646,-2.9300000667572
2152.838271,-4.96000003814697
2152.853896,-7.28999996185303
2152.869521,-9.84000015258789
2152.885146,-12.4200000762939
2152.900771,-14.7700004577637
2152.916396,-16.6700000762939
2152.932021,-18.0599994659424
2152.947646,-19.1100006103516
2152.963271,-20.0300006866455
2152.978896,-20.9599990844727
2152.994521,-21.8700008392334
2153.010146,-22.5300006866455
2153.025771,-22.7700004577637
2153.041396,-22.6100006103516
2153.057021,-22.2299995422363
2153.072646,-21.8299999237061
2153.088271,-21.4599990844727
2153.103896,-21.0699996948242
2153.119521,-20.6100006103516
2153.135146,-20.0100002288818
2153.150771,-19.25
2153.166396,-18.3299999237061
2153.182021,-17.3600006103516
2153.197646,-16.4799995422363
2153.213271,-15.7700004577637
2153.228896,-15.1800003051758
2153.244521,-14.6199998855591
2153.260146,-13.9899997711182
2153.275771,-13.210000038147
2153.291396,-12.25
2153.307021,-11.0799999237061
2153.322646,-9.72000026702881
2153.338271,-8.14999961853027
2153.353896,-6.21999979019165
2153.369521,-3.26999998092651
2153.385146,1.6599999666214
2153.400771,9.19999980926514
2153.416396,18.9200000762939
2153.432021,29.4099998474121
2153.447646,38.8800010681152
2153.463271,45.7999992370605
2153.478896,49.3600006103516
2153.494521,49.5800018310547
2153.510146,47.0900001525879
2153.525771,42.9500007629395
2153.541396,38.3499984741211
2153.557021,34.1699981689453
2153.572646,30.7900009155273
2153.588271,28.0200004577637
2153.603896,25.3899993896484
2153.619521,22.4300003051758
2153.635146,18.8899993896484
2153.650771,14.8000001907349
2153.666396,10.5200004577637
2153.682021,6.51000022888184
2153.697646,3.17000007629395
2153.713271,0.550000011920929
2153.728896,-1.5
2153.744521,-3.25999999046326
2153.760146,-4.90999984741211
2153.775771,-6.57999992370605
2153.791396,-8.36999988555908
2153.807021,-10.2799997329712
2153.822646,-12.3000001907349
2153.838271,-14.3800001144409
2153.853896,-16.4500007629395
2153.869521,-18.4200000762939
2153.885146,-20.0799999237061
2153.900771,-21.2600002288818
2153.916396,-21.9599990844727
2153.932021,-22.2800006866455
2153.947646,-22.2800006866455
2153.963271,-22.0300006866455
2153.978896,-21.7199993133545
2153.994521,-21.5
2154.010146,-21.4099998474121
2154.025771,-21.3099994659424
2154.041396,-21.0200004577637
2154.057021,-20.4099998474121
2154.072646,-19.5
2154.088271,-18.4400005340576
2154.103896,-17.4200000762939
2154.119521,-16.5699996948242
2154.135146,-15.9200000762939
2154.150771,-15.3400001525879
2154.166396,-14.6499996185303
2154.182021,-13.6999998092651
2154.197646,-12.4700002670288
2154.213271,-10.7200002670288
2154.228896,-7.78000020980835
2154.244521,-2.61999988555908
2154.260146,5.28000020980835
2154.275771,15.3000001907349
2154.291396,25.8099994659424
2154.307021,34.9300003051758
2154.322646,41.1699981689453
2154.338271,43.9000015258789
2154.353896,43.4099998474121
2154.369521,40.6599998474121
2154.385146,36.8300018310547
2154.400771,32.9199981689453
2154.416396,29.5499992370605
2154.432021,26.8199996948242
2154.447646,24.3799991607666
2154.463271,21.7700004577637
2154.478896,18.6900005340576
2154.494521,15.1800003051758
2154.510146,11.4799995422363
2154.525771,7.84000015258789
2154.541396,4.46000003814697
2154.557021,1.42999994754791
2154.572646,-1.16999995708466
2154.588271,-3.29999995231628
2154.603896,-5.0
2154.619521,-6.44000005722046
2154.635146,-7.88000011444092
2154.650771,-9.5600004196167
2154.666396,-11.5299997329712
2154.682021,-13.6499996185303
2154.697646,-15.6800003051758
2154.713271,-17.4599990844727
2154.728896,-18.9899997711182
2154.744521,-20.3299999237061
2154.760146,-21.5200004577637
2154.775771,-22.4799995422363
2154.791396,-23.1299991607666
2154.807021,-23.4300003051758
2154.822646,-23.3799991607666
2154.838271,-23.0699996948242
2154.853896,-22.6499996185303
2154.869521,-22.2700004577637
2154.885146,-21.9799995422363
2154.900771,-21.6499996185303
2154.916396,-21.1100006103516
2154.932021,-20.1900005340576
2154.947646,-18.8099994659424
2154.963271,-17.1100006103516
2154.978896,-15.4399995803833
2154.994521,-14.1800003051758
2155.010146,-13.4300003051758
2155.025771,-12.9300003051758
2155.041396,-12.3199996948242
2155.057021,-11.4200000762939
2155.072646,-10.2200002670288
2155.088271,-8.5
2155.103896,-5.59999990463257
2155.119521,-0.740000009536743
2155.135146,6.53999996185303
2155.150771,16.0
2155.166396,26.5
2155.182021,36.2599983215332
2155.197646,43.5200004577637
2155.213271,47.1800003051758
2155.228896,47.2200012207031
2155.244521,44.5800018310547
2155.260146,40.810001373291
2155.275771,37.25
2155.291396,34.5200004577637
2155.307021,32.4599990844727
2155.322646,30.5400009155273
2155.338271,28.2099990844727
2155.353896,25.1399993896484
2155.369521,21.3299999237061
2155.385146,17.0799999237061
2155.400771,12.7799997329712
2155.416396,8.76000022888184
2155.432021,5.21999979019165
2155.447646,2.27999997138977
2155.463271,-0.0900000035762787
2155.478896,-2.15000009536743
2155.494521,-4.19000005722046
2155.510146,-6.44999980926514
2155.525771,-8.97999954223633
2155.541396,-11.6400003433228
2155.557021,-14.1700000762939
2155.572646,-16.3500003814697
2155.588271,-18.1299991607666
2155.603896,-19.5900001525879
2155.619521,-20.9400005340576
2155.635146,-22.2800006866455
2155.650771,-23.5200004577637
2155.666396,-24.5
2155.682021,-25.1299991607666
2155.697646,-25.3999996185303
2155.713271,-25.3500003814697
2155.728896,-25.0799999237061
2155.744521,-24.7199993133545
2155.760146,-24.3099994659424
2155.775771,-23.8199996948242
2155.791396,-23.1900005340576
2155.807021,-22.4400005340576
2155.822646,-21.5300006866455
2155.838271,-20.4300003051758
2155.853896,-19.2299995422363
2155.869521,-18.0699996948242
2155.885146,-17.0400009155273
2155.900771,-15.9899997711182
2155.916396,-14.7600002288818
2155.932021,-13.3699998855591
2155.947646,-11.8800001144409
2155.963271,-10.1400003433228
2155.978896,-7.48999977111816
2155.994521,-2.91000008583069
2156.010146,4.53999996185303
2156.025771,14.8500003814697
2156.041396,26.4899997711182
2156.057021,37.0999984741211
2156.072646,44.6599998474121
2156.088271,48.2799987792969
2156.103896,48.2299995422363
2156.119521,45.6699981689453
2156.135146,42.060001373291
2156.150771,38.5499992370605
2156.166396,35.689998626709
2156.182021,33.4300003051758
2156.197646,31.3199996948242
2156.213271,28.8199996948242
2156.228896,25.5799999237061
2156.244521,21.5699996948242
2156.260146,17.0499992370605
2156.275771,12.5
2156.291396,8.39999961853027
2156.307021,5.01000022888184
2156.322646,2.3199999332428
2156.338271,0.0700000002980232
2156.353896,-2.10999989509583
2156.369521,-4.51999998092651
2156.385146,-7.19999980926514
2156.400771,-10.0
2156.416396,-12.6899995803833
2156.432021,-15.0100002288818
2156.447646,-16.8199996948242
2156.463271,-18.1900005340576
2156.478896,-19.3700008392334
2156.494521,-20.5499992370605
2156.510146,-21.7800006866455
2156.525771,-22.9400005340576
2156.541396,-23.8199996948242
2156.557021,-24.2600002288818
2156.572646,-24.2000007629395
2156.588271,-23.8099994659424
2156.603896,-23.3299999237061
2156.619521,-22.9599990844727
2156.635146,-22.75
2156.650771,-22.5799999237061
2156.666396,-22.2600002288818
2156.682021,-21.6100006103516
2156.697646,-20.6100006103516
2156.713271,-19.3999996185303
2156.728896,-18.1499996185303
2156.744521,-16.9799995422363
2156.760146,-15.9399995803833
2156.775771,-14.9899997711182
2156.791396,-14.0200004577637
2156.807021,-12.8999996185303
2156.822646,-11.5600004196167
2156.838271,-9.92000007629395
2156.853896,-7.63000011444092
2156.869521,-3.78999996185303
2156.885146,2.52999997138977
2156.900771,11.6300001144409
2156.916396,22.6499996185303
2156.932021,33.7400016784668
2156.947646,42.75
2156.963271,48.2299995422363
2156.978896,49.9300003051758
2156.994521,48.5699996948242
2157.010146,45.4300003051758
2157.025771,41.7900009155273
2157.041396,38.5400009155273
2157.057021,35.9300003051758
2157.072646,33.7799987792969
2157.088271,31.5699996948242
2157.103896,28.7299995422363
2157.119521,24.9500007629395
2157.135146,20.3600006103516
2157.150771,15.460000038147
2157.166396,10.8900003433228
2157.182021,7.03999996185303
2157.197646,3.98000001907349
2157.213271,1.5
2157.228896,-0.670000016689301
2157.244521,-2.84999990463257
2157.260146,-5.28000020980835
2157.275771,-8.02000045776367
2157.291396,-10.9300003051758
2157.307021,-13.7299995422363
2157.322646,-16.0900001525879
2157.338271,-17.8600006103516
2157.353896,-19.1499996185303
2157.369521,-20.2199993133545
2157.385146,-21.2600002288818
2157.400771,-22.25
2157.416396,-23.0400009155273
2157.432021,-23.5599994659424
2157.447646,-23.8700008392334
2157.463271,-24.0499992370605
2157.478896,-24.0499992370605
2157.494521,-23.7299995422363
2157.510146,-23.1399993896484
2157.525771,-22.4500007629395
2157.541396,-21.8299999237061
2157.557021,-21.2600002288818
2157.572646,-20.5799999237061
2157.588271,-19.7199993133545
2157.603896,-18.7700004577637
2157.619521,-17.8500003814697
2157.635146,-16.9699993133545
2157.650771,-16.0300006866455
2157.666396,-14.9499998092651
2157.682021,-13.7200002670288
2157.697646,-12.3900003433228
2157.713271,-10.789999961853
2157.728896,-8.35999965667725
2157.744521,-4.1100001335144
2157.760146,2.99000000953674
2157.775771,13.1499996185303
2157.791396,25.0100002288818
2157.807021,36.1800003051758
2157.822646,44.3400001525879
2157.838271,48.2400016784668
2157.853896,48.1100006103516
2157.869521,45.310001373291
2157.885146,41.5
2157.900771,37.8400001525879
2157.916396,34.75
2157.932021,32.0900001525879
2157.947646,29.4699993133545
2157.963271,26.5
2157.978896,22.9899997711182
2157.994521,18.9599990844727
2158.010146,14.710000038147
2158.025771,10.6700000762939
2158.041396,7.09999990463257
2158.057021,4.03999996185303
2158.072646,1.4099999666214
2158.088271,-0.889999985694885
2158.103896,-2.98000001907349
2158.119521,-4.96000003814697
2158.135146,-7.01999998092651
2158.150771,-9.31999969482422
2158.166396,-11.7700004577637
2158.182021,-14.1999998092651
2158.197646,-16.4200000762939
2158.213271,-18.3199996948242
2158.228896,-19.8400001525879
2158.244521,-20.9799995422363
2158.260146,-21.8600006103516
2158.275771,-22.6299991607666
2158.291396,-23.3899993896484
2158.307021,-24.0200004577637
2158.322646,-24.3799991607666
2158.338271,-24.3700008392334
2158.353896,-24.0599994659424
2158.369521,-23.6299991607666
2158.385146,-23.2199993133545
2158.400771,-22.7999992370605
2158.416396,-22.25
2158.432021,-21.4799995422363
2158.447646,-20.4799995422363
2158.463271,-19.3799991607666
2158.478896,-18.2700004577637
2158.494521,-17.1900005340576
2158.510146,-16.0300006866455
2158.525771,-14.6999998092651
2158.541396,-13.3100004196167
2158.557021,-12.0500001907349
2158.572646,-10.9499998092651
2158.588271,-9.8100004196167
2158.603896,-8.27000045776367
2158.619521,-5.80000019073486
2158.635146,-1.58000004291534
2158.650771,5.34999990463257
2158.666396,15.3299999237061
2158.682021,27.2399997711182
2158.697646,38.8499984741211
2158.713271,47.810001373291
2158.728896,52.6599998474121
2158.744521,53.25
2158.760146,50.5800018310547
2158.775771,46.2400016784668
2158.791396,41.75
2158.807021,38.0699996948242
2158.822646,35.3899993896484
2158.838271,33.25
2158.853896,30.8899993896484
2158.869521,27.6900005340576
2158.885146,23.5
2158.900771,18.5900001525879
2158.916396,13.5600004196167
2158.932021,8.97000026702881
2158.947646,5.1399998664856
2158.963271,2.01999998092651
2158.978896,-0.660000026226044
2158.994521,-3.21000003814697
2159.010146,-5.82000017166138
2159.025771,-8.46000003814697
2159.041396,-11.0600004196167
2159.057021,-13.5900001525879
2159.072646,-16.0400009155273
2159.088271,-18.3299999237061
2159.103896,-20.3199996948242
2159.119521,-21.9599990844727
2159.135146,-23.3099994659424
2159.150771,-24.5200004577637
2159.166396,-25.6700000762939
2159.182021,-26.6700000762939
2159.197646,-27.3500003814697
2159.213271,-27.5699996948242
2159.228896,-27.3299999237061
2159.244521,-26.7800006866455
2159.260146,-26.0900001525879
2159.275771,-25.3700008392334
2159.291396,-24.6700000762939
2159.307021,-24.0200004577637
2159.322646,-23.3700008392334
2159.338271,-22.6200008392334
2159.353896,-21.7199993133545
2159.369521,-20.7299995422363
2159.385146,-19.7600002288818
2159.400771,-18.8299999237061
2159.416396,-17.8600006103516
2159.432021,-16.7600002288818
2159.447646,-15.4300003051758
2159.463271,-13.8400001525879
2159.478896,-12.0299997329712
2159.494521,-10.1899995803833
2159.510146,-8.31999969482422
2159.525771,-5.82000017166138
2159.541396,-1.36000001430511
2159.557021,6.32999992370605
2159.572646,17.3299999237061
2159.588271,30.1399993896484
2159.603896,42.310001373291
2159.619521,51.4700012207031
2159.635146,56.2999992370605
2159.650771,56.8499984741211
2159.666396,54.2799987792969
2159.682021,50.1699981689453
2159.697646,45.8899993896484
2159.713271,42.2099990844727
2159.728896,39.1699981689453
2159.744521,36.3600006103516
2159.760146,33.3199996948242
2159.775771,29.7299995422363
2159.791396,25.4599990844727
2159.807021,20.5699996948242
2159.822646,15.460000038147
2159.838271,10.6999998092651
2159.853896,6.71999979019165
2159.869521,3.52999997138977
2159.885146,0.850000023841858
2159.900771,-1.69000005722046
2159.916396,-4.38000011444092
2159.932021,-7.23000001907349
2159.947646,-10.1099996566772
2159.963271,-12.8599996566772
2159.978896,-15.3500003814697
2159.994521,-17.6000003814697
2160.010146,-19.6800003051758
2160.025771,-21.6299991607666
2160.041396,-23.4500007629395
2160.057021,-25.0799999237061
2160.072646,-26.4200000762939
2160.088271,-27.3400001525879
2160.103896,-27.7900009155273
2160.119521,-27.8299999237061
2160.135146,-27.6200008392334
2160.150771,-27.3299999237061
2160.166396,-27.0400009155273
2160.182021,-26.6800003051758
2160.197646,-26.1499996185303
2160.213271,-25.3999996185303
2160.228896,-24.5100002288818
2160.244521,-23.5900001525879
2160.260146,-22.6900005340576
2160.275771,-21.7600002288818
2160.291396,-20.75
2160.307021,-19.6399993896484
2160.322646,-18.4300003051758
2160.338271,-17.1200008392334
2160.353896,-15.7399997711182
2160.369521,-14.289999961853
2160.385146,-12.8500003814697
2160.400771,-11.5
2160.416396,-10.0799999237061
2160.432021,-8.10000038146973
2160.447646,-4.71999979019165
2160.463271,0.990000009536743
2160.478896,9.63000011444092
2160.494521,20.9400005340576
2160.510146,33.5400009155273
2160.525771,45.2099990844727
2160.541396,53.7999992370605
2160.557021,58.1500015258789
2160.572646,58.3199996948242
2160.588271,55.3499984741211
2160.603896,50.7599983215332
2160.619521,45.9599990844727
2160.635146,41.810001373291
2160.650771,38.4300003051758
2160.666396,35.4099998474121
2160.682021,32.189998626709
2160.697646,28.3799991607666
2160.713271,23.9200000762939
2160.728896,18.9699993133545
2160.744521,13.8599996566772
